Time (s),Filtered Signal
0.0,-0.04990353800144509
0.033370165745856356,-0.1342192566901043
0.06674033149171271,-0.22130242660234836
0.10011049723756907,-0.3062423297219939
0.13348066298342542,-0.3722629836031152
0.16685082872928178,-0.3947671865269909
0.20022099447513814,-0.35144016461708805
0.2335911602209945,-0.23368647550277416
0.26696132596685085,-0.05367216373079644
0.30033149171270723,0.15685701639782415
0.33370165745856356,0.35592393076431694
0.3670718232044199,0.5049073416624691
0.4004419889502763,0.5805744658643962
0.43381215469613266,0.5807427723095256
0.467182320441989,0.5218637724453801
0.5005524861878453,0.4303564796323235
0.5339226519337017,0.33183258902988405
0.5672928176795581,0.24265944682457313
0.6006629834254145,0.1668120112843484
0.6340331491712707,0.09852189876907068
0.6674033149171271,0.028857772373690506
0.7007734806629835,-0.04708226106748738
0.7341436464088398,-0.12572823094532432
0.7675138121546962,-0.19533916313108843
0.8008839779005525,-0.24080315215856427
0.8342541436464089,-0.25054757983604564
0.8676243093922653,-0.22213442466857045
0.9009944751381216,-0.16375852198895421
0.934364640883978,-0.09093623162922486
0.9677348066298344,-0.020129354557362502
1.0011049723756906,0.03741431555181754
1.0344751381215471,0.07854804582772083
1.0678453038674034,0.10664411754382493
1.1012154696132597,0.12680066919224864
1.1345856353591162,0.14079123357151052
1.1679558011049724,0.14473770639716527
1.201325966850829,0.13086870073782145
1.2346961325966852,0.09237762265530129
1.2680662983425415,0.02861060821097064
1.301436464088398,-0.0524401971802201
1.3348066298342542,-0.1359589685279367
1.3681767955801105,-0.20576882576116293
1.401546961325967,-0.25080802949379344
1.4349171270718233,-0.2694264342132298
1.4682872928176796,-0.2694160524041046
1.501657458563536,-0.26386365142404233
1.5350276243093923,-0.2649845078556722
1.5683977900552488,-0.2789663212082011
1.601767955801105,-0.30409693546182637
1.6351381215469614,-0.33255785845795405
1.6685082872928179,-0.35435549541401495
1.7018784530386741,-0.3610160598491577
1.7352486187845306,-0.34728615881326586
1.768618784530387,-0.31065028463708744
1.8019889502762432,-0.24993442379082814
1.8353591160220997,-0.16468462041321263
1.868729281767956,-0.056183728417876264
1.9020994475138122,0.07048567097067236
1.9354696132596687,0.20499763509893076
1.968839779005525,0.33256891554205054
2.0022099447513813,0.4373878489517112
2.0355801104972375,0.5074772511915667
2.0689502762430942,0.5387363964581707
2.1023204419889505,0.5361052319148816
2.135690607734807,0.5111613404136366
2.169060773480663,0.47722915577389624
2.2024309392265193,0.44426954593958234
2.235801104972376,0.41581543976872126
2.2691712707182323,0.38910191556395723
2.3025414364640886,0.3579581122164811
2.335911602209945,0.31680296573161104
2.369281767955801,0.263773785943241
2.402651933701658,0.2016682812858334
2.436022099447514,0.13657307951980407
2.4693922651933704,0.07514127532668873
2.5027624309392267,0.021951682156119652
2.536132596685083,-0.021899993657609064
2.5695027624309392,-0.05859062684349492
2.602872928176796,-0.09212905982532867
2.636243093922652,-0.12649703205467547
2.6696132596685085,-0.1641582245084196
2.7029834254143648,-0.20539993635179862
2.736353591160221,-0.2485758359809234
2.7697237569060777,-0.2909928260464564
2.803093922651934,-0.329975740917384
2.8364640883977903,-0.3635767488799755
2.8698342541436466,-0.39053602173198043
2.903204419889503,-0.4094925957803813
2.936574585635359,-0.4179917653522411
2.969944751381216,-0.4122406668842075
3.003314917127072,-0.38845351908612336
3.0366850828729284,-0.3458202239613461
3.0700552486187846,-0.28987297993841454
3.103425414364641,-0.23400134086480898
3.1367955801104976,-0.19691004822852484
3.170165745856354,-0.19540255651391894
3.20353591160221,-0.2346517792675083
3.2369060773480665,-0.3007728688679777
3.2702762430939227,-0.3612274164223957
3.3036464088397794,-0.3760651892635071
3.3370165745856357,-0.3175555772900264
3.370386740331492,-0.18971982822991248
3.4037569060773483,-0.03623829486119497
3.4371270718232045,0.07188656980901457
3.4704972375690613,0.06849720553627585
3.5038674033149175,-0.06774227557038154
3.537237569060774,-0.28557273461963645
3.57060773480663,-0.4642319834713794
3.6039779005524863,-0.4537536884394452
3.6373480662983426,-0.14006987493577625
3.6707182320441993,0.4932201452169951
3.7040883977900556,1.3376532380468578
3.737458563535912,2.1851241451746697
3.770828729281768,2.7988429455168204
3.8041988950276244,3.000281073107055
3.837569060773481,2.733565585245409
3.8709392265193374,2.079453070030072
3.9043093922651937,1.215408574599404
3.93767955801105,0.3432318303509809
3.9710497237569062,-0.38166695347706764
4.0044198895027625,-0.8900889084393117
4.037790055248619,-1.196690637666337
4.071160220994475,-1.3648079238119764
4.104530386740332,-1.4608544868186986
4.1379005524861885,-1.5211992532128327
4.171270718232044,-1.5442204887650064
4.204640883977901,-1.5058218027992163
4.238011049723757,-1.3854975662778086
4.271381215469614,-1.186903729427223
4.30475138121547,-0.9422180516548164
4.338121546961326,-0.6995957041099767
4.371491712707183,-0.5020592305881522
4.404861878453039,-0.36968007300617356
4.438232044198895,-0.29380748654309174
4.471602209944752,-0.24490889443252048
4.504972375690608,-0.18864006610066883
4.538342541436465,-0.10159947476249981
4.5717127071823205,0.020206398217827347
4.605082872928177,0.16252999284599864
4.638453038674034,0.30124627803245924
4.67182320441989,0.41290099220412074
4.7051933701657465,0.4827539298357708
4.738563535911602,0.5079366553936512
4.771933701657459,0.49600342922018226
4.805303867403316,0.4608305992648677
4.8386740331491715,0.41806219792066457
4.872044198895028,0.381501809728314
4.905414364640884,0.36080182494318747
4.938784530386741,0.36016413072588904
4.972154696132597,0.3777576342034909
5.005524861878453,0.4059351963730026
5.03889502762431,0.43263250396842967
5.072265193370166,0.4441934486369661
5.105635359116023,0.4292598702225119
5.1390055248618784,0.3826110477129928
5.172375690607735,0.30743521393260353
5.205745856353592,0.21483283846055734
5.239116022099448,0.12038057172646609
5.272486187845304,0.038881806774608396
5.30585635359116,-0.02066675117580466
5.339226519337017,-0.05785196419264976
5.372596685082874,-0.08024338369224013
5.4059668508287295,-0.0997072719991823
5.439337016574586,-0.12718599486735105
5.472707182320442,-0.16806613993596842
5.506077348066299,-0.21995266206255867
5.5394475138121555,-0.273650667315735
5.572817679558011,-0.31686134257041093
5.606187845303868,-0.33904664419754876
5.639558011049724,-0.3355255221749807
5.672928176795581,-0.309267029322887
5.706298342541437,-0.26982681057081226
5.739668508287293,-0.22997341493185922
5.77303867403315,-0.201308359570365
5.806408839779006,-0.19036997808058362
5.839779005524862,-0.19640031371849614
5.873149171270718,-0.21139481387066253
5.906519337016575,-0.22245683646669565
5.939889502762432,-0.21590703213567242
5.9732596685082875,-0.18204947681665495
6.006629834254144,-0.11907473234889433
6.04,-0.03455056781278719
6.073370165745857,0.0564251490406217
6.1067403314917135,0.13608849832545433
6.140110497237569,0.1901706290002945
6.173480662983426,0.2128195383931573
6.206850828729282,0.20808244343318577
6.240220994475139,0.18723792506487918
6.273591160220995,0.16324119679581217
6.306961325966851,0.14497986532448892
6.340331491712708,0.13411854404346255
6.373701657458564,0.1259367739730252
6.40707182320442,0.11345143370692162
6.440441988950277,0.09241327640686006
6.473812154696133,0.06440966505555631
6.50718232044199,0.03646744720985281
6.5405524861878455,0.017544522753873443
6.573922651933702,0.01397397403661003
6.607292817679559,0.02634612570872353
6.640662983425415,0.049323431935704085
6.674033149171271,0.0741660705615062
6.707403314917127,0.0923596894206323
6.740773480662984,0.09843368368545344
6.774143646408841,0.09086387525108632
6.8075138121546965,0.071233048779316
6.840883977900553,0.04273981838597113
6.874254143646409,0.009192318927340529
6.907624309392266,-0.025100408606587216
6.9409944751381225,-0.05502843537026801
6.974364640883978,-0.07488417957173599
7.007734806629835,-0.0796407023278265
7.041104972375691,-0.06703289657042281
7.074475138121548,-0.039419727645293966
7.107845303867403,-0.004270530805100309
7.14121546961326,0.027302591928032197
7.174585635359117,0.04361397740577517
7.207955801104973,0.03599739301937102
7.241325966850829,0.0016924917003903685
7.274696132596685,-0.0548223847167877
7.308066298342542,-0.12232679175365326
7.341436464088399,-0.18504373230098264
7.3748066298342545,-0.22618694542252848
7.408176795580111,-0.23238894425887904
7.441546961325967,-0.1981858316335424
7.474917127071824,-0.129232136428119
7.5082872928176805,-0.04262333684890701
7.541657458563536,0.036878543924491615
7.575027624309393,0.0845424245762007
7.608397790055249,0.08513709503991305
7.641767955801106,0.04041835706420324
7.675138121546962,-0.02922247971195176
7.708508287292818,-0.09087363511612417
7.741878453038675,-0.11150817637572336
7.775248618784531,-0.07191691080270878
7.808618784530387,0.023969935769461555
7.841988950276244,0.1489825196793556
7.8753591160221,0.26250224756659374
7.908729281767957,0.3262805129715467
7.9420994475138125,0.3195230520418939
7.975469613259669,0.2466874167390336
8.008839779005525,0.13472184362664924
8.042209944751383,0.02127399327877228
8.075580110497238,-0.060599586097975514
8.108950276243094,-0.09441249539879958
8.14232044198895,-0.08407990499661355
8.175690607734808,-0.048862663747549835
8.209060773480664,-0.012756592963417496
8.24243093922652,0.006260621822265899
8.275801104972377,0.0024079489563435725
8.309171270718233,-0.018215603103421994
8.342541436464089,-0.043082459625083086
8.375911602209946,-0.06033527259917963
8.409281767955802,-0.06392489880608268
8.442651933701658,-0.054819436080444095
8.476022099447514,-0.038633673481219974
8.509392265193371,-0.02174656661362881
8.542762430939227,-0.008297103735417982
8.576132596685083,0.0005737433390534825
8.60950276243094,0.005454727647241922
8.642872928176796,0.006744862080081886
8.676243093922652,0.003569986318130754
8.709613259668508,-0.005811988022855868
8.742983425414366,-0.022580715542227695
8.776353591160222,-0.0460062914783484
8.809723756906077,-0.0731118582549967
8.843093922651935,-0.09949127414005321
8.87646408839779,-0.1206512223873722
8.909834254143647,-0.13302084001101228
8.943204419889504,-0.13420584871660718
8.97657458563536,-0.1227760394555762
9.009944751381216,-0.0982830851043012
9.043314917127072,-0.06196105176635402
9.07668508287293,-0.017811376472954745
9.110055248618785,0.026924515555002883
9.143425414364641,0.06295185605165912
9.176795580110499,0.08200589081575302
9.210165745856354,0.08077952831313169
9.24353591160221,0.06367200071345207
9.276906077348068,0.042423383273802816
9.310276243093924,0.03201840888094884
9.34364640883978,0.04420057015623818
9.377016574585635,0.08146764873017927
9.410386740331493,0.13459642725762397
9.443756906077349,0.18533548751288306
9.477127071823205,0.21352539520334993
9.510497237569062,0.20570496935113344
9.543867403314918,0.1613528073533789
9.577237569060774,0.09382101509528376
9.610607734806631,0.025390684554269453
9.643977900552487,-0.0214063515499387
9.677348066298343,-0.03236321557568202
9.710718232044199,-0.006440070877312976
9.744088397790057,0.04480308413250752
9.777458563535912,0.10226663741517626
9.810828729281768,0.14613575927022449
9.844198895027626,0.16155710735034112
9.877569060773482,0.14150570678597438
9.910939226519337,0.08686295779701582
9.944309392265193,0.004807554752548783
9.97767955801105,-0.09329105541553545
10.011049723756907,-0.19384587255517097
10.044419889502763,-0.28284575133834705
10.07779005524862,-0.3476578941069615
10.111160220994476,-0.3789283912066699
10.144530386740332,-0.37242003772989163
10.17790055248619,-0.3303624009120592
10.211270718232045,-0.2616983056725778
10.244640883977901,-0.1806405838945534
10.278011049723757,-0.10337388822261619
10.311381215469615,-0.043537380115663146
10.34475138121547,-0.00796337746918747
10.378121546961326,0.005521161146004502
10.411491712707184,0.006985329320346611
10.44486187845304,0.01008630496555356
10.478232044198895,0.026202727342477552
10.511602209944753,0.059543315628068735
10.544972375690609,0.10546994038572899
10.578342541436465,0.15283272025376068
10.61171270718232,0.18918750052251967
10.645082872928178,0.2063353362672563
10.678453038674034,0.20348544394929388
10.71182320441989,0.18663187622923302
10.745193370165747,0.16477061410498559
10.778563535911603,0.14521497657803314
10.811933701657459,0.13055547157068526
10.845303867403315,0.11863675947670554
10.878674033149172,0.10507504535821444
10.912044198895028,0.0864811623926297
10.945414364640884,0.062459731182490964
10.978784530386742,0.03551974247656138
11.012154696132598,0.009425570840710853
11.045524861878453,-0.012686882772469574
11.078895027624311,-0.02930154699723052
11.112265193370167,-0.040364371162721034
11.145635359116023,-0.04655488180334667
11.179005524861878,-0.04880111510166189
11.212375690607736,-0.04842246651782265
11.245745856353592,-0.04759725633709836
11.279116022099448,-0.04945064586507936
11.312486187845305,-0.05724171164892868
11.345856353591161,-0.07276528211356688
11.379226519337017,-0.09473607580772583
11.412596685082875,-0.11815431318958432
11.44596685082873,-0.13530052094839223
11.479337016574586,-0.1382439827432096
11.512707182320442,-0.12195023855978052
11.5460773480663,-0.08663267854809847
11.579447513812156,-0.038169134353704
11.612817679558011,0.013802720977741907
11.646187845303869,0.05940060896173119
11.679558011049725,0.09204958088837643
11.71292817679558,0.11036516410562762
11.746298342541436,0.11741850073659896
11.779668508287294,0.1177554043927028
11.81303867403315,0.11376567808255396
11.846408839779006,0.10346672915185709
11.879779005524863,0.08116421047498608
11.91314917127072,0.04099638930095186
11.946519337016575,-0.01826323193446327
11.979889502762433,-0.08972423192414226
12.013259668508288,-0.1584666705534585
12.046629834254144,-0.20584701909215053
12.08,-0.21653278186515304
12.113370165745858,-0.1852042347421779
12.146740331491714,-0.11974174311058605
12.18011049723757,-0.03918756195843789
12.213480662983427,0.032876954895733584
12.246850828729283,0.07683017799278177
12.280220994475139,0.08387856454531374
12.313591160220996,0.05856956431740098
12.346961325966852,0.016134659000188113
12.380331491712708,-0.024015180409653888
12.413701657458564,-0.045852646612833836
12.447071823204421,-0.042301921145863425
12.480441988950277,-0.01672062066430543
12.513812154696133,0.020029465886847713
12.54718232044199,0.05538906687916786
12.580552486187846,0.08104890933517651
12.613922651933702,0.09627785907070355
12.64729281767956,0.10709230592386992
12.680662983425416,0.1217125644618249
12.714033149171271,0.14462055083930447
12.747403314917127,0.17236427252141903
12.780773480662985,0.19354019867798528
12.81414364640884,0.1933535879137591
12.847513812154697,0.1607617588393715
12.880883977900554,0.094691937640777
12.91425414364641,0.0060669338956845405
12.947624309392266,-0.08565517884505233
12.980994475138122,-0.1599825447656445
13.01436464088398,-0.20340000586011434
13.047734806629835,-0.21403254347233192
13.081104972375691,-0.20075152406146451
13.114475138121549,-0.1773078651885565
13.147845303867404,-0.15458785991104765
13.18121546961326,-0.13501655830779477
13.214585635359118,-0.11199339511343143
13.247955801104974,-0.0746230361665184
13.28132596685083,-0.015257326599115006
13.314696132596685,0.06410135575365268
13.348066298342543,0.14994896244415035
13.381436464088399,0.22117206275103865
13.414806629834255,0.25709828282254404
13.448176795580112,0.24611982073764335
13.481546961325968,0.1909740914351802
13.514917127071824,0.10821238565617008
13.548287292817681,0.021955863590529527
13.581657458563537,-0.045403268238684596
13.615027624309393,-0.08150492157211686
13.648397790055249,-0.08773048191429819
13.681767955801106,-0.07685498819631184
13.715138121546962,-0.06599659028300177
13.748508287292818,-0.06834432016225726
13.781878453038676,-0.08754196198165304
13.815248618784532,-0.11711918979291164
13.848618784530387,-0.1447904551966254
13.881988950276245,-0.1591041008053621
13.9153591160221,-0.15496827402059374
13.948729281767957,-0.1354144223307168
13.982099447513813,-0.1090718875989638
14.01546961325967,-0.08507957403643376
14.048839779005526,-0.06838093388173666
14.082209944751382,-0.05792560907060864
14.11558011049724,-0.0485042549949452
14.148950276243095,-0.03480556666528221
14.182320441988951,-0.015054079515726279
14.215690607734807,0.008011150841946549
14.249060773480664,0.029295588163100312
14.28243093922652,0.045122068424936594
14.315801104972376,0.05610053051192576
14.349171270718234,0.06718201189344633
14.38254143646409,0.08476835679382508
14.415911602209945,0.11259301448044322
14.449281767955803,0.14887908365185346
14.482651933701659,0.18656584983836505
14.516022099447515,0.2166101719943064
14.54939226519337,0.23255465544167878
14.582762430939228,0.2337558867772775
14.616132596685084,0.22535200910928296
14.64950276243094,0.21485436835969154
14.682872928176797,0.20717436713034434
14.716243093922653,0.2008660819118509
14.749613259668509,0.18782194021283358
14.782983425414367,0.15687754857196595
14.816353591160222,0.09970891997297093
14.849723756906078,0.016133983715433887
14.883093922651934,-0.0838845338144531
14.916464088397792,-0.18270501432626723
14.949834254143648,-0.26101674900127314
14.983204419889503,-0.3048421404105307
15.016574585635361,-0.3105668023751883
15.049944751381217,-0.2859465917688919
15.083314917127073,-0.24677207649261018
15.116685082872928,-0.21061502120000214
15.150055248618786,-0.19014714737891383
15.183425414364642,-0.1885871652030309
15.216795580110498,-0.19896536614979854
15.250165745856355,-0.20743716627332967
15.283535911602211,-0.19932527335967112
15.316906077348067,-0.16547804390274762
15.350276243093925,-0.10635751501625743
15.38364640883978,-0.03216584496761705
15.417016574585636,0.041024258535712226
15.450386740331492,0.09745579707100958
15.48375690607735,0.12753459581624027
15.517127071823205,0.13091674330886124
15.550497237569061,0.11574462532168565
15.583867403314919,0.09469369365725978
15.617237569060775,0.0798081239934316
15.65060773480663,0.07838826325323237
15.683977900552488,0.09141514928430186
15.717348066298344,0.1146501306734364
15.7507182320442,0.14134158756093085
15.784088397790056,0.16496800978257392
15.817458563535913,0.180810293464133
15.85082872928177,0.18608430003908252
15.884198895027625,0.17928624807731008
15.917569060773483,0.15974642393872443
15.950939226519338,0.1279694301545617
15.984309392265194,0.08649772887008765
16.01767955801105,0.040405805494687835
16.051049723756908,-0.0033989638006993407
16.084419889502765,-0.038144704699364054
16.11779005524862,-0.05959365388989991
16.151160220994477,-0.06758968548416691
16.18453038674033,-0.06583097719331706
16.21790055248619,-0.05990695745294933
16.251270718232046,-0.05462733236534701
16.2846408839779,-0.05208361155974147
16.318011049723758,-0.05145688841386203
16.351381215469615,-0.05055344121071338
16.38475138121547,-0.04801556094631188
16.418121546961327,-0.044743771955671474
16.451491712707185,-0.04354734431210702
16.48486187845304,-0.047148249499690494
16.518232044198896,-0.0557451500646657
16.551602209944754,-0.0657408577046944
16.584972375690608,-0.07068095727513231
16.618342541436466,-0.06422712465055042
16.651712707182323,-0.043773801249848816
16.685082872928177,-0.012801740074861049
16.718453038674035,0.019437625330646534
16.751823204419892,0.04103470550566491
16.785193370165747,0.04206449611237405
16.818563535911604,0.01870578774549371
16.851933701657458,-0.024997651298749115
16.885303867403316,-0.07846603913015018
16.918674033149173,-0.1283152840789438
16.952044198895027,-0.1627780167126553
16.985414364640885,-0.17495787538572788
17.018784530386743,-0.16381605768703014
17.052154696132597,-0.13297951621572865
17.085524861878454,-0.08841936587532954
17.118895027624312,-0.03630070613713079
