Frequency (Hz),Amplitude
0.0,6.4854441383107275
0.019823788546255508,6.483551807395337
0.039647577092511016,6.477878871526709
0.059471365638766524,6.468437508198485
0.07929515418502203,6.4552480361480145
0.09911894273127755,6.4383389498864805
0.11894273127753305,6.417746968352637
0.13876651982378857,6.393517097993198
0.15859030837004406,6.365702710644333
0.17841409691629956,6.334365636650112
0.1982378854625551,6.299576273697287
0.2180616740088106,6.261413711870387
0.2378854625550661,6.219965875425879
0.25770925110132165,6.175329681745999
0.27753303964757714,6.127611217847758
0.29735682819383263,6.076925934682183
0.31718061674008813,6.02339885924548
0.3370044052863437,5.967164824222992
0.3568281938325991,5.908368714474365
0.37665198237885467,5.847165729121896
0.3964757709251102,5.783721657292503
0.41629955947136565,5.718213164655123
0.4361233480176212,5.650828086749907
0.4559471365638767,5.581765723683437
0.4757709251101322,5.511237129020778
0.49559471365638774,5.439465383594584
0.5154185022026433,5.366685842434837
0.5352422907488987,5.293146340065577
0.5550660792951543,5.219107336000334
0.5748898678414097,5.144841978406658
0.5947136563876653,5.070636059648851
0.6145374449339208,4.996787832864763
0.6343612334801763,4.92360765406665
0.6541850220264318,4.851417409759177
0.6740088105726874,4.780549686137342
0.6938325991189428,4.711346633099876
0.7136563876651982,4.644158475269054
0.7334801762114539,4.579341623757211
0.7533039647577093,4.517256347469896
0.7731277533039648,4.45826397220879
0.7929515418502204,4.402723590551811
0.8127753303964759,4.350988285987211
0.8325991189427313,4.303400901122396
0.8524229074889869,4.260289411335248
0.8722466960352424,4.221962000444224
0.8920704845814978,4.188701971310595
0.9118942731277534,4.160762658272504
0.931718061674009,4.138362535794288
0.9515418502202644,4.121680734365049
0.9713656387665199,4.110853176679097
0.9911894273127755,4.1059695319403975
1.0110132158590308,4.107071153185323
1.0308370044052866,4.114150113618276
1.0506607929515421,4.127149397266887
1.0704845814977975,4.145964232801683
1.090308370044053,4.170444494082486
1.1101321585903086,4.2003980336484865
1.1299559471365639,4.235594771441072
1.1497797356828194,4.275771333944723
1.1696035242290752,4.320636029642488
1.1894273127753305,4.36987395391914
1.209251101321586,4.423152037258875
1.2290748898678416,4.48012388070221
1.248898678414097,4.540434257710844
1.2687224669603525,4.603723197870239
1.288546255506608,4.669629602058413
1.3083700440528636,4.7377943686272905
1.3281938325991192,4.807863034557082
1.3480176211453747,4.87948795407155
1.36784140969163,4.952330050086562
1.3876651982378856,5.026060181764015
1.4074889867841411,5.100360175225392
1.4273127753303965,5.174923565071944
1.4471365638766522,5.2494560926424505
1.4669603524229078,5.323676003683558
1.4867841409691631,5.397314183943986
1.5066079295154187,5.47011416661934
1.5264317180616742,5.541832040927397
1.5462555066079295,5.612236286627387
1.5660792951541853,5.681107555165399
1.5859030837004409,5.748238414416638
1.6057268722466962,5.81343307073709
1.6255506607929517,5.876507079232344
1.6453744493392073,5.9372870507760585
1.6651982378854626,5.995610362329191
1.6850220264317182,6.051324875480716
1.7048458149779737,6.104288666805941
1.7246696035242293,6.154369772577677
1.7444933920704848,6.201445949526003
1.7643171806167404,6.245404452690274
1.7841409691629957,6.286141830907785
1.8039647577092512,6.32356374011085
1.8237885462555068,6.357584774334333
1.8436123348017623,6.3881283141482825
1.863436123348018,6.415126392109363
1.8832599118942732,6.438519574756446
1.9030837004405288,6.458256860648853
1.9229074889867843,6.474295593951511
1.9427312775330399,6.486601393101767
1.9625550660792954,6.495148094142828
1.982378854625551,6.499917708373084
2.002202643171806,6.500900394035846
2.0220264317180616,6.498094441856228
2.041850220264317,6.491506274319598
2.061674008810573,6.481150458675449
2.0814977973568287,6.467049733740543
2.1013215859030843,6.449235050663432
2.1211453744493394,6.427745627896161
2.140969162995595,6.402629020696237
2.1607929515418505,6.373941205549418
2.180616740088106,6.341746679957675
2.2004405286343616,6.306118578073334
2.220264317180617,6.267138802672851
2.2400881057268722,6.224898173946478
2.2599118942731278,6.179496595524081
2.2797356828193833,6.131043238052194
2.299559471365639,6.079656740470054
2.319383259911895,6.025465428888333
2.3392070484581504,5.968607552633131
2.3590308370044055,5.90923153655906
2.378854625550661,5.84749624813156
2.3986784140969166,5.783571276999071
2.418502202643172,5.717637223787394
2.4383259911894277,5.649885993610374
2.4581497797356833,5.58052108826195
2.4779735682819384,5.50975788919164
2.497797356828194,5.437823921123197
2.5176211453744495,5.3649590835199525
2.537444933920705,5.291415833999595
2.5572687224669606,5.217459304251152
2.577092511013216,5.143367325028726
2.5969162995594717,5.069430332458113
2.6167400881057272,4.995951123325534
2.6365638766519828,4.9232444224335365
2.6563876651982383,4.851636220827499
2.676211453744494,4.7814628401579276
2.6960352422907494,4.7130696762294075
2.715859030837005,4.646809574616199
2.73568281938326,4.583040793936278
2.7555066079295156,4.522124518876951
2.775330396475771,4.4644218962421
2.7951541850220267,4.4102905838692905
2.8149779735682823,4.36008082462967
2.834801762114538,4.3141310857074275
2.854625550660793,4.2727633360271335
2.874449339207049,4.236278070197578
2.8942731277533045,4.204949222833602
2.91409691629956,4.1790191489093695
2.9339207048458156,4.158693869681184
2.953744493392071,4.144138795532301
2.9735682819383262,4.135475133436614
2.993392070484582,4.132777165721172
3.0132158590308373,4.136070548639426
3.033039647577093,4.14533172653469
3.0528634361233484,4.160488494853565
3.072687224669604,4.181421679292465
3.092511013215859,4.207967835815731
3.1123348017621146,4.23992282350268
3.1321585903083706,4.277046063944287
3.151982378854626,4.319065279806229
3.1718061674008817,4.365681501423792
3.1916299559471373,4.416574142006193
3.2114537444933924,4.471405965813927
3.231277533039648,4.5298278053742225
3.2511013215859035,4.591482919216283
3.270925110132159,4.65601091704876
3.2907488986784146,4.723051211933287
3.31057268722467,4.79224598696946
3.3303964757709252,4.863242686365623
3.350220264317181,4.93569605735633
3.3700440528634363,5.009269780622219
3.389867841409692,5.083637733395102
3.4096916299559474,5.15848493217209
3.4295154185022034,5.2335082018221835
3.4493392070484585,5.308416615684756
3.469162995594714,5.382931747749318
3.4889867841409696,5.4567877737490615
3.508810572687225,5.529731453439268
3.5286343612334807,5.601522021782548
3.5484581497797363,5.671931012440243
3.5682819383259914,5.740742033003188
3.588105726872247,5.8077505078543
3.6079295154185025,5.872763401462578
3.627753303964758,5.935598932256156
3.6475770925110136,5.996086284984665
3.667400881057269,6.054065327619317
3.6872246696035247,6.109386337312322
3.7070484581497802,6.161909738699583
3.726872246696036,6.21150585684204
3.7466960352422913,6.258054686321314
3.7665198237885464,6.301445677401513
3.7863436123348024,6.341577539708382
3.8061674008810575,6.378358063536211
3.8259911894273135,6.411703958646557
3.8458149779735686,6.441540710255215
3.8656387665198246,6.4678024517973975
3.8854625550660797,6.490431854003717
3.905286343612335,6.509380029801423
3.925110132158591,6.524606454566658
3.9449339207048464,6.536078901288673
3.964757709251102,6.543773390259941
3.9845814977973575,6.547674152971664
4.004405286343612,6.547773609970481
4.024229074889869,6.544072362514162
4.044052863436123,6.536579197950331
4.06387665198238,6.525311108830381
4.083700440528634,6.510293325858049
4.103524229074891,6.491559364856573
4.123348017621146,6.469151088017783
4.143171806167401,6.443118779768057
4.162995594713657,6.413521237645947
4.182819383259912,6.380425878631142
4.2026431718061685,6.343908861389613
4.222466960352423,6.304055224898362
4.242290748898679,6.260959043878273
4.262114537444934,6.214723601386599
4.28193832599119,6.165461578788753
4.301762114537445,6.113295263130674
4.321585903083701,6.058356771649768
4.3414096916299565,6.0007882927758995
4.361233480176212,5.940742342459531
4.381057268722468,5.878382033995715
4.400881057268723,5.813881358657654
4.420704845814979,5.747425473376776
4.440528634361234,5.679210990369295
4.46035242290749,5.609446261968618
4.4801762114537445,5.538351651938648
4.500000000000001,5.466159782173342
4.5198237885462555,5.393115740901308
4.539647577092512,5.319477235292197
4.559471365638767,5.245514667707425
4.579295154185023,5.171511110793181
4.599118942731278,5.097762152266609
4.618942731277533,5.024575575756763
4.63876651982379,4.952270839677382
4.658590308370044,4.881178312184533
4.678414096916301,4.811638217291355
4.6982378854625555,4.743999245792399
4.718061674008811,4.678616785535992
4.737885462555067,4.615850729621052
4.757709251101322,4.556062829163351
4.777533039647578,4.499613570186684
4.797356828193833,4.446858572539704
4.817180616740089,4.398144532707707
4.837004405286344,4.353804761554972
4.856828193832599,4.314154401173804
4.876651982378855,4.279485439977963
4.896475770925111,4.2500616788954195
4.9162995594713665,4.2261138301923475
4.936123348017622,4.20783494998385
4.955947136563877,4.195376412019911
4.975770925110133,4.188844621032638
4.995594713656388,4.188298637618834
5.015418502202644,4.193748844288997
5.035242290748899,4.205156727186836
5.055066079295155,4.2224357852666605
5.07488986784141,4.24545351480344
5.094713656387666,4.274034358590028
5.114537444933921,4.3079634617674865
5.134361233480177,4.346991043935429
5.154185022026432,4.390837181791632
5.174008810572688,4.439196797606514
5.193832599118943,4.49174466403082
5.213656387665199,4.548140261504124
5.2334801762114544,4.608032356793379
5.25330396475771,4.671063205989685
5.2731277533039655,4.736872319276273
5.292951541850221,4.805099755470569
5.312775330396477,4.875388940195295
5.332599118942731,4.947389021857456
5.352422907488988,5.0207567944012785
5.372246696035242,5.095158225520407
5.392070484581499,5.170269634413137
5.4118942731277535,5.245778565108045
5.43171806167401,5.321384400736795
5.451541850220265,5.396798761671252
5.47136563876652,5.471745726832532
5.491189427312777,5.54596191325097
5.511013215859031,5.619196444504934
5.530837004405288,5.691210834276982
5.550660792951542,5.7617788071255545
5.570484581497798,5.830686074791299
5.5903083700440535,5.897730082996537
5.610132158590309,5.962719740768904
5.6299559471365646,6.025475141815337
5.64977973568282,6.085827285363306
5.669603524229076,6.14361780213233
5.689427312775331,6.198698689663193
5.709251101321586,6.250932060068501
5.729074889867842,6.300189902340535
5.748898678414098,6.34635386062085
5.768722466960353,6.3893150292699845
5.788546255506609,6.428973765145961
5.808370044052864,6.465239517180821
5.82819383259912,6.498030673117275
5.848017621145375,6.527274423111487
5.867841409691631,6.552906639811609
5.887665198237886,6.574871774471223
5.907488986784142,6.593122768642407
5.927312775330397,6.607620981008036
5.9471365638766525,6.618336128949089
5.966960352422908,6.625246244495819
5.986784140969164,6.628337644377462
6.00660792951542,6.627604913958918
6.026431718061675,6.6230509049338
6.04625550660793,6.614686746726217
6.066079295154186,6.602531871638117
6.085903083700441,6.586614053862144
6.105726872246697,6.566969462559108
6.125550660792952,6.543642729271692
6.145374449339208,6.516687030009647
6.1651982378854635,6.48616418239164
6.185022026431718,6.4521447582622855
6.204845814977975,6.414708212212685
6.224669603524229,6.373943026414084
6.244493392070486,6.3299468721176835
6.264317180616741,6.282826788070391
6.284140969162996,6.232699375933436
6.303964757709252,6.1796910125545
6.323788546255507,6.123938078616191
6.3436123348017635,6.0655872027444735
6.363436123348018,6.004795519584638
6.3832599118942746,5.941730939612254
6.403083700440529,5.876572427509692
6.422907488986785,5.809510284770048
6.44273127753304,5.740746430750442
6.462555066079296,5.670494674646043
6.482378854625551,5.59898096875585
6.502202643171807,5.526443630925605
6.5220264317180625,5.453133521158578
6.541850220264318,5.379314154072514
6.561674008810574,5.305261725171698
6.581497797356829,5.2312650248549994
6.601321585903085,5.157625209810888
6.62114537444934,5.084655397145016
6.640969162995596,5.012680042529504
6.6607929515418505,4.942034060244292
6.680616740088107,4.873061640718326
6.700440528634362,4.806114720712453
6.720264317180618,4.741551063371331
6.740088105726873,4.679731910832596
6.759911894273129,4.621019181737614
6.779735682819384,4.565772200539655
6.799559471365639,4.5143439653766695
6.819383259911895,4.4670769864316595
6.83920704845815,4.424298756455125
6.859030837004407,4.386316947973228
6.8788546255506615,4.353414465268099
6.898678414096917,4.325844510294515
6.918502202643173,4.303825846527098
6.938325991189428,4.287538459438256
6.958149779735684,4.277119813513712
6.977973568281939,4.272661891208796
6.997797356828195,4.274209168585369
7.01762114537445,4.281757637199853
7.037444933920705,4.295254925869499
7.0572687224669615,4.314601514602964
7.077092511013216,4.339652972462351
7.096916299559473,4.370223097518335
7.116740088105728,4.4060877953671325
7.136563876651983,4.446989506110638
7.156387665198239,4.492641979338128
7.176211453744494,4.542735201535894
7.19603524229075,4.596940297917153
7.215859030837005,4.654914257344307
7.235682819383261,4.716304360925331
7.255506607929516,4.780752228365243
7.275330396475772,4.847897428253282
7.295154185022027,4.9173806270208615
7.314977973568283,4.988846275044552
7.334801762114538,5.061944846791672
7.354625550660794,5.136334665113048
7.374449339207049,5.211683348289151
7.394273127753305,5.287668922967109
7.4140969162995605,5.363980647514772
7.433920704845816,5.440319589368981
7.453744493392072,5.516398997389526
7.473568281938327,5.5919445066571125
7.493392070484583,5.666694209050645
7.513215859030838,5.740398618667994
7.533039647577093,5.812820556967739
7.552863436123348,5.883734978576945
7.572687224669605,5.952928755129155
7.59251101321586,6.020200431315976
7.612334801762115,6.085359964568024
7.6321585903083715,6.14822845741319
7.651982378854627,6.208637889564512
7.671806167400882,6.266430855132566
7.691629955947137,6.321460308996636
7.711453744493394,6.373589325267623
7.731277533039649,6.422690869894873
7.751101321585904,6.468647588775312
7.7709251101321595,6.511351612185182
7.790748898678416,6.550704375945428
7.81057268722467,6.586616459428509
7.830396475770926,6.619007440296561
7.850220264317182,6.647805765713351
7.870044052863436,6.672948639679619
7.889867841409693,6.694381926093467
7.909691629955948,6.712060067124308
7.929515418502204,6.725946016502825
7.9493392070484585,6.736011187364373
7.969162995594715,6.742235414334509
7.9889867841409705,6.744606929607881
8.008810572687224,6.743122352842764
8.02863436123348,6.737786694769758
8.048458149779737,6.728613374492127
8.068281938325994,6.715624250534105
8.088105726872246,6.6988496657700525
8.107929515418503,6.678328506439505
8.12775330396476,6.654108275516382
8.147577092511014,6.626245180753985
8.167400881057269,6.594804237764926
8.187224669603525,6.55985938851294
8.207048458149782,6.521493635585702
8.226872246696036,6.47979919257748
8.246696035242293,6.434877650827788
8.266519823788547,6.386840162628651
8.286343612334802,6.335807640813622
8.306167400881058,6.281910974362545
8.325991189427315,6.225291259278568
8.345814977973568,6.166100043495943
8.365638766519824,6.104499583934706
8.38546255506608,6.040663113002295
8.405286343612337,5.974775110820714
8.42511013215859,5.907031578195686
8.444933920704846,5.837640303805289
8.464757709251103,5.766821117231592
8.484581497797357,5.694806117256155
8.504405286343614,5.621839862261291
8.524229074889869,5.548179506607709
8.544052863436125,5.4740948635036295
8.56387665198238,5.399868371174896
8.583700440528636,5.3257949351748275
8.60352422907489,5.252181615574822
8.623348017621145,5.17934712377235
8.643171806167402,5.107621090054104
8.662995594713658,5.037343060279112
8.682819383259913,4.968861178638896
8.702643171806168,4.902530514059328
8.722466960352424,4.83871099116978
8.74229074889868,4.777764893657031
8.762114537444935,4.720053918969831
8.78193832599119,4.665935779306387
8.801762114537446,4.615760364831029
8.821585903083701,4.569865510863949
8.841409691629957,4.528572440431206
8.861233480176212,4.492180985332145
8.881057268722468,4.460964720246239
8.900881057268723,4.435166172149175
8.92070484581498,4.414992287840037
8.940528634361234,4.4006103521885835
8.960352422907489,4.392144545961477
8.980176211453745,4.389673313225391
9.000000000000002,4.39322767456007
9.019823788546258,4.402790575819903
9.039647577092511,4.4182973069687685
9.059471365638768,4.439636966899017
9.079295154185024,4.466654893983819
9.099118942731279,4.499155933862702
9.118942731277533,4.53690837987972
9.13876651982379,4.579648400166522
9.158590308370046,4.627084759102531
9.1784140969163,4.678903648498161
9.198237885462555,4.734773462677316
9.218061674008812,4.794349378254344
9.237885462555067,4.857277630204709
9.257709251101323,4.923199407532384
9.27753303964758,4.991754321801451
9.297356828193834,5.062583428177494
9.317180616740089,5.135331800364901
9.337004405286345,5.209650677562957
9.356828193832602,5.285199213456133
9.376651982378855,5.36164586481316
9.396475770925111,5.438669461197141
9.416299559471367,5.51595999835218
9.436123348017622,5.593219196774086
9.455947136563877,5.6701608644536785
9.475770925110133,5.746511099355113
9.49559471365639,5.822008363294349
9.515418502202644,5.896403454843035
9.5352422907489,5.9694594049309995
9.555066079295155,6.040951315109375
9.57488986784141,6.110666155056273
9.594713656387666,6.17840253290178
9.614537444933923,6.243970449329842
9.634361233480178,6.307191044170329
9.654185022026432,6.367896342299244
9.674008810572689,6.425929004087
9.693832599118945,6.481142084336288
9.713656387665198,6.5333988025971745
9.733480176211454,6.582572326901768
9.75330396475771,6.6285455722927455
9.773127753303967,6.671211015000007
9.792951541850222,6.710470522722965
9.812775330396477,6.746235201179633
9.832599118942733,6.778425256870982
9.852422907488988,6.806969875861905
9.872246696035244,6.831807118287805
9.892070484581499,6.852883828245759
9.911894273127754,6.870155558713239
9.93171806167401,6.883586511147828
9.951541850220266,6.89314948945252
9.971365638766521,6.898825868037549
9.991189427312776,6.900605573767312
10.011013215859032,6.898487081646861
10.030837004405289,6.892477424172424
10.050660792951543,6.882592214342849
10.070484581497798,6.868855682400422
10.090308370044054,6.85130072643761
10.11013215859031,6.829968977068673
10.129955947136565,6.804910876417296
10.14977973568282,6.776185771711712
10.169603524229077,6.743862023800408
10.189427312775331,6.708017130901783
10.209251101321588,6.668737867871453
10.229074889867842,6.62612044120538
10.248898678414099,6.580270659884651
10.268722466960353,6.531304121999142
10.28854625550661,6.479346416847317
10.308370044052865,6.424533341883046
10.32819383259912,6.367011133448428
10.348017621145376,6.306936709672467
10.367841409691632,6.24447792320322
10.387665198237887,6.179813820548707
10.407488986784141,6.113134903696618
10.427312775330398,6.044643388333522
10.447136563876654,5.974553451353974
10.466960352422909,5.9030914584091825
10.486784140969164,5.8304961599630465
10.50660792951542,5.757018841683436
10.526431718061675,5.682923411994099
10.546255506607931,5.608486406270941
10.566079295154186,5.533996883539143
10.585903083700442,5.459756187720822
10.605726872246697,5.386077541662548
10.625550660792953,5.313285438582376
10.645374449339208,5.2417147925555305
10.665198237885463,5.171709807646275
10.685022026431719,5.103622524836638
10.704845814977975,5.037811007639158
10.724669603524232,4.974637131909892
10.744493392070485,4.914463953599134
10.764317180616741,4.8576526406018266
10.784140969162998,4.804558971892004
10.803964757709252,4.755529428782648
10.823788546255507,4.710896928957855
10.843612334801763,4.670976282740188
10.86343612334802,4.636059481012585
10.883259911894275,4.606410952738262
