Time (s),Filtered Signal
0.0,-0.02059925946359839
0.033370165745856356,-0.1531653766164406
0.06674033149171271,-0.235308353298034
0.10011049723756907,-0.23079838804863617
0.13348066298342542,-0.12780770716272952
0.16685082872928178,0.05762676964374609
0.20022099447513814,0.2860465828226817
0.2335911602209945,0.5056840383598253
0.26696132596685085,0.6668610726266962
0.30033149171270723,0.7352282325726835
0.33370165745856356,0.6999062920258787
0.3670718232044199,0.57445277338648
0.4004419889502763,0.39099534354393073
0.43381215469613266,0.18994372798524475
0.467182320441989,0.008773974850596701
0.5005524861878453,-0.12674560813379013
0.5339226519337017,-0.20668407655386184
0.5672928176795581,-0.23597943066155452
0.6006629834254145,-0.2296163615456019
0.6340331491712707,-0.2062308325572903
0.6674033149171271,-0.1824653446740632
0.7007734806629835,-0.1695597462939795
0.7341436464088398,-0.17243384627359387
0.7675138121546962,-0.19050979733471018
0.8008839779005525,-0.21915785902769735
0.8342541436464089,-0.25097682379224273
0.8676243093922653,-0.276810735842436
0.9009944751381216,-0.28694243437327444
0.934364640883978,-0.2729058616544447
0.9677348066298344,-0.2298205364958755
1.0011049723756906,-0.1584669180447951
1.0344751381215471,-0.06601947618239236
1.0678453038674034,0.035264323875793264
1.1012154696132597,0.13118205163524685
1.1345856353591162,0.20939711251246276
1.1679558011049724,0.2623866651939047
1.201325966850829,0.2884279122034422
1.2346961325966852,0.29054527763236987
1.2680662983425415,0.27434151521520267
1.301436464088398,0.24601632838704207
1.3348066298342542,0.21143660370976258
1.3681767955801105,0.17620118288442618
1.401546961325967,0.14589036101715966
1.4349171270718233,0.12562133365799327
1.4682872928176796,0.11866916238965494
1.501657458563536,0.12477745429986267
1.5350276243093923,0.13923463622270918
1.5683977900552488,0.15349492099138498
1.601767955801105,0.1572869157687352
1.6351381215469614,0.14136804757478677
1.6685082872928179,0.09987346310166133
1.7018784530386741,0.03163892388170173
1.7352486187845306,-0.05947401764961885
1.768618784530387,-0.1649031690340147
1.8019889502762432,-0.27222879917874176
1.8353591160220997,-0.3668279183949356
1.868729281767956,-0.4346930337784894
1.9020994475138122,-0.4661636254961845
1.9354696132596687,-0.4593611492545489
1.968839779005525,-0.421562767170156
2.0022099447513813,-0.3672207216620044
2.0355801104972375,-0.3128087825737514
2.0689502762430942,-0.27041419592721444
2.1023204419889505,-0.24296871393300185
2.135690607734807,-0.2235411811917257
2.169060773480663,-0.19928248371214854
2.2024309392265193,-0.1582849976723986
2.235801104972376,-0.09601822278071911
2.2691712707182323,-0.01806763989719384
2.3025414364640886,0.06227694064970657
2.335911602209945,0.13036487182070633
2.369281767955801,0.17716563846276387
2.402651933701658,0.2032866567897917
2.436022099447514,0.21806770526560804
2.4693922651933704,0.2344341184693956
2.5027624309392267,0.2623391012096029
2.536132596685083,0.3041325396712454
2.5695027624309392,0.35391075565554686
2.602872928176796,0.40069002797482406
2.636243093922652,0.4333935652004569
2.6696132596685085,0.44508504027338636
2.7029834254143648,0.4347239423109649
2.736353591160221,0.4062781782816503
2.7697237569060777,0.3663388637224941
2.803093922651934,0.321776898171947
2.8364640883977903,0.27843276953890483
2.8698342541436466,0.24085877419697405
2.903204419889503,0.21240633576334883
2.936574585635359,0.19487661946455676
2.969944751381216,0.18748642064420662
3.003314917127072,0.18564961091813267
3.0366850828729284,0.18055983794004543
3.0700552486187846,0.1604761164276592
3.103425414364641,0.1139449490860287
3.1367955801104976,0.03419127701764561
3.170165745856354,-0.07701436333979562
3.20353591160221,-0.2080964018334612
3.2369060773480665,-0.34057946186337706
3.2702762430939227,-0.4561441076895362
3.3036464088397794,-0.5455742676703614
3.3370165745856357,-0.6153941174972446
3.370386740331492,-0.687658205435449
3.4037569060773483,-0.7905598732413276
3.4371270718232045,-0.9419613927429659
3.4704972375690613,-1.132746054732708
3.5038674033149175,-1.319223621856008
3.537237569060774,-1.4314706988239947
3.57060773480663,-1.3975166057400688
3.6039779005524863,-1.174652383593158
3.6373480662983426,-0.7735482743761461
3.6707182320441993,-0.2621601448426462
3.7040883977900556,0.25502345681897187
3.737458563535912,0.6748860726120701
3.770828729281768,0.9342092376594877
3.8041988950276244,1.031290892899796
3.837569060773481,1.0209036791698403
3.8709392265193374,0.9853460942390864
3.9043093922651937,0.9952055571716257
3.93767955801105,1.0775694318410352
3.9710497237569062,1.2053468679300279
4.0044198895027625,1.311492875958763
4.037790055248619,1.3209122839866425
4.071160220994475,1.1854389630455908
4.104530386740332,0.9065543369878383
4.1379005524861885,0.5365281768590544
4.171270718232044,0.1585262847495212
4.204640883977901,-0.14471873135836666
4.238011049723757,-0.31996549706550165
4.271381215469614,-0.3588667390347211
4.30475138121547,-0.29531750656290223
4.338121546961326,-0.18819242729322355
4.371491712707183,-0.09803317599754809
4.404861878453039,-0.06702503016997467
4.438232044198895,-0.10870496166485041
4.471602209944752,-0.20925545759062483
4.504972375690608,-0.3379628984671386
4.538342541436465,-0.4617169761076916
4.5717127071823205,-0.5577527301696033
4.605082872928177,-0.6200912067744563
4.638453038674034,-0.6578295463038297
4.67182320441989,-0.6867095808920588
4.7051933701657465,-0.7181236477567049
4.738563535911602,-0.750802216216846
4.771933701657459,-0.769275045685159
4.805303867403316,-0.7501015086288125
4.8386740331491715,-0.6730828236186605
4.872044198895028,-0.5320033417218011
4.905414364640884,-0.3394039960143638
4.938784530386741,-0.12275703840992566
4.972154696132597,0.08613979409564822
5.005524861878453,0.2630988886527572
5.03889502762431,0.39867354879763955
5.072265193370166,0.4971220422646274
5.105635359116023,0.5685170455415024
5.1390055248618784,0.6191487312660556
5.172375690607735,0.6461209410696818
5.205745856353592,0.6393243341780609
5.239116022099448,0.5894540928689856
5.272486187845304,0.49707639889474065
5.30585635359116,0.37701321552791134
5.339226519337017,0.25488219431197523
5.372596685082874,0.15704481986856988
5.4059668508287295,0.09903815999954
5.439337016574586,0.07867044763625514
5.472707182320442,0.0776749634245529
5.506077348066299,0.07130800055596091
5.5394475138121555,0.04097368116001454
5.572817679558011,-0.016746617967684323
5.606187845303868,-0.0893741866040772
5.639558011049724,-0.15629894241644698
5.672928176795581,-0.20053001456240144
5.706298342541437,-0.21773166270618743
5.739668508287293,-0.2174065870718482
5.77303867403315,-0.21559968212057962
5.806408839779006,-0.2234554082085905
5.839779005524862,-0.23852743273153265
5.873149171270718,-0.24433282187717956
5.906519337016575,-0.2189443590990044
5.939889502762432,-0.148086210408643
5.9732596685082875,-0.03538108235209038
6.006629834254144,0.09619321568998154
6.04,0.2127532218566721
6.073370165745857,0.2835937767918557
6.1067403314917135,0.29379390942003786
6.140110497237569,0.24937485710865162
6.173480662983426,0.1731889214268616
6.206850828729282,0.09431384846067042
6.240220994475139,0.03633322485621824
6.273591160220995,0.009538676922291222
6.306961325966851,0.009543556335520209
6.340331491712708,0.02170985521489334
6.373701657458564,0.028630613817111013
6.40707182320442,0.017303250178715066
6.440441988950277,-0.016617376231788893
6.473812154696133,-0.0685755689675114
6.50718232044199,-0.12831319917623057
6.5405524861878455,-0.18469661945678179
6.573922651933702,-0.22993892492870313
6.607292817679559,-0.26153174146895203
6.640662983425415,-0.28143684936753277
6.674033149171271,-0.29338406097392533
6.707403314917127,-0.299840831344006
6.740773480662984,-0.3000943185173738
6.774143646408841,-0.29013581257098425
6.8075138121546965,-0.2641464453639812
6.840883977900553,-0.2167714048426524
6.874254143646409,-0.14520360190196552
6.907624309392266,-0.05032589124994003
6.9409944751381225,0.06335552608600141
6.974364640883978,0.18867990509278612
7.007734806629835,0.31694968454241684
7.041104972375691,0.43839482310956257
7.074475138121548,0.5417104900452305
7.107845303867403,0.6133526076155661
7.14121546961326,0.6380763686683848
7.174585635359117,0.602087434768098
7.207955801104973,0.49879861611356585
7.241325966850829,0.3350971477555263
7.274696132596685,0.13455113590854664
7.308066298342542,-0.06560072046827162
7.341436464088399,-0.22425724881135087
7.3748066298342545,-0.3100430659303575
7.408176795580111,-0.3130305910029676
7.441546961325967,-0.24898324543652334
7.474917127071824,-0.15353227343313883
7.5082872928176805,-0.06835877519404814
7.541657458563536,-0.025350121662015612
7.575027624309393,-0.035713337891457475
7.608397790055249,-0.08855112972753776
7.641767955801106,-0.15874597619088182
7.675138121546962,-0.21963483455050004
7.708508287292818,-0.25412181035002873
7.741878453038675,-0.2593297010376376
7.775248618784531,-0.2436194755609434
7.808618784530387,-0.21871563877280356
7.841988950276244,-0.19178627328873424
7.8753591160221,-0.16176411326993678
7.908729281767957,-0.12149584663140457
7.9420994475138125,-0.06401093888427115
7.975469613259669,0.010970587466049139
8.008839779005525,0.09415398739802446
8.042209944751383,0.16916081307799824
8.075580110497238,0.21914832306193976
8.108950276243094,0.23409006534107862
8.14232044198895,0.21499205532548712
8.175690607734808,0.17305743546591004
8.209060773480664,0.12447374602267837
8.24243093922652,0.08359423789237704
8.275801104972377,0.05778306248646154
8.309171270718233,0.046015534168375304
8.342541436464089,0.041267623627459345
8.375911602209946,0.034940376739480854
8.409281767955802,0.020906443857269204
8.442651933701658,-0.002588609616115946
8.476022099447514,-0.03350109466516008
8.509392265193371,-0.06799824752204475
8.542762430939227,-0.10227621428878673
8.576132596685083,-0.13300963348660289
8.60950276243094,-0.15640270046656227
8.642872928176796,-0.16694244293068108
8.676243093922652,-0.15735596104167554
8.709613259668508,-0.12063930356075943
8.742983425414366,-0.05366817679728044
8.776353591160222,0.03938877977596457
8.809723756906077,0.1460228247617061
8.843093922651935,0.24798646660446122
8.87646408839779,0.32700583300805336
8.909834254143647,0.3712399179128107
8.943204419889504,0.3793353972046098
8.97657458563536,0.35977407647787535
9.009944751381216,0.325450393768295
9.043314917127072,0.2859826968620376
9.07668508287293,0.24175305631493416
9.110055248618785,0.1831173135856291
9.143425414364641,0.09572311972128324
9.176795580110499,-0.030357975554206114
9.210165745856354,-0.19220218212367385
9.24353591160221,-0.3707756838010817
9.276906077348068,-0.5349396687748827
9.310276243093924,-0.651325941541448
9.34364640883978,-0.6958855949674185
9.377016574585635,-0.6621673263180989
9.410386740331493,-0.5629665511592604
9.443756906077349,-0.42500616665906216
9.477127071823205,-0.27924953248030326
9.510497237569062,-0.15097131155223814
9.543867403314918,-0.053292303641916845
9.577237569060774,0.014039756481768272
9.610607734806631,0.06118235353002076
9.643977900552487,0.10223387181043679
9.677348066298343,0.14930005357085688
9.710718232044199,0.20835465353503296
9.744088397790057,0.27753181153723105
9.777458563535912,0.347719846025289
9.810828729281768,0.40512020568450424
9.844198895027626,0.43541743824415335
9.877569060773482,0.42885634854602017
9.910939226519337,0.3847554844191449
9.944309392265193,0.3133759490490061
9.97767955801105,0.23345479392000965
10.011049723756907,0.1654498923105216
10.044419889502763,0.12295273304111076
10.07779005524862,0.10634175474721484
10.111160220994476,0.10226754186973783
10.144530386740332,0.08985885666957552
10.17790055248619,0.050965123990614314
10.211270718232045,-0.02061167123569605
10.244640883977901,-0.11560297653919065
10.278011049723757,-0.21323793182444853
10.311381215469615,-0.29055036248078103
10.34475138121547,-0.33223815584905764
10.378121546961326,-0.3362611094899009
10.411491712707184,-0.3128081868253995
10.44486187845304,-0.27770716525467776
10.478232044198895,-0.24396450536930653
10.511602209944753,-0.21571828090969625
10.544972375690609,-0.1873800381577294
10.578342541436465,-0.14802909174517706
10.61171270718232,-0.08856058611791884
10.645082872928178,-0.007870350097961953
10.678453038674034,0.08499257860143565
10.71182320441989,0.17364524429691702
10.745193370165747,0.2406104726893867
10.778563535911603,0.2738626589955129
10.811933701657459,0.27068622474369136
10.845303867403315,0.23746437307612914
10.878674033149172,0.18612380606097265
10.912044198895028,0.1293950614919212
10.945414364640884,0.07714426622995477
10.978784530386742,0.03495783051325578
11.012154696132598,0.00471772853567806
11.045524861878453,-0.014021940224446852
11.078895027624311,-0.02301964122824032
11.112265193370167,-0.025092178958595984
11.145635359116023,-0.024176938595958004
11.179005524861878,-0.024959822373514663
11.212375690607736,-0.03172627963034462
11.245745856353592,-0.04685536898353005
11.279116022099448,-0.06987233403714459
11.312486187845305,-0.09777506500471347
11.345856353591161,-0.1265406226907458
11.379226519337017,-0.152860556935727
11.412596685082875,-0.17489741405234274
11.44596685082873,-0.191471643369753
11.479337016574586,-0.2002468945347883
11.512707182320442,-0.19641988381925363
11.5460773480663,-0.17342237161027432
11.579447513812156,-0.1260359611726919
11.612817679558011,-0.05466963386728127
11.646187845303869,0.031631183015725865
11.679558011049725,0.11574276678403723
11.71292817679558,0.17732203560737955
11.746298342541436,0.20043185677088984
11.779668508287294,0.18062891486583302
11.81303867403315,0.12796901411944006
11.846408839779006,0.06396927688533449
11.879779005524863,0.013338113018714152
11.91314917127072,-0.006078389136439416
11.946519337016575,0.009445100262074853
11.979889502762433,0.048544583907947546
12.013259668508288,0.09068406811118562
12.046629834254144,0.1162243829741982
12.08,0.1158361007892022
12.113370165745858,0.09473235855600301
12.146740331491714,0.06972822976610729
12.18011049723757,0.0606315004909843
12.213480662983427,0.08016704944747856
12.246850828729283,0.12721728535597196
12.280220994475139,0.18642695153498723
12.313591160220996,0.2341430187557317
12.346961325966852,0.24781786680017065
12.380331491712708,0.21473123709952163
12.413701657458564,0.13659901568341049
12.447071823204421,0.0287121964006804
12.480441988950277,-0.08548652468667806
12.513812154696133,-0.18202012599940873
12.54718232044199,-0.24350454203299768
12.580552486187846,-0.26367237201550575
12.613922651933702,-0.24816656064228532
12.64729281767956,-0.2115537928160301
12.680662983425416,-0.17155501964880362
12.714033149171271,-0.14241152151013367
12.747403314917127,-0.12981723987347224
12.780773480662985,-0.12953318326356955
12.81414364640884,-0.1304479741390169
12.847513812154697,-0.12083514580114753
12.880883977900554,-0.09485392904723264
12.91425414364641,-0.05600512791308726
12.947624309392266,-0.01569312434078098
12.980994475138122,0.01240132132832276
13.01436464088398,0.019186055747682746
13.047734806629835,0.004670966605464341
13.081104972375691,-0.022143003220938328
13.114475138121549,-0.04780415443194932
13.147845303867404,-0.060961322130151235
13.18121546961326,-0.05765901925218655
13.214585635359118,-0.04291689056701625
13.247955801104974,-0.028020782113339995
13.28132596685083,-0.024921289847348326
13.314696132596685,-0.04031685058174812
13.348066298342543,-0.07200474070925958
13.381436464088399,-0.10905020449376518
13.414806629834255,-0.13572828556298913
13.448176795580112,-0.13763031116434918
13.481546961325968,-0.10735937610918597
13.514917127071824,-0.047283123694291336
13.548287292817681,0.032014311093207
13.581657458563537,0.11698344176028537
13.615027624309393,0.19755132181901716
13.648397790055249,0.27137206117125345
13.681767955801106,0.34332647647643705
13.715138121546962,0.4200508733466365
13.748508287292818,0.5020729053544262
13.781878453038676,0.5779101618081278
13.815248618784532,0.624119630209458
13.848618784530387,0.6126711576036212
13.881988950276245,0.5232565442998894
13.9153591160221,0.35509491484291195
13.948729281767957,0.1321715413120369
13.982099447513813,-0.10169899566754523
14.01546961325967,-0.29697122126994546
14.048839779005526,-0.4160164472516148
14.082209944751382,-0.44657839735933785
14.11558011049724,-0.4049622999351807
14.148950276243095,-0.32765362251109387
14.182320441988951,-0.2554824450272344
14.215690607734807,-0.21768792812123972
14.249060773480664,-0.22273336903255161
14.28243093922652,-0.25899972305072433
14.315801104972376,-0.30367693839523696
14.349171270718234,-0.3347019805372658
14.38254143646409,-0.3399186920491795
14.415911602209945,-0.3197166577256172
14.449281767955803,-0.28296995056840196
14.482651933701659,-0.23936455230017184
14.516022099447515,-0.19269029348060995
14.54939226519337,-0.13878366722772484
14.582762430939228,-0.06907538770179977
14.616132596685084,0.022439203350843498
14.64950276243094,0.13286125659181441
14.682872928176797,0.24834124172621608
14.716243093922653,0.3475943992737838
14.749613259668509,0.40928480559317104
14.782983425414367,0.41973091700807363
14.816353591160222,0.3775421388957292
14.849723756906078,0.2935948407341986
14.883093922651934,0.18697474686626345
14.916464088397792,0.07897265139292751
14.949834254143648,-0.012539211453341357
14.983204419889503,-0.07671238583706277
15.016574585635361,-0.11069517874797326
15.049944751381217,-0.11826869417776482
15.083314917127073,-0.10706602421929642
15.116685082872928,-0.08559906311131575
15.150055248618786,-0.06123726849804328
15.183425414364642,-0.039748865421200444
15.216795580110498,-0.026125149993080053
15.250165745856355,-0.02554391142533132
15.283535911602211,-0.04303626242015597
15.316906077348067,-0.08107713818065701
15.350276243093925,-0.13577809999042767
15.38364640883978,-0.19387607228349307
15.417016574585636,-0.23325941136263373
15.450386740331492,-0.22865763330506722
15.48375690607735,-0.1615297714360856
15.517127071823205,-0.03031095631586754
15.550497237569061,0.1442799805745467
15.583867403314919,0.32294071348783704
15.617237569060775,0.46071136465739726
15.65060773480663,0.5245149566481508
15.683977900552488,0.5074408380059519
15.717348066298344,0.43231159736857183
15.7507182320442,0.3415306767639266
15.784088397790056,0.2768864029181804
15.817458563535913,0.2585800706487229
15.85082872928177,0.274081887145662
15.884198895027625,0.28325236849321617
15.917569060773483,0.23815836113659616
15.950939226519338,0.10819377532370598
15.984309392265194,-0.10215456600796742
16.01767955801105,-0.3521462576249646
16.051049723756908,-0.580994861197797
16.084419889502765,-0.7332638139467619
16.11779005524862,-0.7808324346531207
16.151160220994477,-0.7311897985206424
16.18453038674033,-0.6193562160045046
16.21790055248619,-0.4890216882994946
16.251270718232046,-0.37310019828425306
16.2846408839779,-0.28285865251574444
16.318011049723758,-0.20933631106751024
16.351381215469615,-0.13427269020117186
16.38475138121547,-0.04359919783797016
16.418121546961327,0.06358747334675308
16.451491712707185,0.17434281653463318
16.48486187845304,0.26866373166931795
16.518232044198896,0.32945384213308926
16.551602209944754,0.3504404474702235
16.584972375690608,0.33843250663732644
16.618342541436466,0.309335068400893
16.651712707182323,0.280251190514119
16.685082872928177,0.261591381189333
16.718453038674035,0.25286072876524823
16.751823204419892,0.24396355283395574
16.785193370165747,0.22130185316715853
16.818563535911604,0.17574406125527853
16.851933701657458,0.10864326333764512
16.885303867403316,0.032903475744037396
16.918674033149173,-0.031676223770013404
16.952044198895027,-0.06685515948237271
16.985414364640885,-0.06435114925441754
17.018784530386743,-0.030155599372362556
17.052154696132597,0.017483517557927125
17.085524861878454,0.05565852406692249
17.118895027624312,0.06646645988211303
17.152265193370166,0.044159366020698365
17.185635359116024,-0.003547605723859844
17.21900552486188,-0.06037502347753698
