Frequency (Hz),Amplitude
0.0,1.4690748202737094
0.019867549668874173,1.4683982856207578
0.039735099337748346,1.4663694852321474
0.059602649006622516,1.4629908303611052
0.07947019867549669,1.4582663415961572
0.09933774834437085,1.4522016516994227
0.11920529801324503,1.444804009760061
0.13907284768211922,1.436082286849295
0.15894039735099338,1.4260469834261658
0.17880794701986755,1.4147102388143074
0.1986754966887417,1.402085843150559
0.2185430463576159,1.388189252300879
0.23841059602649006,1.373037606349536
0.2582781456953642,1.3566497524000414
0.27814569536423844,1.3390462725842114
0.2980132450331126,1.320249518367951
0.31788079470198677,1.3002836524757488
0.33774834437086093,1.279174700042193
0.3576158940397351,1.256950610951344
0.3774834437086093,1.233641335761985
0.3973509933774834,1.2092789181597765
0.4172185430463576,1.1838976075575478
0.4370860927152318,1.1575339963174425
0.45695364238410596,1.1302271871447191
0.4768211920529801,1.1020189975636534
0.49668874172185434,1.0729542101148173
0.5165562913907285,1.0430808791143176
0.5364238410596026,1.0124507076269598
0.5562913907284769,0.9811195118998354
0.5761589403973509,0.9491477951012619
0.5960264900662252,0.9166014580838857
0.6158940397350993,0.8835526823639563
0.6357615894039735,0.8500810299450478
0.6556291390728477,0.8162748163693333
0.6754966887417219,0.7822328276929948
0.695364238410596,0.7480664688414078
0.7152317880794702,0.7139024490597996
0.7350993377483444,0.679886127247429
0.7549668874172186,0.6461856497245503
0.7748344370860927,0.6129970029221066
0.7947019867549668,0.580550049862571
0.8145695364238411,0.5491154800735146
0.8344370860927152,0.5190123092959773
0.8543046357615894,0.49061502021613607
0.8741721854304636,0.4643585313196899
0.8940397350993378,0.44073788250550566
0.9139072847682119,0.42029806570384404
0.9337748344370861,0.4036086220386293
0.9536423841059603,0.3912190763969768
0.9735099337748344,0.3835967907915034
0.9933774834437087,0.38105831354269826
1.0132450331125828,0.3837142738857137
1.033112582781457,0.39144843558626824
1.0529801324503312,0.4039396502530839
1.0728476821192052,0.4207175642665288
1.0927152317880795,0.44123132914187824
1.1125827814569538,0.4649114143742855
1.1324503311258278,0.49121369725941116
1.1523178807947019,0.5196444367009954
1.1721854304635762,0.5497701381928438
1.1920529801324504,0.5812176885703008
1.2119205298013245,0.613669300446628
1.2317880794701985,0.646855342888032
1.2516556291390728,0.6805468446407996
1.271523178807947,0.7145485616395132
1.2913907284768211,0.7486929627470865
1.3112582781456954,0.7828351991557745
1.3311258278145695,0.8168489864125379
1.3509933774834437,0.8506232758824266
1.370860927152318,0.8840595831192283
1.390728476821192,0.9170698506764512
1.410596026490066,0.9495747400561005
1.4304635761589404,0.9815022657466054
1.4503311258278146,1.012786701012991
1.4701986754966887,1.0433676993575305
1.4900662251655628,1.0731895872677657
1.5099337748344372,1.1022007932550213
1.5298013245033113,1.1303533856191283
1.5496688741721854,1.1576026972153481
1.5695364238410596,1.1839070200717638
1.5894039735099337,1.209227356279348
1.609271523178808,1.2335272143719254
1.6291390728476822,1.256772442602317
1.6490066225165563,1.2789310922397736
1.6688741721854303,1.2999733053669873
1.6887417218543048,1.3198712227249814
1.7086092715231789,1.3385989080024465
1.728476821192053,1.3561322856418616
1.7483443708609272,1.37244908977581
1.7682119205298013,1.3875288223410147
1.7880794701986755,1.4013527187687924
1.8079470198675496,1.413903719935257
1.8278145695364238,1.425166449286944
1.847682119205298,1.4351271942485355
1.8675496688741722,1.4437738911767004
1.8874172185430464,1.4510961132557127
1.9072847682119205,1.457085060840436
1.9271523178807946,1.4617335538463785
1.9470198675496688,1.4650360258665245
1.9668874172185429,1.4669885197654424
1.9867549668874174,1.4675886845631854
2.0066225165562916,1.4668357734785515
2.0264900662251657,1.4647306430537554
2.0463576158940397,1.4612757533332177
2.066225165562914,1.4564751691185536
2.086092715231788,1.4503345623724853
2.1059602649006623,1.4428612158966592
2.1258278145695364,1.4340640284650636
2.1456953642384105,1.4239535216565358
2.165562913907285,1.4125418487000345
2.185430463576159,1.399842805725928
2.205298013245033,1.3858718459097827
2.2251655629139075,1.37064609710461
2.2450331125827816,1.3541843836879544
2.2649006622516556,1.336507253506824
2.2847682119205297,1.3176370109934523
2.3046357615894038,1.2975977577559505
2.324503311258278,1.276415442231931
2.3443708609271523,1.2541179203431845
2.364238410596027,1.2307350295235797
2.384105960264901,1.2062986790332717
2.403973509933775,1.1808429601497272
2.423841059602649,1.154404280677476
2.443708609271523,1.1270215292945107
2.463576158940397,1.098736276617104
2.4834437086092715,1.069593021600974
2.5033112582781456,1.0396394941140303
2.52317880794702,1.0089270273548165
2.543046357615894,0.9775110174333451
2.562913907284768,0.9454514921082896
2.5827814569536423,0.9128138166758585
2.6026490066225163,0.8796695726818101
2.622516556291391,0.8460976548833432
2.642384105960265,0.8121856441395875
2.662251655629139,0.7780315289889036
2.6821192052980134,0.7437458665979294
2.7019867549668874,0.7094544937792555
2.7218543046357615,0.6753019184147959
2.741721854304636,0.6414555350153118
2.76158940397351,0.6081108029199954
2.781456953642384,0.5754974777564378
2.801324503311258,0.5438868527259891
2.821192052980132,0.5135996735311318
2.8410596026490067,0.485013832516029
2.8609271523178808,0.4585700003806445
2.8807947019867552,0.43477196003499285
2.9006622516556293,0.41417678616093623
2.9205298013245033,0.39736902081684505
2.9403973509933774,0.38491438781355525
2.9602649006622515,0.37729443980197697
2.9801324503311255,0.3748339056632318
3.0,0.37764246338487145
3.0198675496688745,0.3855933209102721
3.0397350993377485,0.3983477921101825
3.0596026490066226,0.41541537771678444
3.0794701986754967,0.4362265494698604
3.0993377483443707,0.4601970138144941
3.119205298013245,0.48677249856363847
3.1390728476821192,0.5154532552523493
3.1589403973509933,0.5458029620972008
3.1788079470198674,0.5774478627476288
3.198675496688742,0.6100708901226963
3.218543046357616,0.6434039003925708
3.23841059602649,0.6772197770962451
3.2582781456953644,0.7113252488248788
3.2781456953642385,0.7455547284040378
3.2980132450331126,0.7797652030795753
3.3178807947019866,0.813832079269691
3.3377483443708607,0.847645841772155
3.3576158940397347,0.8811093840662747
3.3774834437086096,0.9141358805299492
3.3973509933774837,0.9466470912289199
3.4172185430463577,0.9785720098773361
3.437086092715232,1.009845783323456
3.456953642384106,1.0404088458011973
3.47682119205298,1.0702062232605165
3.4966887417218544,1.0991869726904075
3.5165562913907285,1.1273037288991938
3.5364238410596025,1.1545123371167494
3.556291390728477,1.180771554381798
3.576158940397351,1.2060428062579158
3.596026490066225,1.2302899882130647
3.615894039735099,1.2534793031775413
3.6357615894039736,1.275579128502432
3.6556291390728477,1.2965599068824951
3.6754966887417218,1.316394056865676
3.695364238410596,1.3350558994096124
3.7152317880794703,1.3525215976119982
3.7350993377483444,1.3687691072743653
3.754966887417219,1.3837781363861883
3.774834437086093,1.3975301119610624
3.794701986754967,1.410008152936119
3.814569536423841,1.4211970480739338
3.834437086092715,1.4310832379926657
3.854304635761589,1.439654800605063
3.8741721854304636,1.4469014393747077
3.8940397350993377,1.4528144739061544
3.9139072847682117,1.4573868324766655
3.9337748344370858,1.4606130461958773
3.9536423841059607,1.4624892445482254
3.9735099337748347,1.4630131521333753
3.993377483443709,1.4621840864754918
4.013245033112583,1.4600029568227468
4.033112582781457,1.4564722639077046
4.052980132450331,1.4515961006870723
4.072847682119205,1.4453801541278897
4.0927152317880795,1.4378317081580942
4.112582781456953,1.428959647953646
4.132450331125828,1.4187744657945986
4.152317880794702,1.407288268789438
4.172185430463576,1.394514788844664
4.19205298013245,1.3804693953459608
4.211920529801325,1.3651691111235371
4.231788079470199,1.3486326324003408
4.251655629139073,1.330880353573779
4.271523178807947,1.311934397865872
4.291390728476821,1.2918186551018207
4.311258278145695,1.2705588281535467
4.33112582781457,1.248182489926785
4.3509933774834435,1.2247191531952901
4.370860927152318,1.2002003561168384
4.390728476821192,1.1746597669326047
4.410596026490066,1.148133312192489
4.43046357615894,1.1206593339156332
4.450331125827815,1.0922787824526505
4.470198675496689,1.0630354535516389
4.490066225165563,1.032976280357588
4.509933774834438,1.0021516939429411
4.529801324503311,0.9706160696715577
4.549668874172186,0.9384282814899684
4.569536423841059,0.9056523924434288
4.589403973509934,0.8723585177310402
4.6092715231788075,0.8386239069346152
4.629139072847682,0.8045343052239443
4.649006622516556,0.7701856698910439
4.66887417218543,0.73568633881534
4.688741721854305,0.7011597710932435
4.708609271523179,0.6667480052316385
4.728476821192054,0.6326160018945116
4.748344370860927,0.5989570445727418
4.768211920529802,0.5659993388272847
4.788079470198675,0.5340138335027105
4.80794701986755,0.5033230058293815
4.827814569536423,0.47430978156684545
4.847682119205298,0.44742474063078314
4.867549668874172,0.4231881715934614
4.887417218543046,0.4021815499225904
4.9072847682119205,0.38502152603715856
4.927152317880794,0.372310601728607
4.947019867549669,0.3645650939442132
4.966887417218543,0.3621333197784816
4.986754966887418,0.365129442337126
5.006622516556291,0.37340975633726675
5.026490066225166,0.38660216365011063
5.04635761589404,0.4041755845633125
5.066225165562914,0.42552180151917235
5.086092715231788,0.45002535258698584
5.105960264900662,0.4771101025562064
5.125827814569536,0.5062629396687319
5.14569536423841,0.5370407656688787
5.1655629139072845,0.5690676111446852
5.185430463576159,0.6020270812717611
5.205298013245033,0.6356533652010141
5.225165562913908,0.6697225175719997
5.245033112582782,0.7040447575455457
5.264900662251656,0.7384579997626216
5.28476821192053,0.7728225738448719
5.304635761589404,0.8070169845344778
5.324503311258278,0.8409345380782277
5.344370860927152,0.8744806695268474
5.364238410596027,0.9075708281023176
5.3841059602649,0.9401288030106479
5.403973509933775,0.9720853954261602
5.4238410596026485,1.003377362239763
5.443708609271523,1.0339465733358688
5.463576158940397,1.063739337001689
5.483443708609272,1.0927058581207407
5.503311258278146,1.120799801602924
5.52317880794702,1.1479779395367962
5.543046357615895,1.1741998652103973
5.562913907284768,1.1994277607490986
5.582781456953643,1.2236262079101035
5.602649006622516,1.2467620337404708
5.622516556291391,1.268804184494595
5.642384105960264,1.2897236225297974
5.662251655629139,1.3094932419369534
5.682119205298013,1.3280877994831037
5.701986754966887,1.3454838580931352
5.7218543046357615,1.3616597406156894
5.741721854304636,1.3765954920327719
5.7615894039735105,1.390272848606889
5.781456953642384,1.402675212728532
5.801324503311259,1.4137876324475003
5.821192052980132,1.4235967848504871
5.841059602649007,1.4320909625961395
5.860927152317881,1.439260063041409
5.880794701986755,1.445095579496357
5.900662251655629,1.449590594231775
5.920529801324503,1.4527397729386997
5.940397350993377,1.454539360404203
5.960264900662251,1.454987177225278
5.980132450331126,1.4540826174347683
6.0,1.4518266469618555
6.0198675496688745,1.4482218028953766
6.039735099337749,1.443272193563612
6.059602649006623,1.436983499489669
6.079470198675497,1.4293629753294
6.099337748344371,1.4204194529496772
6.119205298013245,1.4101633458610026
6.139072847682119,1.3986066552815812
6.158940397350993,1.3857629781823868
6.178807947019867,1.3716475177470735
6.198675496688741,1.3562770967800508
6.218543046357616,1.339670174715225
6.23841059602649,1.3218468690211354
6.258278145695365,1.3028289819723926
6.2781456953642385,1.2826400339711328
6.298013245033113,1.2613053048650809
6.317880794701987,1.2388518850351062
6.337748344370861,1.215308738432396
6.357615894039735,1.1907067802556899
6.377483443708609,1.1650789726027346
6.397350993377484,1.13846044224621
6.417218543046357,1.1108886257238026
6.437086092715232,1.0824034482633509
6.456953642384105,1.053047544776817
6.47682119205298,1.0228665333713736
6.496688741721854,0.9919093547010738
6.516556291390729,0.9602286942308818
6.5364238410596025,0.9278815093869145
6.556291390728477,0.8949296899931249
6.5761589403973515,0.8614408888261172
6.596026490066225,0.8274895701701581
6.6158940397351,0.7931583386729155
6.635761589403973,0.7585396294454791
6.655629139072848,0.7237378640464416
6.675496688741721,0.688872206207357
6.695364238410596,0.6540800852131653
6.715231788079469,0.6195216902552757
6.735099337748344,0.5853856661604696
6.754966887417219,0.5518962374159827
6.774834437086093,0.5193219071228113
6.794701986754967,0.4879856321431952
6.814569536423841,0.4582758126562554
6.8344370860927155,0.43065632785685476
6.854304635761589,0.4056719633253273
6.874172185430464,0.38394292539964825
6.894039735099337,0.366139613982358
6.913907284768212,0.35292903239475165
6.933774834437086,0.3448912941211545
6.95364238410596,0.3424206879570263
6.973509933774834,0.34564377157360493
6.993377483443709,0.3543903880576183
7.013245033112583,0.36823194530669867
7.033112582781457,0.38656823085364755
7.052980132450331,0.4087258384543934
7.072847682119205,0.434037839942014
7.0927152317880795,0.46189295043611006
7.112582781456954,0.4917573143497112
7.132450331125828,0.5231778957763507
7.152317880794702,0.5557760341520096
7.172185430463576,0.589237067597704
7.19205298013245,0.6232993572698715
7.211920529801324,0.6577442793035226
7.231788079470198,0.6923877372382069
7.251655629139073,0.7270732423482912
7.271523178807947,0.7616663952891118
7.291390728476822,0.7960505375582183
7.311258278145695,0.8301233444647929
7.33112582781457,0.8637941607113016
7.3509933774834435,0.8969819154236618
7.370860927152318,0.9296134870452902
7.390728476821192,0.961622417007213
7.410596026490066,0.9929478940654884
7.430463576158941,1.0235339492160989
7.450331125827814,1.0533288150083477
7.470198675496689,1.0822844137277448
7.490066225165562,1.1103559470424844
7.509933774834438,1.1375015658981646
7.52980132450331,1.1636821041685108
7.549668874172186,1.1888608631824829
7.569536423841059,1.2130034370207423
7.589403973509934,1.2360775706107783
7.6092715231788075,1.2580530443034055
7.629139072847682,1.2789015798991124
7.649006622516557,1.2985967640974991
7.66887417218543,1.3171139861318173
7.6887417218543055,1.334430386973516
7.708609271523178,1.3505248179859421
7.728476821192054,1.365377807300159
7.748344370860927,1.3789715325021692
7.768211920529802,1.3912897984755026
7.788079470198675,1.4023180194499383
7.80794701986755,1.4120432044758378
7.827814569536423,1.4204539456822949
7.847682119205298,1.427540408791929
7.8675496688741715,1.4332943254615216
7.887417218543046,1.43770898709832
7.907284768211921,1.4407792398711878
7.927152317880795,1.4425014806960617
7.9470198675496695,1.4428736540277942
7.966887417218543,1.4418952493385389
7.986754966887418,1.4395672992069917
8.006622516556291,1.4358923779844308
8.026490066225167,1.4308746010448223
8.046357615894038,1.4245196246673375
8.066225165562914,1.416834646642612
8.086092715231787,1.4078284077401808
8.105960264900663,1.3975111942248668
8.125827814569536,1.3858948416668975
8.14569536423841,1.3729927403554727
8.165562913907285,1.3588198427017009
8.185430463576159,1.343392673106643
8.205298013245034,1.32672934087768
8.225165562913906,1.3088495569067098
8.245033112582782,1.2897746549818285
8.264900662251655,1.269527618799281
8.28476821192053,1.2481331159831894
8.304635761589404,1.2256175407205885
8.324503311258278,1.2020090669954995
8.344370860927151,1.177337714879207
8.364238410596027,1.1516354329348504
8.3841059602649,1.124936200560608
8.403973509933774,1.0972761550780703
8.42384105960265,1.0686937496401643
8.443708609271523,1.039229949677743
8.463576158940398,1.0089284777499279
8.483443708609272,0.9778361194800973
8.503311258278146,0.9460031069746497
8.52317880794702,0.9134836010494032
8.543046357615895,0.8803363001510405
8.562913907284768,0.8466252126352911
8.582781456953642,0.8124206408201176
8.602649006622515,0.7778004409938206
8.62251655629139,0.7428516446290965
8.642384105960264,0.707672554019221
8.66225165562914,0.6723754621036998
8.682119205298013,0.6370901926726898
8.701986754966887,0.601968712960044
8.721854304635762,0.5671911305170484
8.741721854304636,0.5329734333020523
8.76158940397351,0.49957732410484634
8.781456953642383,0.4673223453723657
8.801324503311259,0.43660000455309206
8.821192052980132,0.40788847043587767
8.841059602649008,0.381764159230607
8.86092715231788,0.3589028119202782
8.880794701986755,0.34005808156518186
8.90066225165563,0.3260034278745219
8.920529801324504,0.3174301767836299
8.940397350993377,0.3148171273075263
8.960264900662251,0.3183173877038452
8.980132450331126,0.3277179337146985
9.0,0.34249461627467104
9.019867549668875,0.36193213660426765
9.039735099337747,0.38525234941628933
9.059602649006623,0.41170953044755254
9.079470198675496,0.44064179850877283
9.099337748344372,0.47148793583148974
9.119205298013245,0.5037838858754836
9.139072847682119,0.5371502269728833
9.158940397350994,0.5712773416332549
9.178807947019868,0.60591151207882
9.198675496688743,0.6408431272951494
9.218543046357615,0.675897178533801
9.23841059602649,0.710925804489977
9.258278145695364,0.7458025254617329
9.27814569536424,0.780417811596033
9.298013245033111,0.8146756816981203
9.317880794701987,0.8484910893025489
9.33774834437086,0.8817879074029734
9.357615894039736,0.9144973681914655
9.37748344370861,0.946556849335363
9.397350993377483,0.9779089251429063
9.417218543046358,1.0085006211440903
9.437086092715232,1.0382828256914947
9.456953642384107,1.0672098234301977
9.47682119205298,1.0952389238792193
9.496688741721854,1.1223301646471413
9.516556291390728,1.1484460735224598
9.536423841059603,1.1735514772394942
9.556291390728477,1.1976133474212263
9.57615894039735,1.2206006762598731
9.596026490066224,1.2424843760756648
9.6158940397351,1.2632371981123642
9.635761589403973,1.2828336668732971
9.655629139072847,1.301250027038937
9.675496688741722,1.3184642005855056
9.695364238410596,1.3344557521807152
9.715231788079471,1.3492058612952758
9.735099337748345,1.3626972997574982
9.754966887417218,1.37491441371128
9.774834437086092,1.3858431091248746
9.794701986754967,1.3954708401506613
9.814569536423841,1.403786599760928
9.834437086092716,1.4107809121880046
9.854304635761588,1.4164458267825573
9.874172185430464,1.4207749129764313
9.894039735099337,1.4237632560974078
9.913907284768213,1.4254074538368344
9.933774834437086,1.4257056132171633
9.95364238410596,1.4246573479486275
9.973509933774835,1.4222637761025396
9.993377483443709,1.4185275180648103
10.013245033112582,1.4134526947688875
10.033112582781456,1.4070449262422124
10.052980132450331,1.3993113305372253
10.072847682119205,1.3902605231567946
10.09271523178808,1.3799026171267081
10.112582781456952,1.368249223915944
10.132450331125828,1.3553134554602844
10.152317880794701,1.3411099276093303
10.172185430463577,1.3256547653926454
10.192052980132452,1.3089656105922955
10.211920529801324,1.2910616322191046
10.2317880794702,1.2719635406255563
10.251655629139073,1.2516936061543418
10.271523178807948,1.230275683428996
10.29139072847682,1.2077352426516632
10.311258278145695,1.1840994095995392
10.331125827814569,1.1593970164246705
10.350993377483444,1.1336586658898775
10.370860927152318,1.1069168123509023
10.390728476821192,1.0792058636714956
10.410596026490065,1.0505623093982996
10.43046357615894,1.021024882017009
10.450331125827816,0.9906347600830187
10.470198675496688,0.9594358246399818
10.490066225165563,0.9274749838456027
10.509933774834437,0.8948025854489254
10.529801324503312,0.8614729431747031
10.549668874172186,0.8275450118285624
10.56953642384106,0.7930832579736539
10.589403973509933,0.7581587896592679
10.609271523178808,0.7228508317431379
10.629139072847682,0.687248665372151
10.649006622516556,0.651454194545153
10.66887417218543,0.6155853635887387
