Frequency (Hz),Amplitude
0.0,6.515144213154687
0.01993355481727575,6.512440982136598
0.0398671096345515,6.504335246273452
0.059800664451827246,6.490838884226051
0.079734219269103,6.471971717550131
0.09966777408637874,6.447761546953157
0.11960132890365449,6.418244204217694
0.13953488372093023,6.3834636209859505
0.159468438538206,6.343471915987418
0.17940199335548174,6.298329502713725
0.19933554817275748,6.248105220012876
0.21926910299003324,6.192876488599462
0.23920265780730898,6.13272949707028
0.25913621262458475,6.067759421690327
0.27906976744186046,5.998070684987418
0.29900332225913623,5.923777259083456
0.318936877076412,5.845003020714061
0.3388704318936877,5.761882166070821
0.3588039867109635,5.674559694960882
0.37873754152823924,5.583191975344552
0.39867109634551495,5.487947401103692
0.4186046511627907,5.389007157932113
0.4385382059800665,5.286566114536845
0.4584717607973422,5.180833858891589
0.47840531561461797,5.072035902064424
0.49833887043189373,4.9604150750801805
0.5182724252491695,4.846233147239149
0.5382059800664452,4.729772697060329
0.5581395348837209,4.611339269158028
0.5780730897009968,4.49126385127571
0.5980066445182725,4.369905704439139
0.6179401993355482,4.247655574327516
0.637873754152824,4.124939301419222
0.6578073089700996,4.002221828293269
0.6777408637873754,3.880011570587987
0.6976744186046512,3.7588650681401625
0.717607973421927,3.6393917579829007
0.7375415282392027,3.5222586033632703
0.7574750830564785,3.4081941650228296
0.7774086378737541,3.297991507501422
0.7973421926910299,3.1925090961955744
0.8172757475083057,3.0926685769583413
0.8372093023255814,2.999448080589082
0.8571428571428572,2.9138695367200347
0.877076411960133,2.836978533841064
0.8970099667774087,2.769815674067886
0.9169435215946844,2.7133792828860206
0.9368770764119602,2.6685807970435818
0.9568106312292359,2.636196027214579
0.9767441860465116,2.616817367751207
0.9966777408637875,2.6108132664025163
1.0166112956810631,2.618301218712306
1.036544850498339,2.639138884700937
1.0564784053156147,2.6729349091726142
1.0764119601328903,2.7190775199711834
1.0963455149501662,2.77677606785747
1.1162790697674418,2.8451091673915068
1.1362126245847177,2.9230732035247007
1.1561461794019936,3.0096263049462535
1.176079734219269,3.103724786336454
1.196013289036545,3.2043509068939984
1.2159468438538206,3.310532201628286
1.2358803986710964,3.4213534981697893
1.255813953488372,3.5359631003212697
1.275747508305648,3.653574644226455
1.2956810631229239,3.7734659614319845
1.3156146179401993,3.894976029593451
1.3355481727574752,4.017500829160315
1.3554817275747508,4.140488691454639
1.3754152823920267,4.263435534864178
1.3953488372093024,4.385880242411362
1.4152823920265782,4.507400330153396
1.435215946843854,4.627607983901807
1.4551495016611296,4.746146493894976
1.4750830564784054,4.86268708668333
1.495016611295681,4.9769261353439775
1.514950166112957,5.088582719283663
1.5348837209302328,5.197396500463654
1.5548172757475083,5.30312588188557
1.5747508305647842,5.40554641524528
1.5946843853820598,5.504449426880966
1.6146179401993357,5.599640833918121
1.6345514950166113,5.6909401254769065
1.6544850498338872,5.7781794867304335
1.6744186046511629,5.86120304635863
1.6943521594684385,5.939866230466967
1.7142857142857144,6.014035208307998
1.73421926910299,6.083586417154429
1.754152823920266,6.148406155439328
1.7740863787375416,6.20839023482123
1.7940199335548175,6.263443683173138
1.8139534883720931,6.313480491657829
1.8338870431893688,6.35842340006169
1.8538205980066447,6.3982037154347555
1.8737541528239203,6.4327611598478756
1.893687707641196,6.46204374374343
1.9136212624584719,6.48600766194173
1.9335548172757475,6.504617209883189
1.9534883720930232,6.51784471814915
1.9734219269102993,6.5256705037233065
1.993355481727575,6.528082836839171
2.0132890365448506,6.525077922617562
2.0332225913621262,6.516659897038021
2.0531561461794023,6.502840837118597
2.073089700996678,6.483640785505406
2.0930232558139537,6.4590877900057455
2.1129568106312293,6.429217958941943
2.132890365448505,6.394075533566908
2.1528239202657806,6.3537129791738005
2.1727574750830567,6.308191096960397
2.1926910299003324,6.257579159183855
2.212624584717608,6.201955070674765
2.2325581395348837,6.141405560382499
2.25249169435216,6.076026407311605
2.2724252491694354,6.005922705997241
2.292358803986711,5.931209177573508
2.312292358803987,5.852010533533647
2.332225913621263,5.7684619004846445
2.352159468438538,5.680709315587243
2.3720930232558137,5.5889103039669275
2.39202657807309,5.493234551206983
2.4119601328903655,5.393864686109267
2.431893687707641,5.290997191243553
2.4518272425249172,5.184843461396498
2.471760797342193,5.075631032845746
2.4916943521594686,4.96360500934746
2.511627906976744,4.849029713692456
2.5315614617940203,4.732190596405337
2.551495016611296,4.613396435219968
2.5714285714285716,4.492981859712286
2.5913621262458477,4.3713102339102745
2.611295681063123,4.248776924341825
2.6312292358803986,4.125812969658472
2.6511627906976742,4.002889147614604
2.6710963455149503,3.880520401570883
2.691029900332226,3.7592705362664667
2.7109634551495017,3.6397570144381692
2.7308970099667778,3.5226555740569263
2.7508305647840534,3.4087042328655395
2.770764119601329,3.298706047838619
2.7906976744186047,3.193529755296638
2.810631229235881,3.0941071514491485
2.8305647840531565,3.001425827928147
2.850498338870432,2.9165157339839736
2.870431893687708,2.8404281194847076
2.8903654485049834,2.774205872321052
2.910299003322259,2.7188452360302042
2.9302325581395348,2.6752504150628256
2.950166112956811,2.6441844793254803
2.9700996677740865,2.6262218284675245
2.990033222591362,2.621708615669166
3.0099667774086383,2.630737321579639
3.029900332225914,2.6531398329508784
3.0498338870431896,2.688500255950311
3.0697674418604657,2.736185187550451
3.089700996677741,2.7953863645884405
3.1096345514950166,2.8651692686054613
3.129568106312292,2.944521521966856
3.1495016611295683,3.0323963414350095
3.169435215946844,3.12774824183274
3.1893687707641196,3.2295600011378975
3.2093023255813957,3.3368612565175018
3.2292358803986714,3.4487399046978253
3.249169435215947,3.5643478074937867
3.2691029900332227,3.6829023017954685
3.289036544850499,3.8036848284685947
3.3089700996677744,3.9260377368995
3.32890365448505,4.049360060557606
3.3488372093023258,4.173102829532752
3.3687707641196014,4.296764301497303
3.388704318936877,4.419885353021206
3.4086378737541527,4.542045172653589
3.428571428571429,4.662857327780748
3.4485049833887045,4.781966231311238
3.46843853820598,4.8990440052157584
3.4883720930232562,5.013787720735832
3.508305647840532,5.125916985838315
3.5282392026578075,5.235171846468367
3.548172757475083,5.341310967407803
3.5681063122923593,5.444110059760253
3.588039867109635,5.543360524382069
3.60797342192691,5.638868283390574
3.6279069767441863,5.730452774852376
3.647840531561462,5.817946088670671
3.6677740863787376,5.901192224431018
3.6877076411960132,5.980046454469936
3.7076411960132893,6.054374777678378
3.727574750830565,6.124053451542448
3.7475083056478407,6.188968591671231
3.7674418604651168,6.249015829586946
3.787375415282392,6.304100020877862
3.807308970099668,6.354134996965157
3.8272425249169437,6.399043354732719
3.8471760797342194,6.438756279135339
3.867109634551495,6.473213394655202
3.887043189368771,6.502362642136054
3.9069767441860463,6.526160178104661
3.9269102990033224,6.544570294202646
3.9468438538205985,6.557565354812218
3.9667774086378738,6.565125751375356
3.98671096345515,6.567239872289187
4.0066445182724255,6.563904087617813
4.026578073089701,6.555122748201779
4.046511627906977,6.540908199077997
4.0664451827242525,6.52128080745236
4.086378737541528,6.496269005802755
4.106312292358805,6.465909351037868
4.1262458471760795,6.430246601006368
4.146179401993356,6.389333810048853
4.166112956810632,6.343232445721281
4.186046511627907,6.2920125293034435
4.205980066445183,6.235752803250218
4.225913621262459,6.174540929360339
4.245847176079734,6.1084737221409275
4.26578073089701,6.037657422652835
4.2857142857142865,5.9622080190497915
4.305647840531561,5.882251621094166
4.325581395348838,5.797924897165469
4.345514950166113,5.709375583699005
4.365448504983389,5.616763078624556
4.385382059800665,5.520259132242406
4.40531561461794,5.420048651094366
4.425249169435216,5.316330632770843
4.445182724252492,5.209319252233714
4.465116279069767,5.099245123093987
4.485049833887043,4.986356760279448
4.50498338870432,4.870922273506844
4.524916943521594,4.753231323665579
4.544850498338871,4.633597376189264
4.5647840531561465,4.512360286046895
4.584717607973422,4.389889247077583
4.604651162790698,4.2665861324537815
4.624584717607974,4.1428892408187
4.644518272425249,4.0192774408923
4.664451827242526,3.896274671688585
4.6843853820598005,3.7744547001765705
4.704318936877076,3.654445956130183
4.724252491694353,3.5369361470413456
4.7441860465116275,3.4226761967818033
4.764119601328904,3.3124828460444755
4.78405315614618,3.2072390049385313
4.803986710963455,3.107890679682288
4.823920265780731,3.0154390548389225
4.8438538205980075,2.930926186681411
4.863787375415282,2.855412880181874
4.883720930232559,2.789947835597048
4.9036544850498345,2.7355281911559612
4.92358803986711,2.6930531755248577
4.943521594684386,2.6632745216218088
4.963455149501661,2.646749111636985
4.983388704318937,2.643800350526114
5.003322259136213,2.6544943809074666
5.023255813953488,2.6786352348089935
5.043189368770764,2.715779779066584
5.063122923588041,2.76526980673473
5.083056478405315,2.826275936145044
5.102990033222592,2.897846807131779
5.122923588039868,2.978957477716695
5.142857142857143,3.068552451455317
5.162790697674419,3.16558071813981
5.182724252491695,3.269021983268061
5.20265780730897,3.3779045696672183
5.222591362126246,3.491316227039777
5.242524916943522,3.6084093722653794
5.262458471760797,3.7284022559099608
5.282392026578074,3.850577352277308
5.3023255813953485,3.9742780081155353
5.322259136212625,4.098904124361769
5.342192691029901,4.223907418937343
5.362126245847176,4.3487866378637925
5.382059800664452,4.473082946032093
5.4019933554817285,4.596375631460926
5.421926910299003,4.718278189835447
5.44186046511628,4.838434811913525
5.4617940199335555,4.956517268617948
5.48172757475083,5.0722221722889005
5.501661129568107,5.185268583919662
5.5215946843853825,5.295395932556445
5.541528239202658,5.402362212539858
5.561461794019934,5.50594242562638
5.5813953488372094,5.605927237409368
5.601328903654485,5.702121820313968
5.621262458471762,5.794344858428544
5.641196013289036,5.882427692352549
5.661129568106313,5.966213584973759
5.681063122923589,6.045557091580597
5.700996677740864,6.120323519948664
5.72093023255814,6.190388468017021
5.740863787375416,6.255637428503425
5.760797342192691,6.315965451320431
5.780730897009967,6.37127685596893
5.800664451827243,6.421484987226725
5.820598006644518,6.466512008439393
5.840531561461795,6.5062887275804515
5.8604651162790695,6.5407544519971035
5.880398671096346,6.569856868412733
5.900332225913622,6.593551945334371
5.920265780730897,6.6118038555248715
5.940199335548173,6.6245849166581126
5.960132890365449,6.631875548691777
5.980066445182724,6.633664246875173
6.0,6.629947569668746
6.0199335548172765,6.620730141194727
6.039867109634551,6.606024668172958
6.059800664451828,6.585851971629277
6.0797342192691035,6.560241034004244
6.099667774086379,6.5292290626438
6.119601328903655,6.492861571029887
6.139534883720931,6.451192479515886
6.159468438538206,6.404284237778513
6.179401993355482,6.352207971694992
6.1993355481727574,6.295043657913454
6.219269102990033,6.232880330018614
6.23920265780731,6.165816320918476
6.259136212624584,6.093959546908353
6.279069767441861,6.017427839823954
6.299003322259137,5.936349334796654
6.318936877076412,5.850862922394422
6.338870431893688,5.761118775394701
6.3588039867109645,5.667278962115458
6.378737541528239,5.569518160150776
6.398671096345516,5.468024486535202
6.418604651162791,5.363000462805262
6.438538205980066,5.254664136126842
6.458471760797343,5.143250380572734
6.4784053156146175,5.029012405675655
6.498338870431894,4.912223502378531
6.51827242524917,4.793179059168865
6.538205980066445,4.672198883047113
6.558139534883721,4.549629860307009
6.578073089700998,4.4258489897806
6.598006644518272,4.301266814564816
6.617940199335549,4.1763312649008215
6.6378737541528245,4.05153190144533
6.6578073089701,3.9274045100583
6.677740863787376,3.8045359404391323
6.6976744186046515,3.68356899413369
6.717607973421927,3.5652070444723347
6.737541528239203,3.450217904490112
6.7574750830564785,3.339436245345332
6.777408637873754,3.233763613246465
6.797342192691031,3.134164821603121
6.8172757475083055,3.041659260355619
6.837209302325582,2.957305558909679
6.857142857142858,2.882178196743407
6.877076411960133,2.8173352325239436
6.897009966777409,2.763777442263712
6.9169435215946855,2.722400818887541
6.93687707641196,2.6939463600128986
6.956810631229236,2.678952851248738
6.9767441860465125,2.6777192503719505
6.996677740863787,2.690282695515438
7.016611295681064,2.7164159424785024
7.036544850498339,2.755644675364815
7.056478405315615,2.8072816370613842
7.076411960132891,2.870471961347354
7.096345514950166,2.9442430998664104
7.116279069767442,3.027553317599825
7.136212624584719,3.1193343584708098
7.156146179401993,3.2185258619962163
7.17607973421927,3.3241008774150975
7.196013289036546,3.4350830778761465
7.21594684385382,3.550556976767397
7.235880398671097,3.669672693993187
7.2558139534883725,3.7916467660723843
7.275747508305648,3.915760282014407
7.295681063122924,4.041355359781988
7.3156146179402,4.167830717690341
7.335548172757475,4.29463687146812
7.355481727574752,4.421271310491617
7.3754152823920265,4.547273874168312
7.395348837209303,4.672222454834629
7.415282392026579,4.795729088756753
7.435215946843854,4.917436454313702
7.45514950166113,5.037014769891848
7.475083056478406,5.1541590685268766
7.495016611295681,5.268586818255277
7.514950166112956,5.380035853878549
7.5348837209302335,5.48826258558634
7.554817275747508,5.593040451399766
7.574750830564784,5.694158582869036
7.5946843853820605,5.791420656365913
7.614617940199336,5.8846439053253485
7.634551495016611,5.973658271717355
7.6544850498338874,6.058305677763196
7.674418604651163,6.138439401397491
7.694352159468439,6.213923541203353
7.714285714285715,6.284632558514952
7.73421926910299,6.350450886107048
7.754152823920266,6.411272594395271
7.774086378737542,6.467001107378471
7.794019933554818,6.517548961688976
7.813953488372093,6.562837603101252
7.83388704318937,6.602797215705006
7.853820598006645,6.6373665796946835
7.8737541528239205,6.66649295438037
7.893687707641197,6.690131983600305
7.913621262458472,6.708247621226727
7.9335548172757475,6.720812074915296
7.953488372093024,6.727805766665905
7.9734219269103,6.72921730914744
7.9933554817275745,6.725043497101066
8.013289036544851,6.715289313483077
8.033222591362128,6.699967950347397
8.053156146179402,6.679100844807361
8.073089700996679,6.652717730762897
8.093023255813954,6.620856707442073
8.11295681063123,6.583564326191709
8.132890365448505,6.540895697370174
8.152823920265782,6.492914619656153
8.172757475083056,6.439693734599999
8.192691029900331,6.381314709822376
8.21262458471761,6.317868454920722
8.232558139534884,6.249455374893679
8.252491694352159,6.176185666753604
8.272425249169435,6.098179665987681
8.292358803986712,6.015568250669468
8.312292358803987,5.9284933123390955
8.332225913621263,5.837108304285913
8.352159468438538,5.741578879606614
8.372093023255815,5.6420836333983875
8.392026578073091,5.538814965696573
8.411960132890366,5.431980084287279
8.43189368770764,5.3218021693026225
8.451827242524917,5.208521724494011
8.471760797342194,5.092398143175275
8.491694352159469,4.973711519848429
8.511627906976745,4.852764741155873
8.53156146179402,4.729885891536809
8.551495016611296,4.6054310090125155
8.571428571428573,4.479787223685495
8.591362126245848,4.353376304038599
8.611295681063122,4.226658621407509
8.6312292358804,4.100137517490493
8.651162790697676,3.974364018602239
8.67109634551495,3.8499417772943545
8.691029900332227,3.727532029343081
8.710963455149502,3.6078582236722068
8.730897009966778,3.4917098073312975
8.750830564784053,3.379944424565135
8.77076411960133,3.2734875263358845
8.790697674418604,3.173328112229854
8.81063122923588,3.080509099449088
8.830564784053157,2.996110733431818
8.850498338870432,2.9212256622250448
8.870431893687707,2.856924949996609
8.890365448504983,2.8042155188704814
8.91029900332226,2.7639912566259315
8.930232558139535,2.736982041002193
8.950166112956811,2.7237066615566627
8.970099667774086,2.7244363617321903
8.990033222591363,2.73917491012085
9.00996677740864,2.7676586640928695
9.029900332225914,2.809376595678724
9.049833887043189,2.8636067680054835
9.069767441860467,2.9294633337876674
9.089700996677742,3.00594734598745
9.109634551495017,3.091995434796162
9.129568106312293,3.1865221419178438
9.14950166112957,3.2884537095786173
9.169435215946844,3.3967528564673777
9.189368770764121,3.510435272618679
9.209302325581396,3.628579207954733
9.22923588039867,3.750329730769941
9.249169435215949,3.874899150172236
9.269102990033224,4.0015648697378525
9.289036544850498,4.129665667003585
9.308970099667773,4.258597132954348
9.328903654485051,4.387806784665563
9.348837209302326,4.516789190536023
9.368770764119601,4.645081318416119
9.388704318936878,4.7722582252328
9.408637873754152,4.897929144233738
9.428571428571429,5.021733985188967
9.448504983388705,5.143340237586757
9.46843853820598,5.262440252244913
9.488372093023255,5.378748869286814
9.508305647840533,5.49200135757681
9.528239202657808,5.601951630717869
9.548172757475083,5.708370706399241
9.56810631229236,5.811045378460619
9.588039867109636,5.909777074009175
9.60797342192691,6.0043808709748205
9.627906976744187,6.094684654434648
9.647840531561462,6.180528392777596
9.667774086378738,6.261763517269028
9.687707641196015,6.338252390798164
9.70764119601329,6.409867853554219
9.727574750830565,6.476492835097843
9.747508305647841,6.538020023793564
9.767441860465118,6.594351585872866
9.787375415282392,6.6453989275279035
9.807308970099669,6.691082494418168
9.827242524916944,6.7313316038258355
9.84717607973422,6.766084305440201
9.867109634551497,6.795287267404187
9.887043189368772,6.818895684831689
9.906976744186046,6.836873208516941
9.926910299003321,6.849191892017651
9.9468438538206,6.855832155713676
9.966777408637874,6.856782766831727
9.986710963455149,6.852040834792495
10.006644518272426,6.841611821588954
10.026578073089702,6.825509567249941
10.046511627906977,6.803756330790317
10.066445182724253,6.7763828474051175
10.086378737541528,6.743428403038204
10.106312292358805,6.704940927854921
10.126245847176081,6.660977110581232
10.146179401993356,6.611602536150014
10.16611295681063,6.556891849628643
10.186046511627907,6.496928950003568
10.205980066445184,6.431807218081805
10.225913621262459,6.361629783550764
10.245847176079735,6.286509837136414
10.26578073089701,6.2065709948332515
10.285714285714286,6.1219477223724095
10.305647840531563,6.032785829468493
10.325581395348838,5.939243044968225
10.345514950166113,5.841489685838502
10.36544850498339,5.739709435001869
10.385382059800666,5.634100245369136
10.40531561461794,5.524875390036526
10.425249169435217,5.412264681490424
10.445182724252492,5.296515885740992
10.465116279069768,5.1778963604739054
10.485049833887045,5.056694949360528
10.50498338870432,4.933224167255353
10.524916943521594,4.807822712580071
10.544850498338871,4.680858342883889
10.564784053156147,4.552731146077448
10.584717607973422,4.423877231245745
10.604651162790697,4.294772846499652
10.624584717607974,4.165938903186232
10.64451827242525,4.037945840774048
10.664451827242525,3.9114186982262655
10.684385382059801,3.7870421577353057
10.704318936877076,3.665565186889986
10.724252491694353,3.547804718756153
10.74418604651163,3.4346475744923013
10.764119601328904,3.3270495606221897
10.784053156146179,3.2260303954457297
10.803986710963457,3.132662902319143
10.823920265780732,3.0480548603800623
10.843853820598007,2.973322174293793
10.863787375415283,2.909552773209174
10.88372093023256,2.8577619777073915
10.903654485049834,2.81884192374596
