Frequency (Hz),Amplitude
0.0,6.994957055006175
0.01993355481727575,6.991729843802859
0.0398671096345515,6.982051996772021
0.059800664451827246,6.96593487596773
0.079734219269103,6.943397425983522
0.09966777408637874,6.914466186110589
0.11960132890365449,6.879175308178606
0.13953488372093023,6.837566580927751
0.159468438538206,6.789689462048431
0.17940199335548174,6.735601119347369
0.19933554817275748,6.675366482869254
0.21926910299003324,6.609058310233963
0.23920265780730898,6.5367572679569514
0.25913621262458475,6.458552032125958
0.27906976744186046,6.374539412534046
0.29900332225913623,6.284824505251121
0.318936877076412,6.18952087969108
0.3388704318936877,6.088750807551734
0.3588039867109635,5.982645542634706
0.37873754152823924,5.871345662574013
0.39867109634551495,5.755001486024865
0.4186046511627907,5.633773582024634
0.4385382059800665,5.5078333922174325
0.4584717607973422,5.377363991666109
0.47840531561461797,5.242561020365912
0.49833887043189373,5.103633825721783
0.5182724252491695,4.960806866675815
0.5382059800664452,4.814321443551411
0.5581395348837209,4.664437834893381
0.5780730897009968,4.511437944757561
0.5980066445182725,4.355628592467762
0.6179401993355482,4.197345613573507
0.637873754152824,4.036958987691462
0.6578073089700996,3.874879268357642
0.6777408637873754,3.7115656639961587
0.6976744186046512,3.547536208478805
0.717607973421927,3.3833805621380106
0.7375415282392027,3.2197760897909005
0.7574750830564785,3.057507946380738
0.7774086378737541,2.8974939085922844
0.7973421926910299,2.740814512962549
0.8172757475083057,2.5887484944707713
0.8372093023255814,2.4428122158648096
0.8571428571428572,2.304799203392532
0.877076411960133,2.1768113961491404
0.8970099667774087,2.0612668373461163
0.9169435215946844,1.9608600764408475
0.9368770764119602,1.8784453810253867
0.9568106312292359,1.8168176579701372
0.9767441860465116,1.7783930815928453
0.9966777408637875,1.764843463404527
1.0166112956810631,1.7767924941515503
1.036544850498339,1.8136915733756103
1.0564784053156147,1.8739294846414956
1.0764119601328903,1.955127804991076
1.0963455149501662,2.054506218050753
1.1162790697674418,2.1692071227962426
1.1362126245847177,2.2965216648082682
1.1561461794019936,2.4340125106661517
1.176079734219269,2.579557497931638
1.196013289036545,2.73134419862942
1.2159468438538206,2.8878396561347426
1.2358803986710964,3.047751083127143
1.255813953488372,3.2099862832863595
1.275747508305648,3.3736179059878437
1.2956810631229239,3.5378529647965093
1.3156146179401993,3.7020076831890285
1.3355481727574752,3.8654871292614494
1.3554817275747508,4.027768905649047
1.3754152823920267,4.1883901606823635
1.3953488372093024,4.346937267956239
1.4152823920265782,4.503037626720045
1.435215946843854,4.656353138466078
1.4551495016611296,4.806575005395429
1.4750830564784054,4.95341957138445
1.495016611295681,5.096624986384879
1.514950166112957,5.235948522864429
1.5348837209302328,5.371164410195833
1.5548172757475083,5.502062081928291
1.5747508305647842,5.628444753410362
1.5946843853820598,5.750128264725197
1.6146179401993357,5.866940137494493
1.6345514950166113,5.97871880469829
1.6544850498338872,6.085312980933453
1.6744186046511629,6.186581147023276
1.6943521594684385,6.28239112799931
1.7142857142857144,6.372619747515691
1.73421926910299,6.457152544963001
1.754152823920266,6.535883544107508
1.7740863787375416,6.608715064131834
1.7940199335548175,6.675557565605209
1.8139534883720931,6.736329525249245
1.8338870431893688,6.79095733445435
1.8538205980066447,6.839375217394504
1.8737541528239203,6.881525165324718
1.893687707641196,6.917356884257051
1.9136212624584719,6.94682775372515
1.9335548172757475,6.969902794781989
1.9534883720930232,6.986554645749386
1.9734219269102993,6.996763544563463
1.993355481727575,7.000517316849178
2.0132890365448506,6.997811369119168
2.0332225913621262,6.988648686735413
2.0531561461794023,6.973039836504949
2.073089700996678,6.951002974009125
2.0930232558139537,6.922563855997782
2.1129568106312293,6.887755858421234
2.132890365448505,6.846620000932455
2.1528239202657806,6.79920497897696
2.1727574750830567,6.745567204908554
2.1926910299003324,6.68577085993629
2.212624584717608,6.619887959134834
2.2325581395348837,6.547998432253411
2.25249169435216,6.470190223657366
2.2724252491694354,6.386559415456051
2.292358803986711,6.297210378742212
2.312292358803987,6.20225595893131
2.332225913621263,6.101817702493129
2.352159468438538,5.996026133978011
2.3720930232558137,5.885021094236731
2.39202657807309,5.768952153223175
2.4119601328903655,5.647979113888189
2.431893687707641,5.522272627600065
2.4518272425249172,5.392014946490943
2.471760797342193,5.257400844431773
2.4916943521594686,5.118638746372599
2.511627906976744,4.975952116064018
2.5315614617940203,4.82958116536607
2.551495016611296,4.67978496532054
2.5714285714285716,4.526844061024573
2.5913621262458477,4.371063720510433
2.611295681063123,4.212777984055623
2.6312292358803986,4.05235472669053
2.6511627906976742,3.890202005410924
2.6710963455149503,3.7267760358290696
2.691029900332226,3.5625912317121378
2.7109634551495017,3.398232843019071
2.7308970099667778,3.2343728346281004
2.7508305647840534,3.071789735337654
2.770764119601329,2.91139320276409
2.7906976744186047,2.754253889542631
2.810631229235881,2.601638663721621
2.8305647840531565,2.4550499928745926
2.850498338870432,2.316265823547451
2.870431893687708,2.18737191108288
2.8903654485049834,2.070771802525762
2.910299003322259,1.9691512077419357
2.9302325581395348,1.8853669244168905
2.950166112956811,1.8222342090270536
2.9700996677740865,1.782211952605061
2.990033222591362,1.7670360027038037
3.0099667774086383,1.7774064850803268
3.029900332225914,1.8128488932667666
3.0498338870431896,1.8718094292343588
3.0697674418604657,1.9519425929224141
3.089700996677741,2.0504769167696493
3.1096345514950166,2.1645455400565443
3.129568106312292,2.291419738763606
3.1495016611295683,2.4286379912148766
3.169435215946844,2.574053780177841
3.1893687707641196,2.7258323799621076
3.2093023255813957,2.882421484895801
3.2292358803986714,3.0425120280073363
3.249169435215947,3.204998346550622
3.2691029900332227,3.3689420384152498
3.289036544850499,3.533541063325981
3.3089700996677744,3.6981042081668734
3.32890365448505,3.86203039774591
3.3488372093023258,4.024792119002848
3.3687707641196014,4.185922218861222
3.388704318936877,4.3450034146534735
3.4086378737541527,4.501659961260365
3.428571428571429,4.655551023027605
3.4485049833887045,4.806365390051176
3.46843853820598,4.953817254555313
3.4883720930232562,5.097642824428958
3.508305647840532,5.237597599509045
3.5282392026578075,5.373454174175754
3.548172757475083,5.50500045938063
3.5681063122923593,5.632038240173253
3.588039867109635,5.754382002600241
3.60797342192691,5.871857977688341
3.6279069767441863,5.98430336100094
3.647840531561462,6.091565674676165
3.6677740863787376,6.193502245454961
3.6877076411960132,6.289979777401763
3.7076411960132893,6.380874002125355
3.727574750830565,6.466069392566298
3.7475083056478407,6.545458929015657
3.7674418604651168,6.618943908112155
3.787375415282392,6.6864337872413815
3.807308970099668,6.74784605811796
3.8272425249169437,6.80310614443666
3.8471760797342194,6.852147319382974
3.867109634551495,6.8949106395402096
3.887043189368771,6.9313448923497205
3.9069767441860463,6.961406554800877
3.9269102990033224,6.98505976146733
3.9468438538205985,7.002276280383967
3.9667774086378738,7.0130354955873635
3.98671096345515,7.017324395434329
4.0066445182724255,7.015137566076685
4.026578073089701,7.00647718971518
4.046511627906977,6.9913530474889765
4.0664451827242525,6.969782527085637
4.086378737541528,6.941790635388786
4.106312292358805,6.907410016721228
4.1262458471760795,6.86668097750028
4.146179401993356,6.819651518405682
4.166112956810632,6.76637737547929
4.186046511627907,6.7069220719402125
4.205980066445183,6.641356982922828
4.225913621262459,6.569761415843537
4.245847176079734,6.49222270969597
4.26578073089701,6.408836357286593
4.2857142857142865,6.319706155286284
4.305647840531561,6.224944388024905
4.325581395348838,6.12467205224683
4.345514950166113,6.019019131637335
4.365448504983389,5.908124931904494
4.385382059800665,5.792138489663002
4.40531561461794,5.671219071449711
4.425249169435216,5.545536783081115
4.445182724252492,5.415273314467977
4.465116279069767,5.280622851229309
4.485049833887043,5.1417931923838855
4.50498338870432,4.999007123550251
4.524916943521594,4.852504108114367
4.544850498338871,4.702542375585571
4.5647840531561465,4.549401507958848
4.584717607973422,4.393385652735585
4.604651162790698,4.234827527063926
4.624584717607974,4.074093423314469
4.644518272425249,3.911589484598504
4.664451827242526,3.7477695914196207
4.6843853820598005,3.5831452889826925
4.704318936877076,3.4182982869638487
4.724252491694353,3.253896171422175
4.7441860465116275,3.0907120596969824
4.764119601328904,2.9296489537979062
4.78405315614618,2.771769405139189
4.803986710963455,2.618330603951835
4.823920265780731,2.470823820660056
4.8438538205980075,2.3310147386057745
4.863787375415282,2.2009769606236436
4.883720930232559,2.083104327869151
4.9036544850498345,1.9800791931519253
4.92358803986711,1.894766813082803
4.943521594684386,1.8300086996428582
4.963455149501661,1.7883116775544767
4.983388704318937,1.7714794171539048
5.003322259136213,1.780290204973008
5.023255813953488,1.8143429576010872
5.043189368770764,1.8721383091362382
5.063122923588041,1.9513588807413538
5.083056478405315,2.0492362019659995
5.102990033222592,2.162888035485745
5.122923588039868,2.2895600066053143
5.142857142857143,2.426761302106644
5.162790697674419,2.5723167421649196
5.182724252491695,2.724365764137475
5.20265780730897,2.8813338451413113
5.222591362126246,3.0418933230920016
5.242524916943522,3.2049231932573616
5.262458471760797,3.3694724699880885
5.282392026578074,3.5347287929228863
5.3023255813953485,3.6999924513192526
5.322259136212625,3.864655324486207
5.342192691029901,4.028184005105728
5.362126245847176,4.190106357213964
5.382059800664452,4.350000837422219
5.4019933554817285,4.507488013627313
5.421926910299003,4.66222382073181
5.44186046511628,4.813894185960836
5.4617940199335555,4.9622107339191235
5.48172757475083,5.106907344082069
5.501661129568107,5.247737382915247
5.5215946843853825,5.384471471565996
5.541528239202658,5.516895680225135
5.561461794019934,5.644810063664631
5.5813953488372094,5.768027470618381
5.601328903654485,5.886372573783165
5.621262458471762,5.999681078201558
5.641196013289036,6.107799074367161
5.661129568106313,6.210582509114975
5.681063122923589,6.307896752648487
5.700996677740864,6.399616244233475
5.72093023255814,6.4856242024035575
5.740863787375416,6.565812388165846
5.760797342192691,6.640080911811826
5.780730897009967,6.708338075642355
5.800664451827243,6.770500246294821
5.820598006644518,6.826491751482247
5.840531561461795,6.8762447968726725
5.8604651162790695,6.9196993995941005
5.880398671096346,6.95680333547883
5.900332225913622,6.987512097687702
5.920265780730897,7.0117888648004
5.940199335548173,7.029604476840057
5.960132890365449,7.040937418032579
5.980066445182724,7.04577380539539
6.0,7.044107382516152
6.0199335548172765,7.035939518128229
6.039867109634551,7.021279209324478
6.059800664451828,7.000143089479987
6.0797342192691035,6.972555441186841
6.099667774086379,6.9385482147447926
6.119601328903655,6.898161053009595
6.139534883720931,6.851441323684122
6.159468438538206,6.798444160453757
6.179401993355482,6.739232514731082
6.1993355481727574,6.673877220194831
6.219269102990033,6.602457072803797
6.23920265780731,6.525058929554977
6.259136212624584,6.441777829962336
6.279069767441861,6.352717145088161
6.299003322259137,6.257988760001686
6.318936877076412,6.157713296818482
6.338870431893688,6.052020387051038
6.3588039867109645,5.941049003957148
6.378737541528239,5.82494786800973
6.398671096345516,5.703875941664698
6.418604651162791,5.5780030334443085
6.438538205980066,5.447510536208271
6.458471760797343,5.3125923306465594
6.4784053156146175,5.173455892882032
6.498338870431894,5.030323655116431
6.51827242524917,4.883434681146741
6.538205980066445,4.733046735167507
6.558139534883721,4.579438843655527
6.578073089700998,4.422914477698747
6.598006644518272,4.2638055186165635
6.617940199335549,4.102477215200522
6.6378737541528245,3.93933439870385
6.6578073089701,3.774829294054168
6.677740863787376,3.6094713539844663
6.6976744186046515,3.4438396455127642
6.717607973421927,3.278598427777718
6.737541528239203,3.1145166556020176
6.7574750830564785,2.952492176778802
6.777408637873754,2.793581265961069
6.797342192691031,2.639033670588869
6.8172757475083055,2.4903322127491574
6.837209302325582,2.349233686735582
6.857142857142858,2.217803643435598
6.877076411960133,2.098431099339101
6.897009966777409,1.9938006630589364
6.9169435215946855,1.9067921744960916
6.93687707641196,1.8402795950362525
6.956810631229236,1.7968232917088356
6.9767441860465125,1.7782990111648047
6.996677740863787,1.7855653894405683
7.016611295681064,1.8182944473368767
7.036544850498339,1.8750384212923403
7.056478405315615,1.9535031924514155
7.076411960132891,2.0509172050915097
7.096345514950166,2.164376403262839
7.116279069767442,2.2910946321777725
7.136212624584719,2.428546358932163
7.156146179401993,2.57452315355528
7.17607973421927,2.7271348469476333
7.196013289036546,2.884781645558251
7.21594684385382,3.0461148286927737
7.235880398671097,3.209996055395353
7.2558139534883725,3.3754601282696837
7.275747508305648,3.54168302152682
7.295681063122924,3.707955399539342
7.3156146179402,3.8736611374113483
7.335548172757475,4.038260105905064
7.355481727574752,4.201274461256024
7.3754152823920265,4.362277755847813
7.395348837209303,4.520886292360478
7.415282392026579,4.676752251055293
7.435215946843854,4.829558214797172
7.45514950166113,4.979012795650934
7.475083056478406,5.124847130834967
7.495016611295681,5.26681206643368
7.514950166112956,5.40467588689323
7.5348837209302335,5.538222479154544
7.554817275747508,5.667249844201692
7.574750830564784,5.791568887360727
7.5946843853820605,5.9110024330947875
7.614617940199336,6.025384421256507
7.634551495016611,6.1345592505135045
7.6544850498338874,6.238381241520339
7.674418604651163,6.336714197803198
7.694352159468439,6.429431046582572
7.714285714285715,6.516413545136852
7.73421926910299,6.597552041001554
7.754152823920266,6.672745276453822
7.774086378737542,6.741900229465962
7.794019933554818,6.80493198471402
7.813953488372093,6.861763629368385
7.83388704318937,6.912326169326502
7.853820598006645,6.956558462316966
7.8737541528239205,6.994407164942061
7.893687707641197,7.025826691260277
7.913621262458472,7.050779180962067
7.9335548172757475,7.069234475579214
7.953488372093024,7.0811701015041
7.9734219269103,7.0865712588928655
7.9933554817275745,7.085430815794446
8.013289036544851,7.077749307096021
8.033222591362128,7.063534938111069
8.053156146179402,7.042803592866868
8.073089700996679,7.015578847380826
8.093023255813954,6.981891988456162
8.11295681063123,6.941782038785537
8.132890365448505,6.895295789432978
8.152823920265782,6.8424878410812
8.172757475083056,6.783420655792044
8.192691029900331,6.718164621446515
8.21262458471761,6.646798131523368
8.232558139534884,6.5694076834602155
8.252491694352159,6.486087999543556
8.272425249169435,6.3969421751237405
8.292358803986712,6.302081859985867
8.312292358803987,6.201627479976812
8.332225913621263,6.095708507553359
8.352159468438538,5.984463791856617
8.372093023255815,5.868041961335475
8.392026578073091,5.746601914969303
8.411960132890366,5.620313421948577
8.43189368770764,5.489357854485884
8.451827242524917,5.353929084538801
8.471760797342194,5.214234583012829
8.491694352159469,5.070496769973059
8.511627906976745,4.922954677177907
8.53156146179402,4.771866000701491
8.551495016611296,4.6175096426233955
8.571428571428573,4.460188868126972
8.591362126245848,4.300235239596021
8.611295681063122,4.138013534526076
8.6312292358804,3.973927911628694
8.651162790697676,3.8084296617224167
8.67109634551495,3.6420269683776616
8.691029900332227,3.4752972068107812
8.710963455149502,3.3089024211968865
8.730897009966778,3.1436087205626158
8.750830564784053,2.980310376342365
8.77076411960133,2.8200592971095224
8.790697674418604,2.664100119772981
8.81063122923588,2.513910076872592
8.830564784053157,2.3712405734122646
8.850498338870432,2.238153355463977
8.870431893687707,2.117037673514625
8.890365448504983,2.0105862298873767
8.91029900332226,1.921699868553417
8.930232558139535,1.8532915862920478
8.950166112956811,1.8079813963864513
8.970099667774086,1.7877219405062155
8.990033222591363,1.793454940866425
9.00996677740864,1.8249256150413051
9.029900332225914,1.8807351491727937
9.049833887043189,1.9586077387187746
9.069767441860467,2.0557623629287525
9.089700996677742,2.169266283732492
9.109634551495017,2.296294977227037
9.129568106312293,2.4342823241094744
9.14950166112957,2.580981668984831
9.169435215946844,2.73446913852675
9.189368770764121,2.893116343176535
9.209302325581396,3.0555508167139735
9.22923588039867,3.220614703858838
9.249169435215949,3.387326814809193
9.269102990033224,3.554849985175422
9.289036544850498,3.7224640185639553
9.308970099667773,3.8895437335463288
9.328903654485051,4.055541369448986
9.348837209302326,4.21997257723189
9.368770764119601,4.382405296380122
9.388704318936878,4.542450926903095
9.408637873754152,4.699757314823881
9.428571428571429,4.85400316671327
9.448504983388705,5.004893590010233
9.46843853820598,5.152156521418287
9.488372093023255,5.29553985755335
9.508305647840533,5.43480914262574
9.528239202657808,5.569745699524679
9.548172757475083,5.7001451151743145
9.56810631229236,5.825816010026452
9.588039867109636,5.946579036300042
9.60797342192691,6.062266061047432
9.627906976744187,6.172719499076339
9.647840531561462,6.277791767763691
9.667774086378738,6.377344841304564
9.687707641196015,6.471249886287341
9.70764119601329,6.559386963932198
9.727574750830565,6.641644787075817
9.747508305647841,6.717920522181519
9.767441860465118,6.788119628421373
9.787375415282392,6.852155727304838
9.807308970099669,6.9099504974902395
9.827242524916944,6.961433590364818
9.84717607973422,7.006542562761168
9.867109634551497,7.045222823826493
9.887043189368772,7.07742759360378
9.906976744186046,7.103117871342665
9.926910299003321,7.122262411950242
9.9468438538206,7.134837709332493
9.966777408637874,7.140827985678244
9.986710963455149,7.140225186008441
10.006644518272426,7.133028977564394
10.026578073089702,7.119246753845767
10.046511627906977,7.098893643341633
10.066445182724253,7.071992523230555
10.086378737541528,7.038574038568306
10.106312292358805,6.998676627739148
10.126245847176081,6.95234655522905
10.146179401993356,6.899637953094794
10.16611295681063,6.840612872862831
10.186046511627907,6.775341350009285
10.205980066445184,6.703901483662506
10.225913621262459,6.626379534752337
10.245847176079735,6.542870046529103
10.26578073089701,6.4534759922201586
10.285714285714286,6.358308955621555
10.305647840531563,6.257489351683701
10.325581395348838,6.151146695705543
10.345514950166113,6.039419931680025
10.36544850498339,5.922457832735708
10.385382059800666,5.800419489627599
10.40531561461794,5.673474907014086
10.425249169435217,5.541805732038631
10.445182724252492,5.405606145804643
10.465116279069768,5.265083956067078
10.485049833887045,5.120461939361617
10.50498338870432,4.971979493496235
10.524916943521594,4.819894677685524
10.544850498338871,4.664486738701316
10.564784053156147,4.506059248638162
10.584717607973422,4.344944014992684
10.604651162790697,4.181505968843242
10.624584717607974,4.016149294396239
10.64451827242525,3.8493251354520788
10.664451827242525,3.6815413031322186
10.684385382059801,3.5133745138537273
10.704318936877076,3.3454858006955273
10.724252491694353,3.1786398463229277
10.74418604651163,3.0137290381818356
10.764119601328904,2.8518029566458423
10.784053156146179,2.6941036010100814
10.803986710963457,2.5421056280183376
10.823920265780732,2.39755872395872
10.843853820598007,2.2625252676502385
10.863787375415283,2.1394000210224053
10.88372093023256,2.030889882668476
10.903654485049834,1.9399234609016707
