Frequency (Hz),Amplitude
0.0,1.1963088981382795
0.01978021978021978,1.2021651778878717
0.03956043956043956,1.2195425961821011
0.05934065934065934,1.24789348720233
0.07912087912087912,1.286385384393541
0.0989010989010989,1.333996687742215
0.11868131868131868,1.3896135102118543
0.13846153846153844,1.4521108039112085
0.15824175824175823,1.5204102106474378
0.17802197802197803,1.59351484289587
0.1978021978021978,1.6705254661612758
0.21758241758241756,1.7506437436435687
0.23736263736263735,1.8331675999282595
0.2571428571428572,1.9174824905040055
0.2769230769230769,2.0030510898960094
0.2967032967032967,2.089402901583336
0.31648351648351647,2.176124590907296
0.3362637362637363,2.2628513971264583
0.35604395604395606,2.3492597202682366
0.3758241758241758,2.4350608387877553
0.3956043956043956,2.519995648318899
0.4153846153846154,2.6038302885735525
0.4351648351648351,2.6863525250160643
0.45494505494505494,2.7673687625761563
0.4747252747252747,2.8467015837032963
0.4945054945054945,2.9241877189344776
0.5142857142857143,2.999676373074725
0.5340659340659341,3.073027843322339
0.5538461538461538,3.1441123770012473
0.5736263736263736,3.212809226057793
0.5934065934065934,3.279005863328108
0.6131868131868132,3.3425973320137223
0.6329670329670329,3.403485705045582
0.6527472527472528,3.4615796352768458
0.6725274725274726,3.516793980902544
0.6923076923076923,3.569049493309965
0.7120879120879121,3.618272556843168
0.7318681318681318,3.664394971818866
0.7516483516483516,3.707353773643419
0.7714285714285715,3.747091082116452
0.7912087912087912,3.7835539760211616
0.810989010989011,3.816694388936131
0.8307692307692308,3.8464690228942184
0.8505494505494506,3.8728392770880116
0.8703296703296702,3.8957711893011147
0.8901098901098901,3.915235388148538
0.9098901098901099,3.931207054552196
0.9296703296703297,3.9436658911713964
0.9494505494505494,3.9525960987631166
0.9692307692307692,3.9579863586710387
0.989010989010989,3.9598298208434977
1.0087912087912088,3.9581240969635862
1.0285714285714287,3.9528712584466863
1.0483516483516484,3.9440778392251192
1.0681318681318681,3.931754843402222
1.087912087912088,3.915917758022724
1.1076923076923075,3.896586571378159
1.1274725274725275,3.8737857974497762
1.1472527472527472,3.8475445072923313
1.1670329670329669,3.8178963683870952
1.1868131868131868,3.78487969324732
1.2065934065934065,3.7485374988540823
1.2263736263736265,3.7089175788435056
1.2461538461538462,3.6660725907712983
1.2659340659340659,3.6200601612608505
1.2857142857142858,3.570943012416405
1.3054945054945055,3.518789113574381
1.3252747252747252,3.4636718633022556
1.3450549450549452,3.4056703075703725
1.3648351648351649,3.344869401259779
1.3846153846153846,3.281360321683484
1.4043956043956045,3.2152408446549785
1.4241758241758242,3.1466157959196157
1.443956043956044,3.075597593573156
1.4637362637362636,3.002306900552111
1.4835164835164834,2.926873410543381
1.5032967032967033,2.8494367959052473
1.523076923076923,2.7701478526241172
1.542857142857143,2.6891698851792345
1.5626373626373626,2.606680383677331
1.5824175824175823,2.5228730569390403
1.6021978021978023,2.4379602984308884
1.621978021978022,2.3521761768294573
1.6417582417582417,2.2657800588158796
1.6615384615384616,2.179060986650442
1.6813186813186813,2.0923429435799146
1.7010989010989013,2.005991139509606
1.720879120879121,1.9204194258815366
1.7406593406593405,1.8360988826415945
1.7604395604395604,1.7535674801688421
1.7802197802197801,1.6734404582272504
1.7999999999999998,1.5964206189340253
1.8197802197802198,1.5233070294850217
1.8395604395604395,1.4549996228444428
1.8593406593406594,1.3924959148007843
1.879120879120879,1.3368747924373081
1.8989010989010988,1.2892617322679008
1.9186813186813187,1.2507709995914793
1.9384615384615385,1.2224246367171827
1.9582417582417584,1.205055781565525
1.978021978021978,1.1992131620397404
1.9978021978021978,1.205089728866619
2.0175824175824175,1.2224959866739433
2.0373626373626372,1.25088637146441
2.0571428571428574,1.28943040192647
2.076923076923077,1.337108084344181
2.096703296703297,1.3928066015260443
2.1164835164835165,1.4554014035860443
2.1362637362637362,1.5238141171175388
2.1560439560439564,1.5970474341552516
2.175824175824176,1.6742014133670777
2.195604395604396,1.7544768307443939
2.215384615384615,1.837170626621526
2.2351648351648348,1.9216672348790964
2.254945054945055,2.007428310533544
2.2747252747252746,2.093982363622624
2.2945054945054943,2.1809151050924114
2.314285714285714,2.267860864492877
2.3340659340659338,2.3544951778436056
2.353846153846154,2.440528503578011
2.3736263736263736,2.5257009581193253
2.3934065934065933,2.6097779389589384
2.413186813186813,2.6925465023655213
2.4329670329670328,2.7738123732808213
2.452747252747253,2.8533974798631134
2.4725274725274726,2.9311379209233497
2.4923076923076923,3.0068822893749028
2.512087912087912,3.080490288020653
2.5318681318681318,3.151831585315287
2.5516483516483515,3.220784868228014
2.5714285714285716,3.287237057177069
2.5912087912087913,3.3510826544393963
2.610989010989011,3.412223202683551
2.6307692307692307,3.4705668345367107
2.6505494505494505,3.5260278975576926
2.6703296703296706,3.5785266417967065
2.6901098901098903,3.6279889594049326
2.70989010989011,3.6743461676138605
2.7296703296703297,3.717534827918754
2.7494505494505495,3.757496595539067
2.769230769230769,3.794178094244625
2.7890109890109893,3.8275308124730065
2.808791208791209,3.8575110173559164
2.8285714285714287,3.8840796838470775
2.8483516483516484,3.907202436625659
2.8681318681318677,3.9268495028538393
2.887912087912088,3.9429956742110304
2.9076923076923076,3.9556202769218363
2.9274725274725273,3.9647071487507146
2.947252747252747,3.970244622160988
2.9670329670329667,3.97222551303813
2.986813186813187,3.970647114560782
3.0065934065934066,3.965511195975809
3.0263736263736263,3.9568240061992053
3.046153846153846,3.9445962823275957
3.0659340659340657,3.9288432633111525
3.085714285714286,3.9095847092113236
3.1054945054945056,3.8868449266514995
3.1252747252747253,3.8606528012716104
3.145054945054945,3.8310418382231233
3.1648351648351647,3.798050211998536
3.184615384615385,3.761720827185369
3.2043956043956046,3.722101392080442
3.2241758241758243,3.6792445075076095
3.243956043956044,3.6332077736657533
3.2637362637362637,3.5840539184124824
3.2835164835164834,3.531850951085002
3.3032967032967036,3.4766723468007794
3.3230769230769233,3.418597267202174
3.342857142857143,3.357710824853832
3.3626373626373627,3.2941044000231927
3.3824175824175824,3.2278760204396444
3.4021978021978025,3.159130816919283
3.4219780219780223,3.0879815705611215
3.441758241758242,3.0145493706924675
3.4615384615384617,2.93896440701434
3.481318681318681,2.861366924652521
3.501098901098901,2.781908377258423
3.520879120879121,2.700752821151232
3.5406593406593405,2.6180786029706433
3.5604395604395602,2.5340804045963945
3.58021978021978,2.4489717222368523
3.5999999999999996,2.362987871362334
3.61978021978022,2.2763896247694104
3.6395604395604395,2.189467605688563
3.659340659340659,2.1025475678450056
3.679120879120879,2.0159966930024655
3.6989010989010986,1.9302310119346726
3.718681318681319,1.845723987215569
3.7384615384615385,1.7630161543242648
3.758241758241758,1.6827254546830295
3.7780219780219784,1.6055574475742773
3.7978021978021976,1.53231388686775
3.8175824175824173,1.463897145509696
3.8373626373626375,1.4013067132420265
3.8571428571428568,1.3456227527983344
3.876923076923077,1.2979711356485855
3.896703296703296,1.2594656016385124
3.916483516483517,1.2311269431701939
3.936263736263736,1.2137867867292065
3.956043956043956,1.207992720913698
3.9758241758241755,1.2139375045798229
3.9956043956043956,1.2314326555130943
4.015384615384615,1.2599346401009752
4.035164835164835,1.2986154837914918
4.054945054945055,1.346457527211885
4.0747252747252745,1.4023495985047358
4.094505494505494,1.4651678400581425
4.114285714285715,1.5338335967047039
4.134065934065934,1.6073484454482485
4.153846153846154,1.6848107081713626
4.173626373626373,1.7654190178330291
4.193406593406594,1.8484679490783695
4.213186813186813,1.933339486902856
4.232967032967033,2.019492851096789
4.252747252747253,2.1064541918664945
4.2725274725274724,2.193806971146063
4.292307692307692,2.2811833973225544
4.312087912087913,2.3682570180089213
4.331868131868132,2.4547364333799386
4.351648351648352,2.5403600248327645
4.371428571428571,2.624891568982194
4.391208791208792,2.708116605489648
4.410989010989011,2.7898394371207624
4.43076923076923,2.8698806549759968
4.450549450549451,2.9480750973913787
4.4703296703296695,3.0242701657365822
4.49010989010989,3.0983244334517837
4.50989010989011,3.1701064959270546
4.52967032967033,3.239494018288445
4.549450549450549,3.3063729459882225
4.569230769230769,3.370636849525709
4.589010989010989,3.4321863798717493
4.608791208791209,3.490928815437718
4.628571428571428,3.5467776848970822
4.648351648351649,3.599652452983344
4.6681318681318675,3.6494782586771404
4.687912087912088,3.696185697058318
4.707692307692308,3.739710637619225
4.7274725274725276,3.7799940730789015
4.747252747252747,3.816981993758698
4.767032967032967,3.8506252834204315
4.786813186813187,3.8808796331640902
4.806593406593407,3.907705470560401
4.826373626373626,3.931067901677323
4.846153846153847,3.9509366640673194
4.8659340659340655,3.9672860891276986
4.885714285714286,3.980095072543558
4.905494505494506,3.989347051780185
4.9252747252747255,3.9950299898186614
4.945054945054945,3.9971363645316966
4.964835164835165,3.995663163282757
4.984615384615385,3.9906118825052737
5.004395604395604,3.981988532186287
5.024175824175824,3.9698036453435877
5.043956043956045,3.9540722927530614
5.0637362637362635,3.934814103357789
5.083516483516483,3.912053290977315
5.103296703296703,3.8858186881407906
5.123076923076923,3.8561437880961464
5.142857142857143,3.8230667963080496
5.162637362637362,3.7866306930571745
5.182417582417583,3.7468833091033553
5.2021978021978015,3.7038774167873445
5.221978021978022,3.6576708394356205
5.241758241758242,3.6083265825177246
5.2615384615384615,3.555912990709664
5.281318681318681,3.5005039358674064
5.301098901098901,3.4421790419462557
5.320879120879121,3.3810239541594664
5.340659340659341,3.317130661204941
5.36043956043956,3.2505978812704455
5.380219780219781,3.181531524837619
5.3999999999999995,3.1100452501443487
5.41978021978022,3.0362611306583847
5.43956043956044,2.960310458210738
5.4593406593406595,2.8823347107122834
5.479120879120879,2.802486719830926
5.498901098901099,2.720932081858417
5.518681318681319,2.637850864457278
5.538461538461538,2.5534396732130404
5.558241758241758,2.46791415495106
5.578021978021979,2.381512029342476
5.5978021978021975,2.294496755574898
5.617582417582418,2.2071619549001253
5.637362637362637,2.119836718936438
5.6571428571428575,2.032891930802358
5.676923076923077,1.9467476994907198
5.696703296703297,1.861881937430715
5.716483516483517,1.7788399655094531
5.736263736263735,1.698244762580166
5.756043956043956,1.6208070258934744
5.775824175824176,1.5473335068305152
5.795604395604395,1.4787310896991697
5.815384615384615,1.4160028443890103
5.835164835164835,1.3602310849801889
5.854945054945055,1.3125419649161576
5.874725274725275,1.274047427838184
5.894505494505494,1.2457646097450725
5.914285714285715,1.2285203723779805
5.934065934065933,1.222857605069104
5.953846153846154,1.2289656557372748
5.973626373626374,1.2466547056367785
5.993406593406593,1.2753819932295878
6.013186813186813,1.3143217599193273
6.032967032967033,1.362459002411716
6.052747252747253,1.4186847201857846
6.072527472527473,1.4818761551982487
6.092307692307692,1.5509544767949806
6.112087912087913,1.6249198979275894
6.131868131868131,1.7028684300187686
6.151648351648352,1.7839957362794365
6.171428571428572,1.8675930270501346
6.191208791208791,1.9530387411529533
6.210989010989011,2.0397885254796395
6.230769230769231,2.127365034818682
6.2505494505494505,2.2153483772644558
6.270329670329671,2.3033675838031638
6.29010989010989,2.391093215875301
6.309890109890111,2.478231080464817
6.329670329670329,2.5645169525558917
6.349450549450549,2.6497121784735187
6.36923076923077,2.7336000309342596
6.3890109890109885,2.8159826956886858
6.408791208791209,2.89667878360691
6.428571428571428,2.9755212772231827
6.4483516483516485,3.0523558352323112
6.468131868131868,3.127039391384434
6.487912087912088,3.199438995389101
6.507692307692308,3.2694308528425484
6.527472527472527,3.3368995289955037
6.547252747252747,3.401737287593848
6.567032967032967,3.4638435412678286
6.5868131868131865,3.523124394216302
6.606593406593407,3.5794922614054987
6.626373626373626,3.6328655513258448
6.6461538461538465,3.6831684016469666
6.665934065934065,3.730330458983058
6.685714285714286,3.7742866955085215
6.705494505494506,3.8149772564147773
6.725274725274725,3.8523473332264064
6.745054945054945,3.886347058841456
6.764835164835165,3.9169314208617734
6.7846153846153845,3.944060190362332
6.804395604395605,3.9676978637365363
6.824175824175824,3.9878136156657993
6.8439560439560445,4.004381261610976
6.863736263736263,4.017379228523083
6.883516483516484,4.026790532731325
6.903296703296704,4.032602764195778
6.923076923076923,4.034808076518169
6.942857142857143,4.0334031822923855
6.962637362637362,4.02838935355315
6.9824175824175825,4.019772427250767
7.002197802197802,4.007562815847728
7.021978021978022,3.991775523303322
7.041758241758242,3.9724301668901405
7.061538461538461,3.949551005477111
7.081318681318681,3.9231669751221285
7.101098901098901,3.8933117330508935
7.1208791208791204,3.8600237113635076
7.140659340659341,3.823346182116162
7.16043956043956,3.783327335781771
7.1802197802197805,3.740020375513354
7.199999999999999,3.693483630132392
7.21978021978022,3.643780689360204
7.23956043956044,3.590980565526454
7.259340659340659,3.5351578868537317
7.279120879120879,3.4763931284659275
7.298901098901099,3.4147728885446798
7.318681318681318,3.350390218616571
7.338461538461539,3.2833450188611066
7.358241758241758,3.213744511668496
7.3780219780219785,3.141703809548264
7.397802197802197,3.0673465970182074
7.417582417582418,2.990805950435026
7.437362637362638,2.9122253250375914
7.457142857142857,2.8317597449547502
7.476923076923077,2.7495772397932234
7.496703296703297,2.6658605808630313
7.516483516483516,2.5808093812594626
7.536263736263736,2.4946426368904953
7.556043956043957,2.4076017997907924
7.575824175824176,2.3199544897676967
7.595604395604395,2.2319989635523907
7.615384615384615,2.1440694682454757
7.635164835164835,2.05654260081521
7.654945054945055,1.9698447654346185
7.674725274725275,1.8844607453153106
7.694505494505494,1.800943253847834
7.7142857142857135,1.7199230552889802
7.734065934065935,1.6421187876449201
7.753846153846154,1.5683449153029438
7.7736263736263735,1.4995152502760785
7.793406593406592,1.4366382736532677
7.813186813186814,1.3807993533366916
7.832967032967034,1.3331245520200812
7.852747252747252,1.294722118160592
7.872527472527472,1.266602079981818
7.892307692307693,1.249581837183717
7.912087912087912,1.2441942824838526
7.931868131868132,1.2506202924305767
7.951648351648351,1.2686646494380724
7.971428571428572,1.2977827329634293
7.991208791208791,1.3371498065670107
8.010989010989011,1.385753434910151
8.03076923076923,1.4424873308150827
8.05054945054945,1.5062305678903527
8.07032967032967,1.5759047548470868
8.09010989010989,1.6505090786814773
8.10989010989011,1.7291372576460964
8.129670329670331,1.810981708094981
8.149450549450549,1.8953297634196364
8.169230769230769,1.9815556344218275
8.189010989010988,2.069110604512693
8.20879120879121,2.1575129829824773
8.22857142857143,2.246338651695469
8.248351648351647,2.335212596011391
8.268131868131867,2.423801544973136
8.287912087912087,2.511807699437203
8.307692307692308,2.5989634548731386
8.327472527472528,2.685026997287685
8.347252747252746,2.769778646510027
8.367032967032966,2.853017828993527
8.386813186813187,2.934560575449744
8.406593406593407,3.0142374532339233
8.426373626373627,3.0918918574997103
8.446153846153845,3.167378597844417
8.465934065934066,3.2405627281705334
8.485714285714286,3.3113185767922304
8.505494505494505,3.3795289415594296
8.525274725274725,3.445084421154751
8.545054945054945,3.5078828589457585
8.564835164835165,3.56782888004131
8.584615384615384,3.624833505675172
8.604395604395604,3.678813831869216
8.624175824175826,3.7296927616328723
8.643956043956043,3.7773987818352723
8.663736263736263,3.8218657774225555
8.683516483516483,3.8630328769120696
8.703296703296704,3.900844324129519
8.723076923076924,3.935249372009113
8.742857142857142,3.966202194983866
8.762637362637362,3.993661817082176
8.782417582417583,4.0175920533400316
8.802197802197803,4.03796146255416
8.821978021978023,4.054743309755098
8.84175824175824,4.067915537083195
8.86153846153846,4.077460742014477
8.881318681318682,4.083366162116695
8.901098901098901,4.085623665724949
8.920879120879121,4.084229748118291
8.940659340659339,4.079185532958554
8.96043956043956,4.070496778925941
8.98021978021978,4.05817389165733
9.0,4.042231941267799
9.01978021978022,4.0226906859176
9.03956043956044,3.999574602082901
9.05934065934066,3.9729129224020476
9.079120879120879,3.942739682208931
9.098901098901099,3.9090937761372255
9.11868131868132,3.872019026492952
9.138461538461538,3.8315642654589874
9.158241758241758,3.7877834336260503
9.178021978021977,3.740735697856009
9.197802197802199,3.690485592094429
9.217582417582419,3.637103185482905
9.237362637362637,3.5806642830074065
9.257142857142856,3.521250664992023
9.276923076923078,3.458950373052237
9.296703296703297,3.3938580517133357
9.316483516483517,3.3260753568445534
9.336263736263735,3.2557114444416295
9.356043956043957,3.182883556210482
9.375824175824176,3.1077177219849355
9.395604395604396,3.030349603397867
9.415384615384616,2.9509255085858435
9.435164835164835,2.8696036142311696
9.454945054945055,2.7865554391279526
9.474725274725275,2.701967622876724
9.494505494505495,2.616044074371399
9.514285714285714,2.529008567377446
9.534065934065934,2.441107874301058
9.553846153846154,2.352615543158256
9.573626373626373,2.263836434552914
9.593406593406593,2.175112140960422
9.613186813186815,2.0868274022921827
9.632967032967032,1.9994175968453751
9.652747252747252,1.9133773046504272
9.672527472527472,1.8292697791003354
9.692307692307693,1.7477368770145216
9.712087912087913,1.6695085287224438
9.731868131868131,1.5954101190751289
9.75164835164835,1.526365171614455
9.771428571428572,1.463389562415421
9.791208791208792,1.4075724456002239
9.810989010989012,1.3600388165869168
9.83076923076923,1.3218902058617532
9.850549450549451,1.2941244139409407
9.87032967032967,1.2775425392772544
9.89010989010989,1.2726597466969225
9.90989010989011,1.2796409230536163
9.92967032967033,1.2982792016968854
9.94945054945055,1.3280237963802384
9.96923076923077,1.368048765809088
9.989010989010989,1.4173437635709785
10.008791208791209,1.474805905306725
10.028571428571428,1.5393173570114247
10.048351648351648,1.6098015300907
10.068131868131868,1.6852577582062627
10.08791208791209,1.764778310106748
10.107692307692307,1.8475528398901773
10.127472527472527,1.9328649611322468
10.147252747252747,2.0200845450244045
10.167032967032966,2.10865819568223
10.186813186813188,2.198099415977601
10.206593406593406,2.287979304763496
10.226373626373626,2.377918187720369
10.246153846153845,2.4675783191063965
10.265934065934067,2.5566576438706003
10.285714285714286,2.6448845354643744
10.305494505494504,2.7320133942809774
10.325274725274724,2.8178209856264607
10.345054945054946,2.902103402634605
10.364835164835165,2.984673551648806
10.384615384615385,3.06535907144294
10.404395604395603,3.144000611222135
10.424175824175824,3.220450404684935
10.443956043956044,3.2945710881878982
10.463736263736264,3.3662347201957594
10.483516483516484,3.435321966840659
10.503296703296703,3.501721424732168
10.523076923076923,3.565329057349443
10.542857142857143,3.6260477255922785
10.562637362637362,3.6837867965333277
10.582417582417584,3.7384618172408364
10.602197802197802,3.789994242848016
10.621978021978022,3.838311209929717
10.641758241758241,3.883345347789768
10.661538461538463,3.9250346215280354
10.681318681318682,3.963322201797992
10.7010989010989,3.9981563570260903
