Frequency (Hz),Amplitude
0.0,7.12832593728421
0.019801980198019802,7.1247975070614435
0.039603960396039604,7.114215709856291
0.0594059405940594,7.096591022647693
0.07920792079207921,7.07194089570338
0.09900990099009901,7.040289735548903
0.1188118811881188,7.001668881154323
0.13861386138613863,6.956116573368228
0.15841584158415842,6.903677917638725
0.1782178217821782,6.844404840069187
0.19801980198019803,6.7783560368671125
0.21782178217821782,6.70559691725402
0.2376237623762376,6.626199539915725
0.25742574257425743,6.540242543083535
0.27722772277227725,6.447811068350451
0.297029702970297,6.348996678340742
0.31683168316831684,6.243897268367541
0.33663366336633666,6.132616972232886
0.3564356435643564,6.015266062346859
0.37623762376237624,5.891960844370094
0.39603960396039606,5.762823546617644
0.4158415841584158,5.627982204504405
0.43564356435643564,5.487570540365864
0.45544554455445546,5.341727839057951
0.4752475247524752,5.190598819831239
0.495049504950495,5.034333505097591
0.5148514851485149,4.873087086874136
0.5346534653465347,4.707019791919256
0.5544554455445545,4.536296746897284
0.5742574257425742,4.3610878453667805
0.594059405940594,4.1815676190497255
0.613861386138614,3.997915116813586
0.6336633663366337,3.8103137962599893
0.6534653465346534,3.6189514350481473
0.6732673267326733,3.4240200725751713
0.6930693069306931,3.2257159982286994
0.7128712871287128,3.0242398116266154
0.7326732673267327,2.8197965958437328
0.7524752475247525,2.612596271935649
0.7722772277227723,2.402854252793453
0.7920792079207921,2.1907926089719485
0.8118811881188118,1.976642148616345
0.8316831683168316,1.7606462167636414
0.8514851485148516,1.5430679416103412
0.8712871287128713,1.3242049614695834
0.891089108910891,1.1044221141956283
0.9108910891089109,0.8842334262761885
0.9306930693069307,0.6645470774907924
0.9504950495049505,0.44762315420505006
0.9702970297029703,0.24303114900105524
0.99009900990099,0.13522057051066147
1.00990099009901,0.2796406390787764
1.0297029702970297,0.48844598216307683
1.0495049504950495,0.7062585999345682
1.0693069306930694,0.9261985310647086
1.0891089108910892,1.1464272540103622
1.108910891089109,1.366147580886728
1.1287128712871286,1.5848846262657474
1.1485148514851484,1.8022901961060027
1.1683168316831685,2.018074730862286
1.188118811881188,2.231979441984069
1.2079207920792079,2.443763518548691
1.227722772277228,2.653197745249508
1.2475247524752475,2.8600611238332743
1.2673267326732673,3.0641390125599894
1.2871287128712872,3.265222081419628
1.3069306930693068,3.4631057283010778
1.3267326732673268,3.6575897666411197
1.3465346534653466,3.848478278493425
1.3663366336633662,4.035579571187412
1.3861386138613863,4.2187062002269675
1.405940594059406,4.397675035143473
1.4257425742574257,4.572307353368485
1.4455445544554455,4.74242895229644
1.4653465346534653,4.90787027291103
1.4851485148514851,5.068466530407089
1.504950495049505,5.224057848591032
1.5247524752475248,5.374489395747256
1.5445544554455446,5.519611520274796
1.5643564356435644,5.659279884826486
1.5841584158415842,5.793355597984087
1.6039603960396038,5.9217053427195
1.6237623762376237,6.044201501048657
1.6435643564356437,6.160722274400987
1.6633663366336633,6.271151799314329
1.683168316831683,6.375380258130981
1.7029702970297032,6.473303984422686
1.7227722772277227,6.56482556291148
1.7425742574257426,6.649853923687052
1.7623762376237624,6.728304430546393
1.782178217821782,6.800098963304538
1.801980198019802,6.865165993943042
1.8217821782178218,6.923440656479564
1.8415841584158414,6.974864810455528
1.8613861386138615,7.019387097952148
1.881188118811881,7.056962994056346
1.900990099009901,7.087554850708891
1.920792079207921,7.111131933877354
1.9405940594059405,7.1276704540059175
1.9603960396039604,7.137153589703334
1.98019801980198,7.139571504639406
2.0,7.134921357628893
2.01980198019802,7.123207305890622
2.0396039603960396,7.104440501478011
2.0594059405940595,7.078639080885864
2.0792079207920793,7.045828147846838
2.099009900990099,7.006039749339855
2.118811881188119,6.9593128448415404
2.1386138613861387,6.905693268861035
2.1584158415841586,6.845233686808016
2.1782178217821784,6.777993544253913
2.1980198019801978,6.704039009656636
2.217821782178218,6.623442910631009
2.237623762376238,6.536284663859106
2.257425742574257,6.442650198748953
2.2772277227722775,6.342631874965311
2.297029702970297,6.2363283939746
2.3168316831683167,6.123844704766461
2.336633663366337,6.005291903940087
2.3564356435643563,5.880787130373596
2.376237623762376,5.75045345473217
2.3960396039603964,5.614419764118818
2.4158415841584158,5.472820642231602
2.4356435643564356,5.325796245471136
2.455445544554456,5.173492175546297
2.4752475247524752,5.016059349267406
2.495049504950495,4.853653866407367
2.514851485148515,4.686436876777314
2.5346534653465347,4.51457444803615
2.5544554455445545,4.338237436285821
2.5742574257425743,4.1576013622773305
2.594059405940594,3.9728462971934766
2.6138613861386135,3.7841567636917506
2.633663366336634,3.591721660527459
2.6534653465346536,3.395734223217018
2.673267326732673,3.1963920398619425
2.6930693069306932,2.9938971522655318
2.712871287128713,2.788456291242856
2.7326732673267324,2.5802813281352996
2.7524752475247527,2.3695900852920455
2.7722772277227725,2.156607764907243
2.792079207920792,1.9415694916248427
2.811881188118812,1.7247249727454428
2.8316831683168315,1.506347460526501
2.8514851485148514,1.286752208167532
2.8712871287128716,1.0663382189822197
2.891089108910891,0.8456958089412472
2.910891089108911,0.625940934718284
2.9306930693069306,0.41010715956161187
2.9504950495049505,0.21277427701970453
2.9702970297029703,0.1535339639944771
2.99009900990099,0.32125114808420246
3.00990099009901,0.5327999241928887
3.0297029702970297,0.7516029853009205
3.0495049504950495,0.9722205441064008
3.0693069306930694,1.193028262900335
3.089108910891089,1.4132777723295176
3.108910891089109,1.632507774344499
3.128712871287129,1.8503739703871878
3.148514851485148,2.06658760225712
3.1683168316831685,2.2808896186496934
3.1881188118811883,2.4930385823082024
3.2079207920792077,2.702804547675574
3.227722772277228,2.909965781792826
3.2475247524752473,3.114306941291237
3.267326732673267,3.3156180403553916
3.2871287128712874,3.513693869684035
3.3069306930693068,3.708333683111792
3.3267326732673266,3.8993410484064297
3.346534653465347,4.086523801476017
3.366336633663366,4.2696940670476415
3.386138613861386,4.448668322661033
3.4059405940594063,4.623267491052696
3.4257425742574257,4.793317051064529
3.4455445544554455,4.958647160400795
3.4653465346534653,5.119092785615143
3.485148514851485,5.274493836065594
3.504950495049505,5.424695299486553
3.5247524752475248,5.56954737745021
3.5445544554455446,5.7089056194231365
3.564356435643564,5.842631054430577
3.5841584158415842,5.9705903195606576
3.603960396039604,6.092655784701407
3.6237623762376234,6.208705673021697
3.6435643564356437,6.318624176796504
3.6633663366336635,6.4223015682448
3.683168316831683,6.519634305100812
3.702970297029703,6.6105251306810535
3.722772277227723,6.69488316824262
3.7425742574257423,6.772624009455517
3.762376237623762,6.843669796834163
3.7821782178217824,6.907949299992534
3.801980198019802,6.965397985603883
3.8217821782178216,7.015958080960316
3.841584158415842,7.0595786310410995
3.8613861386138613,7.096215549009666
3.881188118811881,7.125831660070991
3.9009900990099013,7.148396738631015
3.9207920792079207,7.163887538709557
3.9405940594059405,7.172287817567802
3.96039603960396,7.173588352520391
3.98019801980198,7.167786950911357
4.0,7.154888453241739
4.01980198019802,7.134904729445788
4.03960396039604,7.107854668321369
4.0594059405940595,7.073764160129148
4.079207920792079,7.032666072384311
4.099009900990099,6.984600218873763
4.118811881188119,6.929613321941618
4.138613861386139,6.867758968095816
4.158415841584159,6.799097556999432
4.178217821782178,6.72369624392175
4.198019801980198,6.641628875736781
4.217821782178218,6.55297592057049
4.237623762376238,6.457824391213732
4.257425742574258,6.356267762435386
4.2772277227722775,6.248405882350955
4.297029702970297,6.134344878026017
4.316831683168317,6.014197055523597
4.336633663366336,5.8880807946403255
4.356435643564357,5.75612043862158
4.376237623762377,5.6184461792028895
4.3960396039603955,5.475193937398786
4.415841584158416,5.326505240557206
4.435643564356436,5.172527096326121
4.455445544554455,5.013411864352917
4.475247524752476,4.8493171267750075
4.4950495049504955,4.680405558890309
4.514851485148514,4.506844801862871
4.534653465346535,4.32880733998605
4.554455445544555,4.1464703859985885
4.574257425742574,3.9600157793898156
4.594059405940594,3.7696299048072226
4.613861386138614,3.5755036410360606
4.633663366336633,3.3778323563131942
4.653465346534653,3.1768159742945747
4.673267326732674,2.9726591492189196
4.693069306930693,2.7655716131991763
4.712871287128713,2.555768801893239
4.732673267326733,2.3434729449077416
4.752475247524752,2.1289149624488526
4.772277227722772,1.9123378270436202
4.792079207920793,1.6940027412126242
4.811881188118812,1.4742011133071327
4.8316831683168315,1.2532795460968358
4.851485148514852,1.0316974549470095
4.871287128712871,0.8101796070921695
4.891089108910891,0.5902094818911594
4.910891089108912,0.3762136385560658
4.930693069306931,0.19190472393908042
4.9504950495049505,0.18623511448262556
4.97029702970297,0.3676455399019372
4.99009900990099,0.5813076883092756
5.00990099009901,0.8013717755965929
5.02970297029703,1.023153185295019
5.0495049504950495,1.2451116429431728
5.069306930693069,1.466503990445517
5.089108910891089,1.686862983008285
5.108910891089109,1.9058378000469742
5.128712871287129,2.1231342174834946
5.148514851485149,2.338488788867996
5.1683168316831685,2.551656517119301
5.188118811881188,2.762404512994532
5.207920792079208,2.970508551845836
5.227722772277227,3.1757511344603606
5.247524752475248,3.377920373935199
5.267326732673268,3.5768093579278974
5.2871287128712865,3.7722157953160265
5.306930693069307,3.963941838568785
5.326732673267327,4.151794017544971
5.346534653465346,4.335583245395117
5.366336633663367,4.515124871784608
5.3861386138613865,4.690238767389499
5.405940594059405,4.8607494290148106
5.425742574257426,5.0264860981034625
5.445544554455446,5.18728288762017
5.465346534653465,5.342978913759821
5.485148514851486,5.493418429918011
5.504950495049505,5.638450961039377
5.524752475247524,5.777931436932082
5.544554455445545,5.911720323472038
5.564356435643565,6.039683750861129
5.584158415841584,6.161693638279794
5.603960396039604,6.277627814404467
5.623762376237624,6.387370133358133
5.643564356435643,6.490810585736848
5.663366336633663,6.587845404412994
5.683168316831684,6.678377164861304
5.702970297029703,6.762314879790043
5.7227722772277225,6.839574087889448
5.742574257425743,6.910076936534001
5.762376237623762,6.973752258295698
5.782178217821782,7.030535641143364
5.801980198019803,7.080369492218875
5.821782178217822,7.123203095094526
5.841584158415841,7.158992660429048
5.861386138613861,7.1877013699508945
5.881188118811881,7.209299413708583
5.900990099009901,7.223764020538186
5.920792079207921,7.231079481707794
5.9405940594059405,7.231237167708593
5.96039603960396,7.224235538171457
5.98019801980198,7.210080144897406
6.0,7.188783627999397
6.01980198019802,7.160365705162398
6.03960396039604,7.124853154038246
6.0594059405940595,7.082279787801291
6.079207920792079,7.0326864239010725
6.099009900990099,6.976120846058846
6.118811881188119,6.912637759565661
6.138613861386139,6.842298739951856
6.158415841584159,6.76517217511074
6.178217821782178,6.681333200973376
6.198019801980198,6.590863630847606
6.217821782178218,6.493851878552409
6.237623762376237,6.390392875500184
6.257425742574258,6.280587981904277
6.2772277227722775,6.164544892318927
6.297029702970296,6.042377535755815
6.316831683168317,5.91420597066636
6.336633663366337,5.780156275136718
6.356435643564356,5.640360432715408
6.376237623762377,5.494956214389633
6.396039603960396,5.344087057351673
6.415841584158415,5.187901941365813
6.435643564356436,5.026555263774272
6.455445544554456,4.860206714495209
6.475247524752475,4.689021152803723
6.495049504950495,4.513168488307383
6.514851485148515,4.332823569419738
6.534653465346534,4.1481660839388725
6.554455445544554,3.9593804782771764
6.574257425742575,3.7666559048294443
6.594059405940594,3.570186211518289
6.6138613861386135,3.370169994767479
6.633663366336634,3.166810748869134
6.653465346534653,2.9603171642906227
6.673267326732673,2.75090366124492
6.693069306930694,2.5387913052572366
6.712871287128713,2.3242093640381363
6.732673267326732,2.1073979850067595
6.752475247524753,1.8886129275258485
6.772277227722772,1.6681342880087475
6.792079207920792,1.4462835583961562
6.811881188118813,1.223459705778202
6.8316831683168315,1.000223990838769
6.851485148514851,0.7775306855544452
6.871287128712871,0.5575025999894728
6.891089108910891,0.3470556200759795
6.910891089108911,0.1851880677290319
6.930693069306931,0.22970263578267658
6.9504950495049505,0.4193479843221958
6.97029702970297,0.6349392097290127
6.99009900990099,0.856633318716215
7.00990099009901,1.0801082050152395
7.02970297029703,1.3038192341333799
7.0495049504950495,1.526994467261465
7.069306930693069,1.7491439012822552
7.089108910891089,1.9699005743249522
7.108910891089109,2.1889587101547194
7.128712871287128,2.4060463062325783
7.148514851485149,2.62091177527722
7.1683168316831685,2.833316957286605
7.188118811881187,3.0430332674272407
7.207920792079208,3.249839493366747
7.227722772277228,3.4535205086625114
7.247524752475247,3.6538665183881243
7.267326732673268,3.85067262587502
7.287128712871287,4.043738599375324
7.306930693069306,4.2328687664460825
7.326732673267327,4.417871991614937
7.346534653465347,4.598561709167258
7.366336633663366,4.7747559927368615
7.3861386138613865,4.946277649496363
7.405940594059406,5.112954330635507
7.425742574257425,5.274618652348533
7.445544554455446,5.43110832323397
7.465346534653466,5.58226627514763
7.485148514851485,5.727940795333059
7.504950495049505,5.867985658201147
7.524752475247524,6.00226025551935
7.544554455445544,6.1306297240513405
7.564356435643565,6.252965069892458
7.584158415841584,6.369143288897911
7.603960396039604,6.479047482714874
7.623762376237624,6.582566970016096
7.643564356435643,6.67959739259998
7.663366336633663,6.770040816074599
7.683168316831684,6.853805824885125
7.702970297029703,6.930807611478082
7.7227722772277225,7.0009680594239505
7.742574257425743,7.064215820342848
7.762376237623762,7.120486384498599
7.782178217821782,7.169722144943372
7.801980198019803,7.211872455110739
7.821782178217822,7.246893679769193
7.841584158415841,7.274749239260319
7.861386138613862,7.295409646958124
7.881188118811881,7.308852539896935
7.900990099009901,7.315062702526297
7.92079207920792,7.314032083561019
7.9405940594059405,7.305759805905455
7.96039603960396,7.2902521696404685
7.980198019801979,7.2675226480718935
8.0,7.237591876849493
8.01980198019802,7.200487636175517
8.03960396039604,7.156244826133024
8.05940594059406,7.1049054351750955
8.07920792079208,7.046518501827899
8.099009900990099,6.981140069673512
8.118811881188119,6.908833135691969
8.138613861386139,6.829667592057177
8.158415841584159,6.74372016149899
8.178217821782178,6.651074326362307
8.198019801980198,6.55182025151747
8.217821782178218,6.446054701302441
8.237623762376238,6.333880950709075
8.257425742574258,6.215408691064822
8.277227722772277,6.090753930509099
8.297029702970297,5.960038889623968
8.316831683168317,5.823391892655246
8.336633663366337,5.680947254860023
8.356435643564357,5.53284516664586
8.376237623762377,5.379231575339817
8.396039603960396,5.220258065657041
8.415841584158416,5.056081740254446
8.435643564356436,4.886865102191392
8.455445544554456,4.712775941729254
8.475247524752476,4.533987230769883
8.495049504950495,4.350677029484076
8.514851485148515,4.163028411517335
8.534653465346535,3.9712294169013473
8.554455445544555,3.7754730459717742
8.574257425742575,3.575957314080006
8.594059405940595,3.3728853972071913
8.613861386138613,3.1664659154404644
8.633663366336634,2.9569134295877904
8.653465346534654,2.7444492753566334
8.673267326732672,2.529302948025357
8.693069306930694,2.3117144167607333
8.712871287128714,2.0919380755394688
8.732673267326732,1.8702497221259957
8.752475247524753,1.6469594865411799
8.772277227722773,1.4224373443335476
8.792079207920791,1.1971678354479336
8.811881188118813,0.9718811952221742
8.831683168316832,0.7479194033317043
8.85148514851485,0.5285093586059847
8.871287128712872,0.32492176991536614
8.891089108910892,0.19729221627500812
8.91089108910891,0.2823711691813244
8.930693069306932,0.4774283227207407
8.950495049504951,0.6950163931555171
8.97029702970297,0.918776586250713
8.990099009900991,1.1445140596552605
9.00990099009901,1.370614956718397
9.029702970297029,1.5962494049869287
9.04950495049505,1.8208886691090491
9.06930693069307,2.0441398737213348
9.089108910891088,2.265679226520529
9.10891089108911,2.485221617552162
9.12871287128713,2.7025054911465474
9.148514851485148,2.9172847927178642
9.16831683168317,3.1293244581022828
9.188118811881187,3.3383977922001895
9.207920792079207,3.5442849090452526
9.227722772277229,3.746771794686044
9.247524752475247,3.945649749119287
9.267326732673267,4.140715066115175
9.287128712871288,4.331768866208295
9.306930693069306,4.518617030367458
9.326732673267326,4.701070200901261
9.346534653465348,4.878943827742795
9.366336633663366,5.052058245495089
9.386138613861386,5.220238771250072
9.405940594059407,5.38331581622086
9.425742574257425,5.541125006245738
9.445544554455445,5.6935073075923075
9.465346534653467,5.8403091554361115
9.485148514851485,5.981382583051528
9.504950495049505,6.116585350224611
9.524752475247526,6.245781069738122
9.544554455445544,6.3688393310284654
9.564356435643564,6.485635820298607
9.584158415841586,6.5960524365101625
9.603960396039604,6.699977402783214
9.623762376237623,6.797305372813861
9.643564356435645,6.887937531983452
9.663366336633663,6.971781692883735
9.683168316831683,7.048752385023067
9.702970297029704,7.118770938512337
9.722772277227723,7.181765561556551
9.742574257425742,7.237671411602056
9.762376237623764,7.286430660009429
9.782178217821782,7.327992550139666
9.801980198019802,7.362313448757449
9.821782178217823,7.389356890669455
9.841584158415841,7.40909361652915
9.861386138613861,7.42150160375177
9.881188118811881,7.426566090495244
9.900990099009901,7.424279592674096
9.92079207920792,7.4146419139849655
9.94059405940594,7.397660148932822
9.96039603960396,7.373348678859029
9.98019801980198,7.341729160982885
10.0,7.302830510480712
10.01980198019802,7.256688875638276
10.03960396039604,7.203347606125571
10.05940594059406,7.142857214456685
10.07920792079208,7.075275330712657
10.099009900990099,7.000666650622006
10.118811881188119,6.91910287711207
10.138613861386139,6.830662655466245
10.158415841584159,6.735431502246413
10.178217821782178,6.633501728169622
10.198019801980198,6.524972355162974
10.217821782178218,6.4099490278630835
10.237623762376238,6.288543919879431
10.257425742574258,6.1608756352063105
10.277227722772277,6.027069105251722
10.297029702970297,5.887255482058662
10.316831683168317,5.741572028433621
10.336633663366337,5.5901620058809804
10.356435643564357,5.433174561487041
10.376237623762377,5.270764615228504
10.396039603960396,5.103092749633127
10.415841584158416,4.930325104348243
10.435643564356436,4.752633279054796
10.455445544554454,4.570194249422486
10.475247524752476,4.383190302622401
10.495049504950495,4.191809001594058
10.514851485148514,3.9962431912802368
10.534653465346535,3.7966910661806397
10.554455445544555,3.5933563281567453
10.574257425742573,3.386448478733882
10.594059405940595,3.1761833152730077
10.613861386138614,2.962783742836662
10.633663366336632,2.746481087705029
10.653465346534654,2.527517232896754
10.673267326732674,2.3061481504167705
10.693069306930692,2.0826499109772527
10.712871287128714,1.8573293192149558
10.732673267326733,1.6305437358179127
10.752475247524751,1.402740585913799
10.772277227722773,1.1745432726028548
10.792079207920793,0.9469608119282874
10.81188118811881,0.7219863172903086
10.831683168316832,0.5047287987761102
