Frequency (Hz),Amplitude
0.0,0.2450452787372494
0.019867549668874173,0.24783044851689404
0.039735099337748346,0.25599367678054463
0.059602649006622516,0.26901582598847584
0.07947019867549669,0.28618754568778626
0.09933774834437085,0.3067518114562889
0.11920529801324503,0.3300025273144037
0.13907284768211922,0.3553309619689797
0.15894039735099338,0.3822351465881463
0.17880794701986755,0.4103102503590137
0.1986754966887417,0.43923228502935363
0.2185430463576159,0.4687415143850858
0.23841059602649006,0.49862810324320883
0.2582781456953642,0.5287205963137176
0.27814569536423844,0.558877009138234
0.2980132450331126,0.5889780653893698
0.31788079470198677,0.618922103988443
0.33774834437086093,0.6486212503599632
0.3576158940397351,0.6779985324051089
0.3774834437086093,0.7069856991216511
0.3973509933774834,0.7355215618661249
0.4172185430463576,0.7635507255444718
0.4370860927152318,0.791022612117705
0.45695364238410596,0.8178907045304344
0.4768211920529801,0.844111957919602
0.49668874172185434,0.869646338619909
0.5165562913907285,0.89445646145502
0.5364238410596026,0.918507303113877
0.5562913907284769,0.9417659747978967
0.5761589403973509,0.9642015413170232
0.5960264900662252,0.9857848767899132
0.6158940397350993,1.0064885493386537
0.6357615894039735,1.0262867288572584
0.6556291390728477,1.045155113217781
0.6754966887417219,1.063070869261254
0.695364238410596,1.080012585678758
0.7152317880794702,1.0959602354753635
0.7350993377483444,1.1108951461685934
0.7549668874172186,1.1247999762329963
0.7748344370860927,1.1376586965872557
0.7947019867549668,1.1494565761462083
0.8145695364238411,1.1601801706416173
0.8344370860927152,1.1698173140609653
0.8543046357615894,1.1783571121721743
0.8741721854304636,1.1857899376986414
0.8940397350993378,1.1921074267886693
0.9139072847682119,1.197302476489771
0.9337748344370861,1.2013692429940945
0.9536423841059603,1.204303140468658
0.9735099337748344,1.206100840325583
0.9933774834437087,1.2067602708235845
1.0132450331125828,1.206280616925116
1.033112582781457,1.2046623203638056
1.0529801324503312,1.201907079905854
1.0728476821192052,1.1980178518176707
1.0927152317880795,1.192998850580735
1.1125827814569538,1.1868555499250124
1.1324503311258278,1.1795946842847636
1.1523178807947019,1.1712242508164705
1.1721854304635762,1.161753512159278
1.1920529801324504,1.1511930001651565
1.2119205298013245,1.139554520880635
1.2317880794701985,1.1268511611272194
1.2516556291390728,1.1130972971055726
1.271523178807947,1.098308605543001
1.2913907284768211,1.0825020780200243
1.3112582781456954,1.0656960392538637
1.3311258278145695,1.0479101702941476
1.3509933774834437,1.029165537806947
1.370860927152318,1.0094846309013839
1.390728476821192,0.988891407304676
1.410596026490066,0.9674113511394457
1.4304635761589404,0.945071545130364
1.4503311258278146,0.9219007608072229
1.4701986754966887,0.8979295712306222
1.4900662251655628,0.8731904920199438
1.5099337748344372,0.8477181581104127
1.5298013245033113,0.8215495458463672
1.5496688741721854,0.7947242529220286
1.5695364238410596,0.7672848525760801
1.5894039735099337,0.7392773437028042
1.609271523178808,0.7107517256804098
1.6291390728476822,0.6817627364605101
1.6490066225165563,0.652370805822775
1.6688741721854303,0.6226432940648434
1.6887417218543048,0.592656111647971
1.7086092715231789,0.5624958498874107
1.728476821192053,0.5322625995750958
1.7483443708609272,0.5020736963147012
1.7682119205298013,0.47206870949197216
1.7880794701986755,0.4424160812932663
1.8079470198675496,0.4133219017486887
1.8278145695364238,0.385041315082847
1.847682119205298,0.3578928468055385
1.8675496688741722,0.3322752118478092
1.8874172185430464,0.3086843459095217
1.9072847682119205,0.28772470084221186
1.9271523178807946,0.2701028540876571
1.9470198675496688,0.25658524009578854
1.9668874172185429,0.24790315437527424
1.9867549668874174,0.2446097373118909
2.0066225165562916,0.24693602789188634
2.0264900662251657,0.2547216218891068
2.0463576158940397,0.2674637656042196
2.066225165562914,0.2844533531642652
2.086092715231788,0.30492285455317486
2.1059602649006623,0.3281513516388856
2.1258278145695364,0.3535153894574405
2.1456953642384105,0.38050041281351515
2.165562913907285,0.40869162490900723
2.185430463576159,0.4377574483366946
2.205298013245033,0.4674324655070555
2.2251655629139075,0.49750260188807294
2.2450331125827816,0.5277932199580327
2.2649006622516556,0.5581599166133532
2.2847682119205297,0.5884815452682987
2.3046357615894038,0.6186549681867284
2.324503311258278,0.6485911172867529
2.3443708609271523,0.6782120314219231
2.364238410596027,0.7074486188106218
2.384105960264901,0.7362389580010129
2.403973509933775,0.7645270000060339
2.423841059602649,0.7922615707384056
2.443708609271523,0.8193955995740708
2.463576158940397,0.8458855193010338
2.4834437086092715,0.8716907968410041
2.5033112582781456,0.8967735644312449
2.52317880794702,0.9210983284926132
2.543046357615894,0.9446317389568766
2.562913907284768,0.9673424059314062
2.5827814569536423,0.9892007536374772
2.6026490066225163,1.0101789038509605
2.622516556291391,1.0302505828045934
2.642384105960265,1.0493910468257834
2.662251655629139,1.067577022989493
2.6821192052980134,1.084786661839822
2.7019867549668874,1.1009994998336732
2.7218543046357615,1.1161964296274518
2.741721854304636,1.1303596766948425
2.76158940397351,1.1434727810531087
2.781456953642384,1.1555205831057076
2.801324503311258,1.1664892127928346
2.821192052980132,1.1763660813898025
2.8410596026490067,1.1851398754127456
2.8609271523178808,1.1928005521897407
2.8807947019867552,1.199339336735349
2.9006622516556293,1.2047487196343463
2.9205298013245033,1.2090224556961682
2.9403973509933774,1.2121555631899632
2.9602649006622515,1.2141443235113294
2.9801324503311255,1.2149862811685723
3.0,1.2146802440090014
3.0198675496688745,1.2132262836362897
3.0397350993377485,1.2106257359986952
3.0596026490066226,1.2068812021561697
3.0794701986754967,1.2019965492629747
3.0993377483443707,1.195976911832108
3.119205298013245,1.1888286933798191
3.1390728476821192,1.180559568583666
3.1589403973509933,1.1711784861272552
3.1788079470198674,1.160695672450466
3.198675496688742,1.1491226366773193
3.218543046357616,1.1364721770570492
3.23841059602649,1.1227583893297588
3.2582781456953644,1.1079966775202135
3.2781456953642385,1.092203767775753
3.2980132450331126,1.0753977260031073
3.3178807947019866,1.0575979802306295
3.3377483443708607,1.0388253488378247
3.3576158940397347,1.019102076063892
3.3774834437086096,0.9984518765493685
3.3973509933774837,0.9768999911004165
3.4172185430463577,0.9544732564235409
3.437086092715232,0.9312001922987767
3.456953642384106,0.9071111105942615
3.47682119205298,0.8822382517472035
3.4966887417218544,0.8566159559438954
3.5165562913907285,0.8302808783620433
3.5364238410596025,0.8032722606797957
3.556291390728477,0.7756322748728363
3.576158940397351,0.7474064604816161
3.596026490066225,0.7186442835547519
3.615894039735099,0.6893998550900854
3.6357615894039736,0.6597328600259291
3.6556291390728477,0.6297097661049453
3.6754966887417218,0.599405407195656
3.695364238410596,0.5689050705039838
3.7152317880794703,0.5383072647737405
3.7350993377483444,0.5077274105631279
3.754966887417219,0.47730277638594937
3.774834437086093,0.4471990833471834
3.794701986754967,0.4176192988004693
3.814569536423841,0.3888151831561336
3.834437086092715,0.36110200813795895
3.854304635761589,0.334876229129196
3.8741721854304636,0.3106341880705987
3.8940397350993377,0.2889862575211987
3.9139072847682117,0.2706545285506117
3.9337748344370858,0.25643476130106935
3.9536423841059607,0.24710258341883848
3.9735099337748347,0.24326423034294709
3.993377483443709,0.24519793794322622
4.013245033112583,0.2527687640881893
4.033112582781457,0.26547158407069277
4.052980132450331,0.282573736280217
4.072847682119205,0.30327523993197764
4.0927152317880795,0.32682369556946017
4.112582781456953,0.35256985493138204
4.132450331125828,0.37997991805241943
4.152317880794702,0.4086254519240348
4.172185430463576,0.4381654608206947
4.19205298013245,0.46832807542224264
4.211920529801325,0.4988947829114021
4.231788079470199,0.5296878489857302
4.251655629139073,0.5605606596650529
4.271523178807947,0.5913904403602053
4.291390728476821,0.6220728083275938
4.311258278145695,0.6525177019376699
4.33112582781457,0.6826463313153796
4.3509933774834435,0.7123888835728559
4.370860927152318,0.7416827859309568
4.390728476821192,0.7704713827879374
4.410596026490066,0.7987029215704934
4.43046357615894,0.8263297703776212
4.450331125827815,0.8533078108147827
4.470198675496689,0.8795959641702683
4.490066225165563,0.905155819794651
4.509933774834438,0.9299513423528762
4.529801324503311,0.9539486403447315
4.549668874172186,0.9771157825144468
4.569536423841059,0.9994226519092563
4.589403973509934,1.0208408296939662
4.6092715231788075,1.0413435025964504
4.629139072847682,1.0609053891995575
4.649006622516556,1.079502681317991
4.66887417218543,1.0971129974851712
4.688741721854305,1.1137153461834632
4.708609271523179,1.1292900969244553
4.728476821192054,1.1438189576573015
4.748344370860927,1.1572849572754422
4.768211920529802,1.1696724322241627
4.788079470198675,1.1809670163970036
4.80794701986755,1.1911556336575813
4.827814569536423,1.2002264924444614
4.847682119205298,1.2081690820146838
4.867549668874172,1.2149741699625725
4.887417218543046,1.2206338007175273
4.9072847682119205,1.2251412947807767
4.927152317880794,1.2284912485089954
4.947019867549669,1.2306795342938266
4.966887417218543,1.2317033010228422
4.986754966887418,1.2315609747398197
5.006622516556291,1.2302522594524241
5.026490066225166,1.227778138063609
5.04635761589404,1.224140873430884
5.066225165562914,1.2193440095853916
5.086092715231788,1.2133923731719218
5.105960264900662,1.2062920752019015
5.125827814569536,1.1980505132456036
5.14569536423841,1.1886763742283266
5.1655629139072845,1.1781796380393967
5.185430463576159,1.166571582214542
5.205298013245033,1.1538647880132284
5.225165562913908,1.140073148286085
5.245033112582782,1.1252118776162696
5.264900662251656,1.109297525327477
5.28476821192053,1.0923479920851191
5.304635761589404,1.0743825509835077
5.324503311258278,1.0554218742198571
5.344370860927152,1.0354880667173498
5.364238410596027,1.0146047083908227
5.3841059602649,0.9927969071710886
5.403973509933775,0.9700913654455925
5.4238410596026485,0.9465164632729648
5.443708609271523,0.9221023626391375
5.463576158940397,0.8968811382135777
5.483443708609272,0.8708869416349502
5.503311258278146,0.8441562084401596
5.52317880794702,0.8167279195394631
5.543046357615895,0.7886439328960294
5.562913907284768,0.7599494061651025
5.582781456953643,0.7306933380118722
5.602649006622516,0.7009292654068859
5.622516556291391,0.6707161674560619
5.642384105960264,0.6401196447597283
5.662251655629139,0.6092134690145189
5.682119205298013,0.5780816334502566
5.701986754966887,0.5468210844997738
5.7218543046357615,0.515545383336329
5.741721854304636,0.4843896368062402
5.7615894039735105,0.453517151550903
5.781456953642384,0.42312839129071106
5.801324503311259,0.39347291072244445
5.821192052980132,0.3648648758821526
5.841059602649007,0.3377022635653584
5.860927152317881,0.31248824522098356
5.880794701986755,0.2898495561892899
5.900662251655629,0.27053973135305104
5.920529801324503,0.2554058759699946
5.940397350993377,0.24529391981500345
5.960264900662251,0.2408865134667494
5.980132450331126,0.24252017693963307
6.0,0.25007800535389135
6.0198675496688745,0.2630293102691381
6.039735099337749,0.2805885641049389
6.059602649006623,0.3018970473779409
6.079470198675497,0.32615181811131366
6.099337748344371,0.35266595901314324
6.119205298013245,0.3808799000852956
6.139072847682119,0.41034844935843673
6.158940397350993,0.4407200180131817
6.178807947019867,0.4717161307317929
6.198675496688741,0.5031141624849478
6.218543046357616,0.534733793297885
6.23841059602649,0.5664267421950618
6.258278145695365,0.5980691105366209
6.2781456953642385,0.6295557045035579
6.298013245033113,0.6607958246717108
6.317880794701987,0.6917101325263253
6.337748344370861,0.7222283056962885
6.357615894039735,0.7522872720180627
6.377483443708609,0.7818298703795467
6.397350993377484,0.8108038281848307
6.417218543046357,0.8391609753664483
6.437086092715232,0.866856636434496
6.456953642384105,0.8938491575330647
6.47682119205298,0.9200995366344832
6.496688741721854,0.9455711330916284
6.516556291390729,0.9702294386699788
6.5364238410596025,0.9940418965165041
6.556291390728477,1.0169777577294756
6.5761589403973515,1.0390079675837067
6.596026490066225,1.060105075259656
6.6158940397351,1.0802431622814022
6.635761589403973,1.0993977859009527
6.655629139072848,1.117545934458321
6.675496688741721,1.1346659923575668
6.695364238410596,1.1507377127739642
6.715231788079469,1.1657421965784351
6.735099337748344,1.17966187625784
6.754966887417219,1.1924805038409296
6.774834437086093,1.204183142024403
6.794701986754967,1.2147561578416208
6.814569536423841,1.2241872183361484
6.8344370860927155,1.232465287799768
6.854304635761589,1.2395806262147784
6.874172185430464,1.2455247886064673
6.894039735099337,1.2502906250674206
6.913907284768212,1.2538722812622967
6.933774834437086,1.2562651992624019
6.95364238410596,1.257466118594834
6.973509933774834,1.257473077423046
6.993377483443709,1.256285413804732
7.013245033112583,1.253903767000685
7.033112582781457,1.2503300788351648
7.052980132450331,1.2455675951352831
7.072847682119205,1.2396208673049152
7.0927152317880795,1.2324957541185564
7.112582781456954,1.2241994238534275
7.132450331125828,1.2147403569148714
7.152317880794702,1.2041283491526749
7.172185430463576,1.1923745161151165
7.19205298013245,1.179491298546425
7.211920529801324,1.1654924695033517
7.231788079470198,1.1503931435519112
7.251655629139073,1.1342097886094968
7.271523178807947,1.1169602411259991
7.291390728476822,1.0986637254574008
7.311258278145695,1.079340878484924
7.33112582781457,1.059013780784703
7.3509933774834435,1.0377059959720794
7.370860927152318,1.0154426202524294
7.390728476821192,0.9922503447341046
7.410596026490066,0.9681575337373646
7.430463576158941,0.9431943232165481
7.450331125827814,0.9173927445723189
7.470198675496689,0.8907868806639475
7.490066225165562,0.8634130628734168
7.509933774834438,0.8353101208139921
7.52980132450331,0.8065196999834577
7.549668874172186,0.777086667717092
7.569536423841059,0.7470596347417516
7.589403973509934,0.7164916292509831
7.6092715231788075,0.6854409738364068
7.629139072847682,0.6539724344431471
7.649006622516557,0.6221587370879939
7.66887417218543,0.5900825856754379
7.6887417218543055,0.5578393673951065
7.708609271523178,0.5255408067784507
7.728476821192054,0.49331993229423227
7.748344370860927,0.46133785559583873
7.768211920529802,0.42979302942210335
7.788079470198675,0.39893381302568837
7.80794701986755,0.3690752242136571
7.827814569536423,0.3406204031562859
7.847682119205298,0.31408588810874216
7.8675496688741715,0.2901260298784282
7.887417218543046,0.26954403062219273
7.907284768211921,0.25326509565860184
7.927152317880795,0.24223883129010176
7.9470198675496695,0.2372556142818339
7.966887417218543,0.23872531530494898
7.986754966887418,0.2465380248072262
8.006622516556291,0.2601046294140232
8.026490066225167,0.27854697540444456
8.046357615894038,0.30091410381812156
8.066225165562914,0.3263302046280264
8.086092715231787,0.35405830047411097
8.105960264900663,0.3835073627954763
8.125827814569536,0.4142135867010883
8.14569536423841,0.4458148642534458
8.165562913907285,0.47802702113385137
8.185430463576159,0.510624489153393
8.205298013245034,0.5434255210435619
8.225165562913906,0.5762812012934336
8.245033112582782,0.6090673769480357
8.264900662251655,0.641678749909208
8.28476821192053,0.6740245419372026
8.304635761589404,0.7060252971311567
8.324503311258278,0.7376105074411715
8.344370860927151,0.7687168361388992
8.364238410596027,0.7992867784412582
8.3841059602649,0.8292676441059039
8.403973509933774,0.8586107790711027
8.42384105960265,0.8872709660341057
8.443708609271523,0.9152059600728544
8.463576158940398,0.9423761269968131
8.483443708609272,0.9687441604422781
8.503311258278146,0.9942748597640134
8.52317880794702,1.0189349551827422
8.543046357615895,1.0426929698925396
8.562913907284768,1.0655191112387457
8.582781456953642,1.0873851848763472
8.602649006622515,1.1082645271737246
8.62251655629139,1.1281319521552629
8.642384105960264,1.1469637100621806
8.66225165562914,1.1647374552159275
8.682119205298013,1.181432221337568
8.701986754966887,1.1970284028420026
8.721854304635762,1.2115077409135817
8.741721854304636,1.2248533133965471
8.76158940397351,1.2370495277146023
8.781456953642383,1.248082116178704
8.801324503311259,1.257938133158986
8.821192052980132,1.2666059536919436
8.841059602649008,1.274075273171524
8.86092715231788,1.280337107837654
8.880794701986755,1.2853837958292509
8.90066225165563,1.289208998614612
8.920529801324504,1.291807702651289
8.940397350993377,1.2931762211618723
8.960264900662251,1.2933121959427576
8.980132450331126,1.2922145991511391
9.0,1.2898837350419672
9.019867549668875,1.2863212416522798
9.039735099337747,1.28153009245597
9.059602649006623,1.2755145980389553
9.079470198675496,1.268280407872911
9.099337748344372,1.259834512296926
9.119205298013245,1.2501852448513475
9.139072847682119,1.2393422851484939
9.158940397350994,1.2273166625112615
9.178807947019868,1.214120760666564
9.198675496688743,1.1997683238468742
9.218543046357615,1.1842744647341477
9.23841059602649,1.1676556747789903
9.258278145695364,1.1499298375502758
9.27814569536424,1.131116245922264
9.298013245033111,1.1112356240966337
9.317880794701987,1.0903101556970445
9.33774834437086,1.0683635194794094
9.357615894039736,1.0454209345915106
9.37748344370861,1.0215092178191174
9.397350993377483,0.9966568559088669
9.417218543046358,0.9708940969120325
9.437086092715232,0.9442530656172188
9.456953642384107,0.9167679096322711
9.47682119205298,0.8884749846707398
9.496688741721854,0.8594130902897684
9.516556291390728,0.8296237709861063
9.536423841059603,0.7991517025784105
9.556291390728477,0.7680451907525356
9.57615894039735,0.736356818348308
9.596026490066224,0.7041442916279789
9.6158940397351,0.6714715551640984
9.635761589403973,0.6384102727291986
9.655629139072847,0.6050418114858663
9.675496688741722,0.5714599243895387
9.695364238410596,0.5377744087741316
9.715231788079471,0.5041161377621134
9.735099337748345,0.47064402682940176
9.754966887417218,0.4375547176011013
9.774834437086092,0.4050960196685266
9.794701986754967,0.3735853631136693
9.814569536423841,0.34343440381096685
9.834437086092716,0.3151797689943248
9.854304635761588,0.28951614400501885
9.874172185430464,0.2673188191593739
9.894039735099337,0.2496265905214976
9.913907284768213,0.2375397987432861
9.933774834437086,0.2320022684318647
9.95364238410596,0.2335182055378912
9.973509933774835,0.2419646343313838
9.993377483443709,0.256641852203527
10.013245033112582,0.27652086408924464
10.033112582781456,0.3005141200338049
10.052980132450331,0.3276471400549515
10.072847682119205,0.35712128225048684
10.09271523178808,0.38831075954048155
10.112582781456952,0.4207338632418867
10.132450331125828,0.4540202303416446
10.152317880794701,0.4878825979394462
10.172185430463577,0.5220948914998743
10.192052980132452,0.5564760190783727
10.211920529801324,0.5908781310269587
10.2317880794702,0.625178171178835
10.251655629139073,0.6592717907579152
10.271523178807948,0.6930689415282164
10.29139072847682,0.7264906611645359
10.311258278145695,0.7594667084104695
10.331125827814569,0.7919338080390256
10.350993377483444,0.823834337032911
10.370860927152318,0.8551153328946104
10.390728476821192,0.8857277393292174
10.410596026490065,0.9156258284645677
10.43046357615894,0.9447667555491932
10.450331125827816,0.9731102139245964
10.470198675496688,1.0006181665182792
10.490066225165563,1.027254636178224
10.509933774834437,1.0529855415751745
10.529801324503312,1.0777785686218573
10.549668874172186,1.1016030697364394
10.56953642384106,1.1244299850466986
10.589403973509933,1.1462317809585547
10.609271523178808,1.1669824025157527
10.629139072847682,1.1866572367417372
10.649006622516556,1.2052330847410995
