Frequency (Hz),Amplitude
0.0,1.152979637569146
0.019867549668874173,1.1530644639097416
0.039735099337748346,1.1533186492102083
0.059602649006622516,1.1537413136556982
0.07947019867549669,1.1543309953725789
0.09933774834437085,1.155085657112683
0.11920529801324503,1.1560026955260916
0.13907284768211922,1.1570789529402443
0.15894039735099338,1.1583107315410661
0.17880794701986755,1.1596938098328622
0.1986754966887417,1.1612234612368828
0.2185430463576159,1.1628944746732413
0.23841059602649006,1.1647011769588624
0.2582781456953642,1.16663745684481
0.27814569536423844,1.1686967905089045
0.2980132450331126,1.1708722683160706
0.31788079470198677,1.1731566226566401
0.33774834437086093,1.1755422566742515
0.3576158940397351,1.178021273697818
0.3774834437086093,1.180585507197607
0.3973509933774834,1.183226551092368
0.4172185430463576,1.1859357902434529
0.4370860927152318,1.1887044309815271
0.45695364238410596,1.1915235315230335
0.4768211920529801,1.1943840321449624
0.49668874172185434,1.1972767849990325
0.5165562913907285,1.2001925834590899
0.5364238410596026,1.2031221909079757
0.5562913907284769,1.2060563688826615
0.5761589403973509,1.2089859045087115
0.5960264900662252,1.2119016371665674
0.6158940397350993,1.2147944843433467
0.6357615894039735,1.2176554666340342
0.6556291390728477,1.2204757318655872
0.6754966887417219,1.2232465783260238
0.695364238410596,1.2259594770884394
0.7152317880794702,1.2286060934267566
0.7350993377483444,1.2311783073262081
0.7549668874172186,1.2336682330962836
0.7748344370860927,1.2360682380988544
0.7947019867549668,1.2383709606069588
0.8145695364238411,1.24056932681306
0.8344370860927152,1.2426565670071854
0.8543046357615894,1.2446262309470881
0.8741721854304636,1.246472202442737
0.8940397350993378,1.248188713178352
0.9139072847682119,1.2497703557939503
0.9337748344370861,1.2512120962482807
0.9536423841059603,1.2525092854833275
0.9735099337748344,1.2536576704086366
0.9933774834437087,1.2546534042225568
1.0132450331125828,1.255493056084059
1.033112582781457,1.2561736201467408
1.0529801324503312,1.2566925239639692
1.0728476821192052,1.2570476362699232
1.0927152317880795,1.2572372741392353
1.1125827814569538,1.2572602095232854
1.1324503311258278,1.2571156751580317
1.1523178807947019,1.256803369834215
1.1721854304635762,1.256323463016497
1.1920529801324504,1.255676598794193
1.2119205298013245,1.2548638991415872
1.2317880794701985,1.2538869664616903
1.2516556291390728,1.252747885382562
1.271523178807947,1.2514492237705959
1.2913907284768211,1.2499940329207706
1.3112582781456954,1.2483858468791944
1.3311258278145695,1.2466286808480647
1.3509933774834437,1.2447270286194485
1.370860927152318,1.2426858589790997
1.390728476821192,1.240510611017258
1.410596026490066,1.2382071882798062
1.4304635761589404,1.2357819516888948
1.4503311258278146,1.2332417111588092
1.4701986754966887,1.2305937158302844
1.4900662251655628,1.2278456428443405
1.5099337748344372,1.2250055845744074
1.5298013245033113,1.2220820342363827
1.5496688741721854,1.2190838697953663
1.5695364238410596,1.2160203360905584
1.5894039735099337,1.2129010251022763
1.609271523178808,1.2097358542899967
1.6291390728476822,1.2065350429371073
1.6490066225165563,1.2033090864451275
1.6688741721854303,1.2000687285324112
1.6887417218543048,1.1968249313032027
1.7086092715231789,1.1935888431688366
1.728476821192053,1.190371764620029
1.7483443708609272,1.187185111869078
1.7682119205298013,1.1840403784026157
1.7880794701986755,1.180949094510976
1.8079470198675496,1.1779227848867322
1.8278145695364238,1.1749729244136216
1.847682119205298,1.1721108922985088
1.8675496688741722,1.1693479247302292
1.8874172185430464,1.1666950662823077
1.9072847682119205,1.1641631203099194
1.9271523178807946,1.1617625986232856
1.9470198675496688,1.1595036707519004
1.9668874172185429,1.1573961131431842
1.9867549668874174,1.1554492586654925
2.0066225165562916,1.1536719468090428
2.0264900662251657,1.1520724749959468
2.0463576158940397,1.1506585514241856
2.066225165562914,1.14943724987694
2.086092715231788,1.148414966929007
2.1059602649006623,1.1475973819753154
2.1258278145695364,1.146989420491684
2.1456953642384105,1.1465952209162453
2.165562913907285,1.146418105510498
2.185430463576159,1.146460555522197
2.205298013245033,1.14672419092926
2.2251655629139075,1.1472097549948095
2.2450331125827816,1.1479171038102498
2.2649006622516556,1.1488452009455121
2.2847682119205297,1.1499921172661922
2.3046357615894038,1.1513550359170057
2.324503311258278,1.1529302624102096
2.3443708609271523,1.154713239699888
2.364238410596027,1.1566985680670836
2.384105960264901,1.1588800295900614
2.403973509933775,1.16125061692794
2.423841059602649,1.1638025661061666
2.443708609271523,1.1665273929594746
2.463576158940397,1.1694159328618907
2.4834437086092715,1.1724583833549065
2.5033112582781456,1.1756443492735922
2.52317880794702,1.178962889966296
2.543046357615894,1.1824025682056385
2.562913907284768,1.1859515003976409
2.5827814569536423,1.18959740770898
2.6026490066225163,1.1933276677514943
2.622516556291391,1.19712936648513
2.642384105960265,1.200989350026165
2.662251655629139,1.204894276075242
2.6821192052980134,1.2088306647084779
2.7019867549668874,1.2127849483054183
2.7218543046357615,1.2167435204167854
2.741721854304636,1.220692783404887
2.76158940397351,1.2246191947176828
2.781456953642384,1.2285093116843415
2.801324503311258,1.2323498347458377
2.821192052980132,1.236127649056703
2.8410596026490067,1.2398298644158325
2.8609271523178808,1.2434438535026817
2.8807947019867552,1.2469572884121782
2.9006622516556293,1.2503581754957172
2.9205298013245033,1.2536348885281643
2.9403973509933774,1.2567762002306941
2.9602649006622515,1.259771312187557
2.9801324503311255,1.2626098832008639
3.0,1.2652820561324651
3.0198675496688745,1.2677784832846486
3.0397350993377485,1.2700903503729595
3.0596026490066226,1.2722093991449441
3.0794701986754967,1.274127948697466
3.0993377483443707,1.2758389155434964
3.119205298013245,1.277335832476306
3.1390728476821192,1.2786128662754033
3.1589403973509933,1.2796648342942338
3.1788079470198674,1.2804872199642434
3.198675496688742,1.28107618724475
3.218543046357616,1.2814285940413261
3.23841059602649,1.2815420046089712
3.2582781456953644,1.281414700948998
3.2781456953642385,1.2810456932006868
3.2980132450331126,1.2804347290209799
3.3178807947019866,1.2795823019362633
3.3377483443708607,1.2784896586416687
3.3576158940397347,1.2771588052134566
3.3774834437086096,1.2755925121902894
3.3973509933774837,1.2737943184682685
3.4172185430463577,1.2717685339442981
3.437086092715232,1.2695202408303903
3.456953642384106,1.2670552935503026
3.47682119205298,1.2643803171175034
3.4966887417218544,1.2615027038811817
3.5165562913907285,1.2584306085148274
3.5364238410596025,1.2551729411089934
3.556291390728477,1.2517393582177432
3.576158940397351,1.248140251696179
3.596026490066225,1.2443867351551565
3.615894039735099,1.2404906278486
3.6357615894039736,1.2364644357997114
3.6556291390728477,1.2323213299650546
3.6754966887417218,1.2280751212297112
3.695364238410596,1.2237402320245017
3.7152317880794703,1.219331664356694
3.7350993377483444,1.2148649640504714
3.754966887417219,1.2103561810023657
3.774834437086093,1.2058218252719093
3.794701986754967,1.201278818847969
3.814569536423841,1.196744442958893
3.834437086092715,1.192236280828927
3.854304635761589,1.1877721558262848
3.8741721854304636,1.183370064998543
3.8940397350993377,1.1790481080503357
3.9139072847682117,1.1748244118858258
3.9337748344370858,1.1707170509137703
3.9536423841059607,1.166743963395501
3.9735099337748347,1.162922864205432
3.993377483443709,1.159271154466995
4.013245033112583,1.155805828623455
4.033112582781457,1.1525433795996964
4.052980132450331,1.1494997028059042
4.072847682119205,1.1466899998229887
4.0927152317880795,1.1441286826903538
4.112582781456953,1.141829279784887
4.132450331125828,1.139804344333473
4.152317880794702,1.13806536663546
4.172185430463576,1.1366226910845205
4.19205298013245,1.1354854390688776
4.211920529801325,1.1346614387930118
4.231788079470199,1.1341571630016754
4.251655629139073,1.1339776755005084
4.271523178807947,1.134126587255467
4.291390728476821,1.134606022720604
4.311258278145695,1.1354165968915293
4.33112582781457,1.1365574034169317
4.3509933774834435,1.1380260139248666
4.370860927152318,1.1398184885420712
4.390728476821192,1.1419293974069817
4.410596026490066,1.1443518528069563
4.43046357615894,1.1470775514114704
4.450331125827815,1.1500968259318343
4.470198675496689,1.153398705415429
4.490066225165563,1.156970983284298
4.509933774834438,1.1608002921530467
4.529801324503311,1.1648721844125782
4.549668874172186,1.169171217541567
4.569536423841059,1.1736810431078704
4.589403973509934,1.1783844984435012
4.6092715231788075,1.1832637000176502
4.629139072847682,1.188300137589844
4.649006622516556,1.193474768295386
4.66887417218543,1.1987681098958314
4.688741721854305,1.2041603325138115
4.708609271523179,1.2096313482622671
4.728476821192054,1.215160898268922
4.748344370860927,1.2207286366871015
4.768211920529802,1.2263142113696521
4.788079470198675,1.2318973409638732
4.80794701986755,1.237457888259844
4.827814569536423,1.2429759296922154
4.847682119205298,1.2484318209550511
4.867549668874172,1.2538062587415193
4.887417218543046,1.2590803386643015
4.9072847682119205,1.2642356094494844
4.927152317880794,1.2692541235263395
4.947019867549669,1.2741184841585473
4.966887417218543,1.2788118892796865
4.986754966887418,1.283318172207738
5.006622516556291,1.287621839420553
5.026490066225166,1.2917081055775463
5.04635761589404,1.2955629259726418
5.066225165562914,1.2991730266002954
5.086092715231788,1.3025259320111255
5.105960264900662,1.305609991126167
5.125827814569536,1.3084144011697052
5.14569536423841,1.310929229870739
5.1655629139072845,1.3131454360718753
5.185430463576159,1.3150548888724551
5.205298013245033,1.316650385420789
5.225165562913908,1.3179256674572188
5.245033112582782,1.3188754366968016
5.264900662251656,1.3194953691269216
5.28476821192053,1.319782128281571
5.304635761589404,1.3197333775400115
5.324503311258278,1.319347791483134
5.344370860927152,1.3186250663263677
5.364238410596027,1.3175659294324937
5.3841059602649,1.3161721478922406
5.403973509933775,1.3144465361437274
5.4238410596026485,1.312392962585075
5.443708609271523,1.3100163551154063
5.463576158940397,1.3073227055213479
5.483443708609272,1.304319072604837
5.503311258278146,1.301013583926621
5.52317880794702,1.2974154360174257
5.543046357615895,1.2935348928836852
5.562913907284768,1.2893832826098035
5.582781456953643,1.2849729918317487
5.602649006622516,1.2803174578290226
5.622516556291391,1.275431157952952
5.642384105960264,1.2703295960802734
5.662251655629139,1.2650292857510914
5.682119205298013,1.2595477296216882
5.701986754966887,1.2539033948346419
5.7218543046357615,1.2481156838834482
5.741721854304636,1.2422049005266866
5.7615894039735105,1.2361922102892096
5.781456953642384,1.2300995950767692
5.801324503311259,1.223949801427571
5.821192052980132,1.217766281930685
5.841059602649007,1.2115731293609058
5.860927152317881,1.2053950031123875
5.880794701986755,1.199257047563812
5.900662251655629,1.1931848020761784
5.920529801324503,1.1872041024137714
5.940397350993377,1.1813409734901565
5.960264900662251,1.175621513475787
5.980132450331126,1.1700717694617457
6.0,1.1647176050546972
6.0198675496688745,1.1595845604794883
6.039735099337749,1.1546977059844867
6.059602649006623,1.150081489576203
6.079470198675497,1.1457595803475578
6.099337748344371,1.1417547089006614
6.119205298013245,1.138088506591588
6.139072847682119,1.1347813455298301
6.158940397350993,1.1318521814407982
6.178807947019867,1.1293184016323636
6.198675496688741,1.1271956803882208
6.218543046357616,1.1254978441316543
6.23841059602649,1.124236748657521
6.258278145695365,1.1234221706128067
6.2781456953642385,1.1230617152176894
6.298013245033113,1.123160741961392
6.317880794701987,1.1237223096876487
6.337748344370861,1.1247471421133146
6.357615894039735,1.1262336144134848
6.377483443708609,1.1281777610735693
6.397350993377484,1.1305733047693025
6.417218543046357,1.1334117056075108
6.437086092715232,1.136682229660193
6.456953642384105,1.1403720353658682
6.47682119205298,1.1444662760692437
6.496688741721854,1.1489482167296792
6.516556291390729,1.1537993626587268
6.5364238410596025,1.15899959804575
6.556291390728477,1.1645273320000662
6.5761589403973515,1.1703596498702151
6.596026490066225,1.176472467690909
6.6158940397351,1.1828406877452249
6.635761589403973,1.1894383534056046
6.655629139072848,1.1962388016192764
6.675496688741721,1.2032148116238572
6.695364238410596,1.2103387487064274
6.715231788079469,1.2175827020464192
6.735099337748344,1.2249186159015286
6.754966887417219,1.2323184136020573
6.774834437086093,1.2397541140074253
6.794701986754967,1.24719794024721
6.814569536423841,1.2546224207149195
6.8344370860927155,1.2620004824081699
6.854304635761589,1.2693055368107744
6.874172185430464,1.2765115585947489
6.894039735099337,1.2835931574829202
6.913907284768212,1.2905256436588939
6.933774834437086,1.2972850871411894
6.95364238410596,1.3038483715563502
6.973509933774834,1.3101932427519607
6.993377483443709,1.3162983526882133
7.013245033112583,1.3221432990367559
7.033112582781457,1.3277086609003035
7.052980132450331,1.3329760310466936
7.072847682119205,1.3379280450288198
7.0927152317880795,1.3425484075371508
7.112582781456954,1.3468219163058779
7.132450331125828,1.3507344838679403
7.152317880794702,1.3542731574277287
7.172185430463576,1.3574261370951541
7.19205298013245,1.3601827926995933
7.211920529801324,1.3625336793782468
7.231788079470198,1.36447055211054
7.251655629139073,1.365986379347921
7.271523178807947,1.3670753558671562
7.291390728476822,1.367732914954828
7.311258278145695,1.3679557400106475
7.33112582781457,1.367741775638008
7.3509933774834435,1.3670902382704087
7.370860927152318,1.3660016263635393
7.390728476821192,1.3644777301625413
7.410596026490066,1.3625216410339474
7.430463576158941,1.3601377603299654
7.450331125827814,1.3573318077306282
7.470198675496689,1.354110828984328
7.490066225165562,1.3504832029413933
7.509933774834438,1.3464586477463214
7.52980132450331,1.3420482260230104
7.549668874172186,1.3372643488527236
7.569536423841059,1.3321207783069147
7.589403973509934,1.3266326282555099
7.6092715231788075,1.3208163631262104
7.629139072847682,1.3146897942416604
7.649006622516557,1.3082720733084419
7.66887417218543,1.3015836825756628
7.6887417218543055,1.2946464211222521
7.708609271523178,1.2874833866697313
7.728476821192054,1.2801189522552174
7.748344370860927,1.2725787370364716
7.768211920529802,1.2648895704405296
7.788079470198675,1.257079448811316
7.80794701986755,1.2491774836643255
7.827814569536423,1.2412138406181372
7.847682119205298,1.2332196680525982
7.8675496688741715,1.2252270145412856
7.887417218543046,1.2172687341316006
7.907284768211921,1.2093783786017596
7.927152317880795,1.201590075918392
7.9470198675496695,1.1939383942557666
7.966887417218543,1.186458191124184
7.986754966887418,1.1791844473941244
8.006622516556291,1.1721520862981025
8.026490066225167,1.1653957778425754
8.046357615894038,1.1589497294670852
8.066225165562914,1.1528474642385798
8.086092715231787,1.1471215883575396
8.105960264900663,1.1418035502620147
8.125827814569536,1.1369233941292671
8.14569536423841,1.1325095110663899
8.165562913907285,1.1285883917278317
8.185430463576159,1.1251843844678415
8.205298013245034,1.122319463403619
8.225165562913906,1.1200130109035389
8.245033112582782,1.1182816190016915
8.264900662251655,1.1171389140622074
8.28476821192053,1.1165954086669994
8.304635761589404,1.1166583841832782
8.324503311258278,1.1173318067983062
8.344370860927151,1.118616279013046
8.364238410596027,1.1205090276990413
8.3841059602649,1.1230039288854399
8.403973509933774,1.1260915685005648
8.42384105960265,1.1297593373904236
8.443708609271523,1.1339915581181468
8.463576158940398,1.1387696403474716
8.483443708609272,1.1440722610603524
8.503311258278146,1.1498755654672241
8.52317880794702,1.156153384247383
8.543046357615895,1.1628774627002922
8.562913907284768,1.170017697484712
8.582781456953642,1.1775423768500792
8.602649006622515,1.1854184205998297
8.62251655629139,1.1936116164408566
8.642384105960264,1.2020868498400947
8.66225165562914,1.2108083250020294
8.682119205298013,1.219739775075893
8.701986754966887,1.2288446601797531
8.721854304635762,1.2380863522748056
8.741721854304636,1.2474283063264282
8.76158940397351,1.256834217541203
8.781456953642383,1.266268164769573
8.801324503311259,1.275694740409731
8.821192052980132,1.2850791673432413
8.841059602649008,1.2943874035800262
8.86092715231788,1.3035862353946033
8.880794701986755,1.3126433598018363
8.90066225165563,1.3215274572560225
8.920529801324504,1.3302082554654853
8.940397350993377,1.338656585203296
8.960264900662251,1.346844428966296
8.980132450331126,1.3547449632948814
9.0,1.3623325955176502
9.019867549668875,1.3695829956317909
9.039735099337747,1.376473123973523
9.059602649006623,1.3829812552767353
9.079470198675496,1.389086999660913
9.099337748344372,1.3947713210361534
9.119205298013245,1.400016553360646
9.139072847682119,1.4048064151382242
9.158940397350994,1.4091260224983189
9.178807947019868,1.412961901159462
9.198675496688743,1.4163019975395719
9.218543046357615,1.419135689241879
9.23841059602649,1.421453795114049
9.258278145695364,1.4232485850495886
9.27814569536424,1.424513789674672
9.298013245033111,1.4252446100397043
9.317880794701987,1.4254377274126906
9.33774834437086,1.4250913132507466
9.357615894039736,1.424205039405551
9.37748344370861,1.4227800885993729
9.397350993377483,1.4208191651874287
9.417218543046358,1.4183265062022736
9.437086092715232,1.4153078926533924
9.456953642384107,1.4117706610312035
9.47682119205298,1.407723714938465
9.496688741721854,1.4031775367422157
9.516556291390728,1.3981441991056085
9.536423841059603,1.3926373762218605
9.556291390728477,1.3866723545278878
9.57615894039735,1.380266042627108
9.596026490066224,1.3734369800940052
9.6158940397351,1.3662053447696916
9.635761589403973,1.3585929580863672
9.655629139072847,1.3506232878781865
9.675496688741722,1.3423214480472527
9.695364238410596,1.3337141943556752
9.715231788079471,1.324829915508465
9.735099337748345,1.3156986185782897
9.754966887417218,1.30635190770292
9.774834437086092,1.2968229548628745
9.794701986754967,1.2871464614224888
9.814569536423841,1.2773586089971294
9.834437086092716,1.2674969980991295
9.854304635761588,1.2576005729217394
9.874172185430464,1.2477095305521784
9.894039735099337,1.2378652128748082
9.913907284768213,1.228109979441893
9.933774834437086,1.2184870596691646
9.95364238410596,1.2090403828674252
9.973509933774835,1.199814384866549
9.993377483443709,1.1908537903338443
10.013245033112582,1.1822033703500259
10.033112582781456,1.1739076753837165
10.052980132450331,1.166010744506247
10.072847682119205,1.1585557924997043
10.09271523178808,1.151584877420633
10.112582781456952,1.145138552159058
10.132450331125828,1.1392555045405872
10.152317880794701,1.1339721915074144
10.172185430463577,1.1293224738241157
10.192052980132452,1.1253372585197063
10.211920529801324,1.1220441568337531
10.2317880794702,1.119467165718442
10.251655629139073,1.1176263809091496
10.271523178807948,1.1165377491810513
10.29139072847682,1.1162128666464322
10.311258278145695,1.116658828834107
10.331125827814569,1.1178781368716197
10.350993377483444,1.1198686624325556
10.370860927152318,1.1226236723060918
10.390728476821192,1.1261319115958168
10.410596026490065,1.1303777427687476
10.43046357615894,1.1353413361527178
10.450331125827816,1.140998906108882
10.470198675496688,1.1473229860477296
10.490066225165563,1.1542827347526403
10.509933774834437,1.1618442661319415
10.529801324503312,1.1699709945254873
10.549668874172186,1.1786239880069176
10.56953642384106,1.1877623226955643
10.589403973509933,1.197343431859964
10.609271523178808,1.207323444492886
10.629139072847682,1.2176575090036383
10.649006622516556,1.2283000986495516
10.66887417218543,1.2392052962698643
10.688741721854305,1.2503270567546985
10.70860927152318,1.2616194464561727
