Time (s),Filtered Signal
0.0,0.0044981863869597745
0.033370165745856356,-0.42042268345971784
0.06674033149171271,-0.7159508841223454
0.10011049723756907,-0.7965659183631345
0.13348066298342542,-0.6482577352939111
0.16685082872928178,-0.32829647271287904
0.20022099447513814,0.06105470989135389
0.2335911602209945,0.4128471179679793
0.26696132596685085,0.6524738534940283
0.30033149171270723,0.7566739419623773
0.33370165745856356,0.7489075706831632
0.3670718232044199,0.6767042058310407
0.4004419889502763,0.5842550846749529
0.43381215469613266,0.49396555833577915
0.467182320441989,0.40420234510719893
0.5005524861878453,0.30108152945404326
0.5339226519337017,0.17510259062758143
0.5672928176795581,0.03220743608198347
0.6006629834254145,-0.10661172008184158
0.6340331491712707,-0.21583829016891068
0.6674033149171271,-0.27910582545295687
0.7007734806629835,-0.29780227186822944
0.7341436464088398,-0.28984005017040226
0.7675138121546962,-0.27968891884713715
0.8008839779005525,-0.28563345467046014
0.8342541436464089,-0.3114611825743141
0.8676243093922653,-0.3469220973310338
0.9009944751381216,-0.37611070505656274
0.934364640883978,-0.38839359312762217
0.9677348066298344,-0.38517412288865305
1.0011049723756906,-0.37836619630347035
1.0344751381215471,-0.3814338606632733
1.0678453038674034,-0.39833271477906557
1.1012154696132597,-0.4170346392944925
1.1345856353591162,-0.4117803950157172
1.1679558011049724,-0.35336603293554514
1.201325966850829,-0.22248698221750987
1.2346961325966852,-0.019751118034193358
1.2680662983425415,0.232112580015276
1.301436464088398,0.49447137064052055
1.3348066298342542,0.7244140113728248
1.3681767955801105,0.8869602393396914
1.401546961325967,0.963473333170555
1.4349171270718233,0.9539269265787984
1.4682872928176796,0.873191717396585
1.501657458563536,0.7435450958975386
1.5350276243093923,0.5866164584239122
1.5683977900552488,0.4177936874192338
1.601767955801105,0.2448628484408847
1.6351381215469614,0.07075893502740419
1.6685082872928179,-0.10152152475313081
1.7018784530386741,-0.26474499233455207
1.7352486187845306,-0.4064497207031238
1.768618784530387,-0.511877458982205
1.8019889502762432,-0.5694529194909134
1.8353591160220997,-0.576030868499458
1.868729281767956,-0.5391635912732284
1.9020994475138122,-0.4750628192038823
1.9354696132596687,-0.402996696479711
1.968839779005525,-0.33856470539547273
2.0022099447513813,-0.2888393818988469
2.0355801104972375,-0.2515035057806921
2.0689502762430942,-0.2182267502930904
2.1023204419889505,-0.18048114596125206
2.135690607734807,-0.13478870118915715
2.169060773480663,-0.08469450161874927
2.2024309392265193,-0.03850359163162206
2.235801104972376,-0.004145342325824672
2.2691712707182323,0.015838579347416414
2.3025414364640886,0.026214896665626524
2.335911602209945,0.03666042198261387
2.369281767955801,0.05631007235597236
2.402651933701658,0.08832086668057568
2.436022099447514,0.1275643726262076
2.4693922651933704,0.16279589538041442
2.5027624309392267,0.1821104301459721
2.536132596685083,0.17868525053326287
2.5695027624309392,0.1537883424179929
2.602872928176796,0.11576458549917097
2.636243093922652,0.07607598173292493
2.6696132596685085,0.04496345381024063
2.7029834254143648,0.029011070090681167
2.736353591160221,0.031154316683093316
2.7697237569060777,0.05183541721163914
2.803093922651934,0.08947415417169835
2.8364640883977903,0.1395653214650125
2.8698342541436466,0.19354665693428158
2.903204419889503,0.23949860646512233
2.936574585635359,0.26578718432466386
2.969944751381216,0.2664566639133749
3.003314917127072,0.24521051848590492
3.0366850828729284,0.21484249252886625
3.0700552486187846,0.19133914088308276
3.103425414364641,0.18521630764379735
3.1367955801104976,0.19477479177119567
3.170165745856354,0.20534187718759533
3.20353591160221,0.19544253615876758
3.2369060773480665,0.14706540525959433
3.2702762430939227,0.05497916434178347
3.3036464088397794,-0.06938674823969826
3.3370165745856357,-0.2011273862513608
3.370386740331492,-0.31031338602735603
3.4037569060773483,-0.3717842936900483
3.4371270718232045,-0.3724944849697931
3.4704972375690613,-0.31454656702679323
3.5038674033149175,-0.21427417002815427
3.537237569060774,-0.09882022011207972
3.57060773480663,-0.00122954240221876
3.6039779005524863,0.04592902659785235
3.6373480662983426,0.018550624350978012
3.6707182320441993,-0.09060818493056094
3.7040883977900556,-0.26630381179228513
3.737458563535912,-0.47188103110891866
3.770828729281768,-0.659043305579958
3.8041988950276244,-0.784025244990602
3.837569060773481,-0.8235300159460787
3.8709392265193374,-0.7823645886121052
3.9043093922651937,-0.687858403002785
3.93767955801105,-0.572867067743477
3.9710497237569062,-0.4559396140299696
4.0044198895027625,-0.3299317836746569
4.037790055248619,-0.16673043253133907
4.071160220994475,0.06288471248675645
4.104530386740332,0.3643644652060015
4.1379005524861885,0.7039083593998443
4.171270718232044,1.013125052660133
4.204640883977901,1.2142705373532376
4.238011049723757,1.2548876747883797
4.271381215469614,1.1343346402544026
4.30475138121547,0.9076283711643728
4.338121546961326,0.6631418242326489
4.371491712707183,0.48417584255593493
4.404861878453039,0.4129676793867612
4.438232044198895,0.43462495443513754
4.471602209944752,0.48836402647514354
4.504972375690608,0.49970891070467305
4.538342541436465,0.4171749716028163
4.5717127071823205,0.23551761372134197
4.605082872928177,-0.004740261701166468
4.638453038674034,-0.23941969258389464
4.67182320441989,-0.41184945017564817
4.7051933701657465,-0.49711831346594376
4.738563535911602,-0.5084042577701042
4.771933701657459,-0.48441013459935467
4.805303867403316,-0.4664267059170206
4.8386740331491715,-0.4776529889890447
4.872044198895028,-0.5146270851307497
4.905414364640884,-0.5532594423197204
4.938784530386741,-0.5644300529876002
4.972154696132597,-0.5302561209824356
5.005524861878453,-0.4532405277043647
5.03889502762431,-0.35506729894807026
5.072265193370166,-0.26689495294955584
5.105635359116023,-0.2161534271283813
5.1390055248618784,-0.21526196813010803
5.172375690607735,-0.2560923684700584
5.205745856353592,-0.3116908695844456
5.239116022099448,-0.3446184902360978
5.272486187845304,-0.31952301687871226
5.30585635359116,-0.21625049620491713
5.339226519337017,-0.039174514926245324
5.372596685082874,0.1810775121221526
5.4059668508287295,0.39533916260035135
5.439337016574586,0.551609841753572
5.472707182320442,0.6136844372606918
5.506077348066299,0.5753642638134361
5.5394475138121555,0.4635860121612752
5.572817679558011,0.32792885999205235
5.606187845303868,0.220099107963778
5.639558011049724,0.17215317835085533
5.672928176795581,0.18343151178798758
5.706298342541437,0.2224005840734446
5.739668508287293,0.24258797905630888
5.77303867403315,0.20515459161695912
5.806408839779006,0.09773575520842462
5.839779005524862,-0.058745820096246675
5.873149171270718,-0.21785468238603833
5.906519337016575,-0.32608171783401396
5.939889502762432,-0.34373504088733486
5.9732596685082875,-0.2596304055406467
6.006629834254144,-0.09418037490292556
6.04,0.10929724024297156
6.073370165745857,0.30046770293832237
6.1067403314917135,0.43817714703447624
6.140110497237569,0.5009153312012912
6.173480662983426,0.4886908108859448
6.206850828729282,0.4173259592409133
6.240220994475139,0.3090278218136173
6.273591160220995,0.18389597622475537
6.306961325966851,0.055670906754664004
6.340331491712708,-0.06769635246237762
6.373701657458564,-0.18071092055414417
6.40707182320442,-0.27740759196767334
6.440441988950277,-0.35102979205315377
6.473812154696133,-0.3962428751952771
6.50718232044199,-0.41189476561331967
6.5405524861878455,-0.4020891947611427
6.573922651933702,-0.37476200949588456
6.607292817679559,-0.33882089612529165
6.640662983425415,-0.30178324051845756
6.674033149171271,-0.26915611036973347
6.707403314917127,-0.24518330446857686
6.740773480662984,-0.2333454193408029
6.774143646408841,-0.23517016260371082
6.8075138121546965,-0.24749326364014085
6.840883977900553,-0.26019347774623336
6.874254143646409,-0.25708016106404247
6.907624309392266,-0.2211931583379559
6.9409944751381225,-0.14287756072803592
6.974364640883978,-0.02645715112689839
7.007734806629835,0.10891822344562348
7.041104972375691,0.23598927890750984
7.074475138121548,0.33107335696607876
7.107845303867403,0.38474644355104254
7.14121546961326,0.4054359651095599
7.174585635359117,0.41345075585636143
7.207955801104973,0.42841584692800644
7.241325966850829,0.4571246932376187
7.274696132596685,0.48888921896428345
7.308066298342542,0.5013070063992598
7.341436464088399,0.4733135736951746
7.3748066298342545,0.39800925662105374
7.408176795580111,0.287696520284851
7.441546961325967,0.16797527011873967
7.474917127071824,0.06412649768024413
7.5082872928176805,-0.012344009071245197
7.541657458563536,-0.06900852859551812
7.575027624309393,-0.126262413022629
7.608397790055249,-0.2028341461301467
7.641767955801106,-0.30136427551207196
7.675138121546962,-0.4026541758285456
7.708508287292818,-0.4725446475802448
7.741878453038675,-0.47839457911058103
7.775248618784531,-0.4067105259152071
7.808618784530387,-0.272616143782218
7.841988950276244,-0.11594780797590848
7.8753591160221,0.014473595272275638
7.908729281767957,0.08100535672360838
7.9420994475138125,0.07237250263181434
7.975469613259669,0.007058620757709981
8.008839779005525,-0.07625497157007215
8.042209944751383,-0.13642482358624528
8.075580110497238,-0.147517906014616
8.108950276243094,-0.10861764960819108
8.14232044198895,-0.04189189226718892
8.175690607734808,0.01946638057922413
8.209060773480664,0.0473440555220305
8.24243093922652,0.031310541511861426
8.275801104972377,-0.017768948384116853
8.309171270718233,-0.07414704473350706
8.342541436464089,-0.11003945320354976
8.375911602209946,-0.1086481764216668
8.409281767955802,-0.07147754177186792
8.442651933701658,-0.01698256252362708
8.476022099447514,0.028484123767798405
8.509392265193371,0.043253757877505364
8.542762430939227,0.020940491132604117
8.576132596685083,-0.025577843671184968
8.60950276243094,-0.06871592321637328
8.642872928176796,-0.07760452563076392
8.676243093922652,-0.0316497753817212
8.709613259668508,0.06966154860362446
8.742983425414366,0.20516512766179149
8.776353591160222,0.33955070003216503
8.809723756906077,0.43688558574753594
8.843093922651935,0.47433078388536676
8.87646408839779,0.45023410828750593
8.909834254143647,0.38335157575022855
8.943204419889504,0.30381863731147485
8.97657458563536,0.2399146913676422
9.009944751381216,0.20626806553526056
9.043314917127072,0.1984258835826111
9.07668508287293,0.19602510054906788
9.110055248618785,0.1731491252373855
9.143425414364641,0.11122020823494572
9.176795580110499,0.008387313545404658
9.210165745856354,-0.11925715834191884
9.24353591160221,-0.24540667942150554
9.276906077348068,-0.346284901261523
9.310276243093924,-0.4115222675815695
9.34364640883978,-0.4470686066065914
9.377016574585635,-0.46850375685688
9.410386740331493,-0.4888058287452766
9.443756906077349,-0.5081060299512861
9.477127071823205,-0.5119249463469047
9.510497237569062,-0.4793407916969411
9.543867403314918,-0.3965189607546838
9.577237569060774,-0.26769689136094416
9.610607734806631,-0.11704966237519847
9.643977900552487,0.020026830506886376
9.677348066298343,0.1118736065096207
9.710718232044199,0.14422018835307904
9.744088397790057,0.12592385828608088
9.777458563535912,0.08439407732818748
9.810828729281768,0.05328112150921667
9.844198895027626,0.05826794288743208
9.877569060773482,0.10709483235343281
9.910939226519337,0.187592852707899
9.944309392265193,0.2738812240550071
9.97767955801105,0.33759847341399823
10.011049723756907,0.35927713357474167
10.044419889502763,0.3352361771474364
10.07779005524862,0.27744202426236025
10.111160220994476,0.2068485380639241
10.144530386740332,0.14352797473362622
10.17790055248619,0.09820695694667025
10.211270718232045,0.06896827258061378
10.244640883977901,0.04425711277163084
10.278011049723757,0.010284112080989474
10.311381215469615,-0.040980472895801194
10.34475138121547,-0.10691626109024296
10.378121546961326,-0.17435207424960494
10.411491712707184,-0.22418122731437917
10.44486187845304,-0.23828952928683977
10.478232044198895,-0.20607500734327255
10.511602209944753,-0.12840166881988388
10.544972375690609,-0.017949316792892946
10.578342541436465,0.10391731173757976
10.61171270718232,0.21272571093405201
10.645082872928178,0.28731821897966053
10.678453038674034,0.3153225256090744
10.71182320441989,0.29607724623054726
10.745193370165747,0.24004549316559812
10.778563535911603,0.1647412643166582
10.811933701657459,0.08836560447638506
10.845303867403315,0.023356653159098743
10.878674033149172,-0.02756338356691536
10.912044198895028,-0.07091603290535768
10.945414364640884,-0.11737728641533023
10.978784530386742,-0.17414054673585969
11.012154696132598,-0.23849151119308223
11.045524861878453,-0.29634659596068363
11.078895027624311,-0.32738402238290365
11.112265193370167,-0.3149556856313885
11.145635359116023,-0.25600476466890404
11.179005524861878,-0.1655551629931882
11.212375690607736,-0.07265672926039803
11.245745856353592,-0.008919817161086797
11.279116022099448,0.005281131177715866
11.312486187845305,-0.029654441105855144
11.345856353591161,-0.09209812980236493
11.379226519337017,-0.14844984153358043
11.412596685082875,-0.16813372143086763
11.44596685082873,-0.1375404780688179
11.479337016574586,-0.06644382140758912
11.512707182320442,0.016225563641253073
11.5460773480663,0.07550524795511424
11.579447513812156,0.08657559461210546
11.612817679558011,0.04668943644944224
11.646187845303869,-0.022563807715923114
11.679558011049725,-0.08377157307835144
11.71292817679558,-0.09933501715648088
11.746298342541436,-0.047501403875030816
11.779668508287294,0.06797588254428574
11.81303867403315,0.2183982553444874
11.846408839779006,0.3603088017531064
11.879779005524863,0.4508166532025587
11.91314917127072,0.46190896073185345
11.946519337016575,0.38867462674249975
11.979889502762433,0.24936249089530174
12.013259668508288,0.07852177748353943
12.046629834254144,-0.08339567297157942
12.08,-0.20033849438301754
12.113370165745858,-0.24844200253971457
12.146740331491714,-0.2204282274497701
12.18011049723757,-0.12664168311490623
12.213480662983427,0.0072217500064528746
12.246850828729283,0.14580459325889011
12.280220994475139,0.2528340625068235
12.313591160220996,0.3012174510225881
12.346961325966852,0.28129391529149833
12.380331491712708,0.2036921111889387
12.413701657458564,0.09487007829363903
12.447071823204421,-0.013355857005808738
12.480441988950277,-0.09581814964370325
12.513812154696133,-0.1419715959667812
12.54718232044199,-0.15622548538323516
12.580552486187846,-0.15116310023980103
12.613922651933702,-0.13812298721006033
12.64729281767956,-0.12094537239371211
12.680662983425416,-0.09648860047489229
12.714033149171271,-0.061080822185380614
12.747403314917127,-0.018152425078826195
12.780773480662985,0.01860004765110747
12.81414364640884,0.029417738633242003
12.847513812154697,-0.0017476837000882485
12.880883977900554,-0.07739323153725874
12.91425414364641,-0.18243737162572837
12.947624309392266,-0.28869317404282413
12.980994475138122,-0.36572106573304
13.01436464088398,-0.3924555853413761
13.047734806629835,-0.36388949173913976
13.081104972375691,-0.290238088069466
13.114475138121549,-0.190257535852259
13.147845303867404,-0.08311171544788462
13.18121546961326,0.017008181649902095
13.214585635359118,0.10179776226425016
13.247955801104974,0.16646917970859654
13.28132596685083,0.20682938840790732
13.314696132596685,0.218183452575831
13.348066298342543,0.1968482331942327
13.381436464088399,0.14340746371029528
13.414806629834255,0.0659479852159827
13.448176795580112,-0.018496819949601118
13.481546961325968,-0.0855519440395714
13.514917127071824,-0.10863759869407805
13.548287292817681,-0.06705132182495877
13.581657458563537,0.045035489784641274
13.615027624309393,0.21209295889619217
13.648397790055249,0.39702414675057124
13.681767955801106,0.5493615964900906
13.715138121546962,0.6205293719274361
13.748508287292818,0.5810509334382006
13.781878453038676,0.4326494608143565
13.815248618784532,0.20953439653396871
13.848618784530387,-0.03249454981810727
13.881988950276245,-0.23514701032876134
13.9153591160221,-0.3572440593554685
13.948729281767957,-0.38690796273896605
13.982099447513813,-0.34184368379238045
14.01546961325967,-0.25856077374250563
14.048839779005526,-0.17602098666225538
14.082209944751382,-0.1209670910507706
14.11558011049724,-0.10052399449131204
14.148950276243095,-0.10377768866474857
14.182320441988951,-0.11009375356111822
14.215690607734807,-0.09974479412499833
14.249060773480664,-0.06251256921017823
14.28243093922652,-0.001597206880125522
14.315801104972376,0.06779088198002084
14.349171270718234,0.12418619156279082
14.38254143646409,0.14801328187870363
14.415911602209945,0.12958822865358186
14.449281767955803,0.07422292834153424
14.482651933701659,0.0021093930864121784
14.516022099447515,-0.05789410003605125
14.54939226519337,-0.07908614333228066
14.582762430939228,-0.04843181951017659
14.616132596685084,0.026314026584313446
14.64950276243094,0.11775756642521908
14.682872928176797,0.18874197188936506
14.716243093922653,0.20717950531898924
14.749613259668509,0.15927790379986573
14.782983425414367,0.054954980742425545
14.816353591160222,-0.07713004906960227
14.849723756906078,-0.20231798570051604
14.883093922651934,-0.29390716645040144
14.916464088397792,-0.34135744649406075
14.949834254143648,-0.3492684315869696
14.983204419889503,-0.3291041298556599
15.016574585635361,-0.28974301752834425
15.049944751381217,-0.23310863150716848
15.083314917127073,-0.15725588619537048
15.116685082872928,-0.06394270229688807
15.150055248618786,0.03544740891319544
15.183425414364642,0.12058430845416385
15.216795580110498,0.16979517855641257
15.250165745856355,0.1701553564030369
15.283535911602211,0.12401508085874069
15.316906077348067,0.04833088173109631
15.350276243093925,-0.032341151738329424
15.38364640883978,-0.09490630104353191
15.417016574585636,-0.12418568308132187
15.450386740331492,-0.11448368358117587
15.48375690607735,-0.06717039685507634
15.517127071823205,0.012889177766551482
15.550497237569061,0.11944384558857722
15.583867403314919,0.24468922331194545
15.617237569060775,0.37797113719367154
15.65060773480663,0.5052987463345706
15.683977900552488,0.6108189444457298
15.717348066298344,0.679750123634923
15.7507182320442,0.7010795542185678
15.784088397790056,0.6685581597177783
15.817458563535913,0.5800179848015307
15.85082872928177,0.43655616211134224
15.884198895027625,0.2432915175780304
15.917569060773483,0.01183998980115255
15.950939226519338,-0.237507594963173
15.984309392265194,-0.476818120300787
16.01767955801105,-0.6761838550463519
16.051049723756908,-0.8122973570079388
16.084419889502765,-0.8756220959391067
16.11779005524862,-0.8719419697800641
16.151160220994477,-0.8171247545651917
16.18453038674033,-0.7280272154482212
16.21790055248619,-0.614831003803853
16.251270718232046,-0.47911739505278156
16.2846408839779,-0.31835135094867834
16.318011049723758,-0.13357182557279462
16.351381215469615,0.06461727858480307
16.38475138121547,0.25538310905389044
16.418121546961327,0.4128050763397872
16.451491712707185,0.5143045064215076
16.48486187845304,0.5485276146978839
16.518232044198896,0.5194528245469382
16.551602209944754,0.44525901660968153
16.584972375690608,0.35244884816563615
16.618342541436466,0.2672717913304597
16.651712707182323,0.2073841415007852
16.685082872928177,0.1767204060099485
16.718453038674035,0.16554596869885238
16.751823204419892,0.1557495787463924
16.785193370165747,0.12930340242112642
16.818563535911604,0.07645710735100397
16.851933701657458,0.0003317981647741394
16.885303867403316,-0.08390128588032958
16.918674033149173,-0.15484831707070013
16.952044198895027,-0.1933527188381977
16.985414364640885,-0.19026393386705984
17.018784530386743,-0.15053642373858406
17.052154696132597,-0.09208745631108456
17.085524861878454,-0.03974119583199188
17.118895027624312,-0.016331298172929703
17.152265193370166,-0.03410486492328846
17.185635359116024,-0.08964156066528253
