Time (s),Filtered Signal
0.0,0.04456786192718012
0.033370165745856356,0.16167229666012073
0.06674033149171271,0.1934364129758009
0.10011049723756907,0.09353202548217279
0.13348066298342542,-0.1268877362898295
0.16685082872928178,-0.40741118443605273
0.20022099447513814,-0.6676241442921039
0.2335911602209945,-0.8408700056266994
0.26696132596685085,-0.8958441779102992
0.30033149171270723,-0.8382692262402479
0.33370165745856356,-0.6967083554088992
0.3670718232044199,-0.504120186960642
0.4004419889502763,-0.28627499507971127
0.43381215469613266,-0.061200961911291325
0.467182320441989,0.1542708575374793
0.5005524861878453,0.3387742561167798
0.5339226519337017,0.46741704681932256
0.5672928176795581,0.5197758914982616
0.6006629834254145,0.48995745302121857
0.6340331491712707,0.3923076284854917
0.6674033149171271,0.2588620159460139
0.7007734806629835,0.1291224775319137
0.7341436464088398,0.03653614731279538
0.7675138121546962,-0.002597910581924445
0.8008839779005525,0.006614838570695309
0.8342541436464089,0.04161883663766629
0.8676243093922653,0.07260694318397513
0.9009944751381216,0.07465502729033165
0.934364640883978,0.03697527048833876
0.9677348066298344,-0.03408785054839794
1.0011049723756906,-0.11896893002005032
1.0344751381215471,-0.1935376301315621
1.0678453038674034,-0.23861236578411635
1.1012154696132597,-0.24642427067548014
1.1345856353591162,-0.22167360919263027
1.1679558011049724,-0.1772361786226223
1.201325966850829,-0.1268961218532826
1.2346961325966852,-0.0787693768819707
1.2680662983425415,-0.03272466064378038
1.301436464088398,0.016872910127768818
1.3348066298342542,0.07456992555872573
1.3681767955801105,0.13712912786123255
1.401546961325967,0.1909622073242575
1.4349171270718233,0.21615940035973533
1.4682872928176796,0.1962221325268466
1.501657458563536,0.12918989129127348
1.5350276243093923,0.03414947514926603
1.5683977900552488,-0.0517070180689676
1.601767955801105,-0.08631460088623254
1.6351381215469614,-0.0417934783292269
1.6685082872928179,0.07921466172286312
1.7018784530386741,0.23886859905787267
1.7352486187845306,0.37572935024833043
1.768618784530387,0.4296572282654393
1.8019889502762432,0.36968062723257006
1.8353591160220997,0.21147886405479266
1.868729281767956,0.01465339624975988
1.9020994475138122,-0.14098221386975898
1.9354696132596687,-0.19044261239221458
1.968839779005525,-0.11384648861579745
2.0022099447513813,0.05289228401856851
2.0355801104972375,0.2328587473326467
2.0689502762430942,0.3419704745027938
2.1023204419889505,0.3259635343353746
2.135690607734807,0.18309626916898117
2.169060773480663,-0.03770408262334484
2.2024309392265193,-0.2614548221536072
2.235801104972376,-0.4219265624988014
2.2691712707182323,-0.48987708332215973
2.3025414364640886,-0.48197614862102206
2.335911602209945,-0.4475044846973881
2.369281767955801,-0.4404605543383243
2.402651933701658,-0.4910115822872842
2.436022099447514,-0.5896974729338906
2.4693922651933704,-0.6911900221092897
2.5027624309392267,-0.735132046400326
2.536132596685083,-0.6739542133980714
2.5695027624309392,-0.4949004117009902
2.602872928176796,-0.22670640025444586
2.636243093922652,0.07131530820689684
2.6696132596685085,0.3322010990670879
2.7029834254143648,0.5059055074261137
2.736353591160221,0.5752709300279923
2.7697237569060777,0.5576565365171561
2.803093922651934,0.49299744409403323
2.8364640883977903,0.42464154119319497
2.8698342541436466,0.3816979533731905
2.903204419889503,0.37010017658643984
2.936574585635359,0.3751168246179666
2.969944751381216,0.37280342353593926
3.003314917127072,0.3442294728481651
3.0366850828729284,0.28570802258400896
3.0700552486187846,0.21069247066570243
3.103425414364641,0.14313077909650604
3.1367955801104976,0.1059257690405115
3.170165745856354,0.11011773777431354
3.20353591160221,0.14982044947093504
3.2369060773480665,0.20521463033555867
3.2702762430939227,0.2522185741960534
3.3036464088397794,0.27430782960993816
3.3370165745856357,0.2706805860406517
3.370386740331492,0.25628635985073883
3.4037569060773483,0.2528749278317168
3.4371270718232045,0.27476874280889413
3.4704972375690613,0.3163612116318677
3.5038674033149175,0.34845530987724294
3.537237569060774,0.3268932271413663
3.57060773480663,0.21088434076531595
3.6039779005524863,-0.017012410754769402
3.6373480662983426,-0.3390466005048066
3.6707182320441993,-0.7049857396577901
3.7040883977900556,-1.0486524803045008
3.737458563535912,-1.310475166039324
3.770828729281768,-1.455324671703407
3.8041988950276244,-1.4779975569715298
3.837569060773481,-1.3959002062043393
3.8709392265193374,-1.2352834205692085
3.9043093922651937,-1.0196626568261804
3.93767955801105,-0.7658840546663052
3.9710497237569062,-0.4873356551753086
4.0044198895027625,-0.1992716675049468
4.037790055248619,0.07913186630004294
4.071160220994475,0.32795577716700475
4.104530386740332,0.5326338002231218
4.1379005524861885,0.6885492353697161
4.171270718232044,0.8009074482058801
4.204640883977901,0.8798952251489188
4.238011049723757,0.9340545976552466
4.271381215469614,0.9656331264262876
4.30475138121547,0.9702336457314334
4.338121546961326,0.9405513941806749
4.371491712707183,0.8719244527701545
4.404861878453039,0.7668128119135887
4.438232044198895,0.6361510302546415
4.471602209944752,0.4970712559513853
4.504972375690608,0.3679480991939829
4.538342541436465,0.26259927361995095
4.5717127071823205,0.18570420053014344
4.605082872928177,0.13117276141268125
4.638453038674034,0.0843902721614291
4.67182320441989,0.028050240135330442
4.7051933701657465,-0.05013638792515045
4.738563535911602,-0.15073763726447703
4.771933701657459,-0.2600506990335273
4.805303867403316,-0.3537050695135047
4.8386740331491715,-0.4059462432692777
4.872044198895028,-0.40126783356579276
4.905414364640884,-0.34329312049961
4.938784530386741,-0.2563526064226317
4.972154696132597,-0.17816385297483311
5.005524861878453,-0.14610581282732615
5.03889502762431,-0.18273081738816582
5.072265193370166,-0.2867086576553719
5.105635359116023,-0.4330420289018429
5.1390055248618784,-0.5823223633917473
5.172375690607735,-0.6949874425623693
5.205745856353592,-0.7446938661193676
5.239116022099448,-0.72565343180081
5.272486187845304,-0.6515275947554601
5.30585635359116,-0.5469384719291522
5.339226519337017,-0.43551700820885825
5.372596685082874,-0.32974762957897547
5.4059668508287295,-0.22723543628242557
5.439337016574586,-0.11542895294780699
5.472707182320442,0.017083158143451037
5.506077348066299,0.16836412461074732
5.5394475138121555,0.3173140093994121
5.572817679558011,0.4294778447155875
5.606187845303868,0.47403558078311303
5.639558011049724,0.44465284925280896
5.672928176795581,0.37259843197717607
5.706298342541437,0.3220391253506762
5.739668508287293,0.3651214723556148
5.77303867403315,0.5452260515095987
5.806408839779006,0.8451833249070474
5.839779005524862,1.1781790676093806
5.873149171270718,1.4107036472091112
5.906519337016575,1.4121688311584881
5.939889502762432,1.1116494498920821
5.9732596685082875,0.5362399539603696
6.006629834254144,-0.18815299813355513
6.04,-0.876390478405434
6.073370165745857,-1.3484026737216028
6.1067403314917135,-1.4914215595127933
6.140110497237569,-1.2950448807336548
6.173480662983426,-0.847116404229256
6.206850828729282,-0.2957011765451849
6.240220994475139,0.2045937175812686
6.273591160220995,0.540302967721542
6.306961325966851,0.6651500433915553
6.340331491712708,0.5997787157590658
6.373701657458564,0.4107773694968633
6.40707182320442,0.18035795564798812
6.440441988950277,-0.02159277312830767
6.473812154696133,-0.15493684055518706
6.50718232044199,-0.21320750634717692
6.5405524861878455,-0.21589152074524012
6.573922651933702,-0.1942147254243016
6.607292817679559,-0.17671362062295215
6.640662983425415,-0.17980018002109827
6.674033149171271,-0.205738221421211
6.707403314917127,-0.2470301369506306
6.740773480662984,-0.2935664455331993
6.774143646408841,-0.33818552364871723
6.8075138121546965,-0.3778418826671717
6.840883977900553,-0.4105578584663399
6.874254143646409,-0.4310805891013865
6.907624309392266,-0.4290667100213516
6.9409944751381225,-0.3920449035170295
6.974364640883978,-0.31219960330677954
7.007734806629835,-0.19311703155493448
7.041104972375691,-0.0519619687795398
7.074475138121548,0.08524284278378444
7.107845303867403,0.19366046585226104
7.14121546961326,0.2601682595294254
7.174585635359117,0.2889126861056661
7.207955801104973,0.29886040421697807
7.241325966850829,0.3143973905188976
7.274696132596685,0.35348870916653863
7.308066298342542,0.4189583539921332
7.341436464088399,0.49672232683518647
7.3748066298342545,0.5614226472075964
7.408176795580111,0.5866629635682996
7.441546961325967,0.5553835903600068
7.474917127071824,0.4662955904864486
7.5082872928176805,0.33422411753335113
7.541657458563536,0.1847029602349485
7.575027624309393,0.045232154956688274
7.608397790055249,-0.06341275266162809
7.641767955801106,-0.1327705273807261
7.675138121546962,-0.16753307164845582
7.708508287292818,-0.18181569799602945
7.741878453038675,-0.19258718954675125
7.775248618784531,-0.21275676930400106
7.808618784530387,-0.2463012357786933
7.841988950276244,-0.28700713488213775
7.8753591160221,-0.32118545830525763
7.908729281767957,-0.3333738114761457
7.9420994475138125,-0.31290072530597085
7.975469613259669,-0.25866893135034547
8.008839779005525,-0.18001167107372343
8.042209944751383,-0.09305005165624385
8.075580110497238,-0.014093598232710952
8.108950276243094,0.04676637000191326
8.14232044198895,0.08862952871541242
8.175690607734808,0.11778027253228235
8.209060773480664,0.14184762122044114
8.24243093922652,0.16346687458254652
8.275801104972377,0.17714710739992076
8.309171270718233,0.17129441927666159
8.342541436464089,0.1344388188560353
8.375911602209946,0.062355396384588084
8.409281767955802,-0.03768681597425082
8.442651933701658,-0.14770508110699687
8.476022099447514,-0.24435769058722956
8.509392265193371,-0.30633177931487954
8.542762430939227,-0.32066125092402514
8.576132596685083,-0.28581226993857234
8.60950276243094,-0.21100714872652082
8.642872928176796,-0.1126577329174984
8.676243093922652,-0.009462644742434599
8.709613259668508,0.08225916484000426
8.742983425414366,0.15179030347467726
8.776353591160222,0.19513702923020174
8.809723756906077,0.2140675892164012
8.843093922651935,0.21374842969907004
8.87646408839779,0.20006789704758202
8.909834254143647,0.17767177454644276
8.943204419889504,0.14922985489388463
8.97657458563536,0.11580196457325338
9.009944751381216,0.0777290371284825
9.043314917127072,0.03543191848060849
9.07668508287293,-0.01019429558225507
9.110055248618785,-0.057683928499130545
9.143425414364641,-0.1048468861054399
9.176795580110499,-0.14830213778298898
9.210165745856354,-0.1828512558975675
9.24353591160221,-0.2012887590249109
9.276906077348068,-0.19536953613383537
9.310276243093924,-0.15824694092473177
9.34364640883978,-0.08786740830264596
9.377016574585635,0.01002255645481454
9.410386740331493,0.12091171262758417
9.443756906077349,0.22372757115431813
9.477127071823205,0.2960783507547765
9.510497237569062,0.3209687678832638
9.543867403314918,0.29253146114134915
9.577237569060774,0.21846740303928816
9.610607734806631,0.11807934209973721
9.643977900552487,0.016484351081279373
9.677348066298343,-0.06296151181902135
9.710718232044199,-0.10540209258297507
9.744088397790057,-0.10818180019613433
9.777458563535912,-0.08046051778613436
9.810828729281768,-0.03908808557503888
9.844198895027626,-0.002271103974612813
9.877569060773482,0.01673663144754595
9.910939226519337,0.013649590230814915
9.944309392265193,-0.006671460000246713
9.97767955801105,-0.0339800303433227
10.011049723756907,-0.058683070209944434
10.044419889502763,-0.07719799349300249
10.07779005524862,-0.0936781416753352
10.111160220994476,-0.11682167426475634
10.144530386740332,-0.15317648710511836
10.17790055248619,-0.20063153581874504
10.211270718232045,-0.24615155532243657
10.244640883977901,-0.26975500731804214
10.278011049723757,-0.2532391657896225
10.311381215469615,-0.18925200113607246
10.34475138121547,-0.08583275595848419
10.378121546961326,0.036101138840394106
10.411491712707184,0.15101559993891125
10.44486187845304,0.23844946969324543
10.478232044198895,0.28934247075419717
10.511602209944753,0.3063966620643158
10.544972375690609,0.2992323173602508
10.578342541436465,0.2776457741313306
10.61171270718232,0.24673284486295727
10.645082872928178,0.20607739154521668
10.678453038674034,0.15274258384959333
10.71182320441989,0.08581457222425161
10.745193370165747,0.00964091999974094
10.778563535911603,-0.0661882448837193
10.811933701657459,-0.13021143485138892
10.845303867403315,-0.17405308028600297
10.878674033149172,-0.19625772985390513
10.912044198895028,-0.20276756585509492
10.945414364640884,-0.20352665092786867
10.978784530386742,-0.2068220493049199
11.012154696132598,-0.21437155417150972
11.045524861878453,-0.21997703424167672
11.078895027624311,-0.21273082826283632
11.112265193370167,-0.18320907291958802
11.145635359116023,-0.12927366117148312
11.179005524861878,-0.05818603803775074
11.212375690607736,0.016226489962156254
11.245745856353592,0.07978325810026882
11.279116022099448,0.12405910442082009
11.312486187845305,0.14905717179477335
11.345856353591161,0.1611854500616702
11.379226519337017,0.16797605306721178
11.412596685082875,0.1727341295195213
11.44596685082873,0.17219687045691806
11.479337016574586,0.15852708781831065
11.512707182320442,0.12461412663649175
11.5460773480663,0.06994273184855922
11.579447513812156,0.003993274444874533
11.612817679558011,-0.05473646657724705
11.646187845303869,-0.08408846661368607
11.679558011049725,-0.06616498445383254
11.71292817679558,0.0050588387640056005
11.746298342541436,0.11933966819768153
11.779668508287294,0.2509837164381324
11.81303867403315,0.3652322075986251
11.846408839779006,0.42856246578789836
11.879779005524863,0.4194815806812428
11.91314917127072,0.3356695473970463
11.946519337016575,0.1943353076887374
11.979889502762433,0.02535836046238124
12.013259668508288,-0.13985796936228514
12.046629834254144,-0.2786706642263226
12.08,-0.38186218144241696
12.113370165745858,-0.4510441680067916
12.146740331491714,-0.4913331456967328
12.18011049723757,-0.5045160611282875
12.213480662983427,-0.48732770485508936
12.246850828729283,-0.43586016247752213
12.280220994475139,-0.3527892431068202
12.313591160220996,-0.25186210765299655
12.346961325966852,-0.15548694016878267
12.380331491712708,-0.0855419447718106
12.413701657458564,-0.05206457732416356
12.447071823204421,-0.04643085824709568
12.480441988950277,-0.04364711626097605
12.513812154696133,-0.013484729157322798
12.54718232044199,0.0647871192865133
12.580552486187846,0.19145063076908936
12.613922651933702,0.34459053143917373
12.64729281767956,0.4881010257740942
12.680662983425416,0.5851246931487621
12.714033149171271,0.6104869345987707
12.747403314917127,0.557255945983079
12.780773480662985,0.43636811217658406
12.81414364640884,0.27164955537516444
12.847513812154697,0.09356172366461439
12.880883977900554,-0.06638723351654362
12.91425414364641,-0.18065017846982925
12.947624309392266,-0.2308779562862941
12.980994475138122,-0.21305530613489104
13.01436464088398,-0.14040600366071934
13.047734806629835,-0.04140029951156668
13.081104972375691,0.048080346221382075
13.114475138121549,0.09621926770448362
13.147845303867404,0.08572330954580423
13.18121546961326,0.018661289475654038
13.214585635359118,-0.08620521932443072
13.247955801104974,-0.20175927707455868
13.28132596685083,-0.3022297140677439
13.314696132596685,-0.37008655334123514
13.348066298342543,-0.3982805703705732
13.381436464088399,-0.3887436178761326
13.414806629834255,-0.3495016908996953
13.448176795580112,-0.2922237014789251
13.481546961325968,-0.2303540174980477
13.514917127071824,-0.17670982562963194
13.548287292817681,-0.13967123140909773
13.581657458563537,-0.11870452710551478
13.615027624309393,-0.10165821523877869
13.648397790055249,-0.06658303641288946
13.681767955801106,0.010851220812536658
13.715138121546962,0.1462095452427806
13.748508287292818,0.3358539640373625
13.781878453038676,0.5523069848546721
13.815248618784532,0.7486830269212186
13.848618784530387,0.8718433491943743
13.881988950276245,0.8800908348317412
13.9153591160221,0.7588315134001157
13.948729281767957,0.5278114796196364
13.982099447513813,0.23644434926627744
14.01546961325967,-0.05157847556459355
14.048839779005526,-0.27863485859968284
14.082209944751382,-0.4104152105119622
14.11558011049724,-0.44332574305372946
14.148950276243095,-0.3998657364153983
14.182320441988951,-0.31534563066781873
14.215690607734807,-0.2229640914907081
14.249060773480664,-0.14413110116980868
14.28243093922652,-0.0872705119576841
14.315801104972376,-0.053361405467917435
14.349171270718234,-0.04300138975565193
14.38254143646409,-0.059635020986245846
14.415911602209945,-0.10668038632499392
14.449281767955803,-0.18068410877877253
14.482651933701659,-0.26569842411031397
14.516022099447515,-0.3339227563016499
14.54939226519337,-0.3542523798173877
14.582762430939228,-0.3056166334373468
14.616132596685084,-0.18863482840084517
14.64950276243094,-0.029203313850605938
14.682872928176797,0.12876109002167124
14.716243093922653,0.2389694919564223
14.749613259668509,0.2702687885002494
14.782983425414367,0.2185588637561
14.816353591160222,0.10817340082039806
14.849723756906078,-0.01768825145440719
14.883093922651934,-0.11343817013835412
14.916464088397792,-0.1478631394149361
14.949834254143648,-0.11469178722447866
14.983204419889503,-0.03312874656536065
15.016574585635361,0.06143506103783877
15.049944751381217,0.13246951813418026
15.083314917127073,0.1568840681154352
15.116685082872928,0.13329680961280596
15.150055248618786,0.08089648615518186
15.183425414364642,0.029749167859972524
15.216795580110498,0.0069187520556621114
15.250165745856355,0.024419031850734737
15.283535911602211,0.07412883358364393
15.316906077348067,0.13174001869209667
15.350276243093925,0.16784043889000405
15.38364640883978,0.1610768089236774
15.417016574585636,0.10745086552128728
15.450386740331492,0.021664778254271582
15.48375690607735,-0.06976699079639449
15.517127071823205,-0.14000576335815915
15.550497237569061,-0.17226789511361765
15.583867403314919,-0.1642149239013518
15.617237569060775,-0.12477652616294747
15.65060773480663,-0.06588086799994804
15.683977900552488,0.005748824125970637
15.717348066298344,0.0916759300764518
15.7507182320442,0.1975486942646692
15.784088397790056,0.3237158558509454
15.817458563535913,0.4562020262289874
15.85082872928177,0.5642686620754107
15.884198895027625,0.608002345010346
15.917569060773483,0.5541638303632201
15.950939226519338,0.39343467818096456
15.984309392265194,0.15010956255166433
16.01767955801105,-0.12214560304026192
16.051049723756908,-0.35840708462936205
16.084419889502765,-0.5072386171354664
16.11779005524862,-0.5508094443102939
16.151160220994477,-0.510679778568503
16.18453038674033,-0.43614226340278445
16.21790055248619,-0.3803872638763243
16.251270718232046,-0.375695787733994
16.2846408839779,-0.419364369479658
16.318011049723758,-0.47686890319621056
16.351381215469615,-0.5004362348159849
16.38475138121547,-0.4537995703080777
16.418121546961327,-0.33106418783631647
16.451491712707185,-0.16064869519531053
16.48486187845304,0.007363632607539814
16.518232044198896,0.12409927650194268
16.551602209944754,0.1638742657997752
16.584972375690608,0.13490292716791497
16.618342541436466,0.07405919747431378
16.651712707182323,0.02873406833252313
16.685082872928177,0.03479295110284063
16.718453038674035,0.10106615393809114
16.751823204419892,0.20720306021653226
16.785193370165747,0.31501712272101734
16.818563535911604,0.38703363567315274
16.851933701657458,0.40297155989074257
16.885303867403316,0.3666343089397365
16.918674033149173,0.30096309210881506
16.952044198895027,0.23490796331442235
16.985414364640885,0.18931878804990712
17.018784530386743,0.16874965636126293
17.052154696132597,0.1624686473027701
17.085524861878454,0.153160875467911
17.118895027624312,0.1282184453001256
17.152265193370166,0.08768394879177151
17.185635359116024,0.04496043455988277
17.21900552486188,0.02012322791820177
17.252375690607735,0.029251514373195994
