Time (s),Filtered Signal
0.0,-5.3634825831219525e-05
0.0334075723830735,-0.13172626303980722
0.066815144766147,-0.19628783886766096
0.1002227171492205,-0.15355880847750103
0.133630289532294,-0.005582911264887935
0.1670378619153675,0.20537888927090256
0.200445434298441,0.4150002636603677
0.23385300668151449,0.5627692928168422
0.267260579064588,0.6140711823747949
0.3006681514476615,0.5693288467303119
0.334075723830735,0.45769965305290927
0.3674832962138085,0.32023037142857413
0.400890868596882,0.19168129003854326
0.4342984409799555,0.08947410513832962
0.46770601336302897,0.01336653956768615
0.5011135857461025,-0.046399431208557544
0.534521158129176,-0.09841488813087186
0.5679287305122495,-0.14288604420190812
0.601336302895323,-0.1710374755002393
0.6347438752783965,-0.1705476397072104
0.66815144766147,-0.13367709478959822
0.7015590200445435,-0.06390059446289055
0.734966592427617,0.022208521146048852
0.7683741648106905,0.0990252688851139
0.801781737193764,0.14060156949943878
0.8351893095768375,0.13077429641745664
0.868596881959911,0.07040891062363522
0.9020044543429845,-0.021739914998599466
0.9354120267260579,-0.11565216217238818
0.9688195991091315,-0.1819372249506407
1.002227171492205,-0.20404876880385345
1.0356347438752784,-0.18521220390410822
1.069042316258352,-0.1465365788521305
1.1024498886414256,-0.11685282894130142
1.135857461024499,-0.1189326931816737
1.1692650334075725,-0.15870344932129457
1.202672605790646,-0.22268327189487233
1.2360801781737194,-0.28470864280430586
1.269487750556793,-0.31828905418005976
1.3028953229398665,-0.30820055471260155
1.33630289532294,-0.2557078645974059
1.3697104677060135,-0.17554794740858504
1.403118040089087,-0.08727339060783591
1.4365256124721606,-0.006184376656737359
1.469933184855234,0.06145113329447777
1.5033407572383075,0.1172659890953055
1.536748329621381,0.16572080933866384
1.5701559020044544,0.2090278044817736
1.603563474387528,0.24536293475274895
1.6369710467706016,0.27103810110020893
1.670378619153675,0.28449726743053433
1.7037861915367485,0.2887950766276328
1.737193763919822,0.29032007299728235
1.7706013363028954,0.29416708306877215
1.804008908685969,0.2990249597665547
1.8374164810690425,0.29514803658369276
1.8708240534521159,0.26744382734485
1.9042316258351895,0.20281004737400804
1.937639198218263,0.09825945074739009
1.9710467706013366,-0.034439604831011335
2.00445434298441,-0.1704337333804244
2.0378619153674835,-0.27964123736303953
2.071269487750557,-0.3377177025703554
2.1046770601336307,-0.33552732759138065
2.138084632516704,-0.28306020244253643
2.1714922048997773,-0.20600906143547482
2.204899777282851,-0.13619909677738365
2.2383073496659245,-0.09954227265328007
2.271714922048998,-0.10620822085035994
2.3051224944320716,-0.14686986817878356
2.338530066815145,-0.19649899823911138
2.3719376391982183,-0.22418633829871834
2.405345211581292,-0.2050688373772761
2.4387527839643655,-0.1296858762831701
2.472160356347439,-0.007296888770187856
2.5055679287305126,0.1376839416217052
2.538975501113586,0.27417898556214826
2.5723830734966593,0.37421378373822856
2.605790645879733,0.42038047631003234
2.6391982182628064,0.40898454870695833
2.67260579064588,0.34894728388498186
2.7060133630289536,0.25804693777080523
2.739420935412027,0.15837641559787194
2.7728285077951007,0.07210741559521655
2.806236080178174,0.01758643397581302
2.8396436525612474,0.005395186365801584
2.873051224944321,0.034678298352128406
2.9064587973273945,0.09122624185283124
2.939866369710468,0.14932787741878004
2.9732739420935417,0.1783747807608724
3.006681514476615,0.152823539376573
3.0400890868596884,0.06179117292289784
3.073496659242762,-0.08605775480368721
3.1069042316258355,-0.2648538395251462
3.140311804008909,-0.44020684086574274
3.1737193763919826,-0.5802826562561213
3.207126948775056,-0.6644096574573147
3.2405345211581293,-0.6860705840298154
3.273942093541203,-0.6503626401961122
3.3073496659242765,-0.5687305828164197
3.34075723830735,-0.4544189355788303
3.3741648106904236,-0.3205263581029154
3.407572383073497,-0.18011709845106533
3.4409799554565703,-0.04634328933692361
3.474387527839644,0.06909005050162371
3.5077951002227175,0.1590255721361023
3.541202672605791,0.2237342994861656
3.5746102449888646,0.2714161548262062
3.608017817371938,0.31530577548863065
3.6414253897550113,0.3682103145454736
3.674832962138085,0.436700461475799
3.7082405345211584,0.5174119268650977
3.7416481069042318,0.5970081108083413
3.7750556792873056,0.6558661728381264
3.808463251670379,0.6741818713144414
3.8418708240534527,0.6384409878018423
3.875278396436526,0.5462097824453278
3.9086859688195994,0.40777351955035723
3.942093541202673,0.24401396737485315
3.9755011135857465,0.08088797710127982
4.00890868596882,-0.05809365599149036
4.042316258351893,-0.15903218359476362
4.075723830734967,-0.22169341692314065
4.109131403118041,-0.25843595393262914
4.142538975501114,-0.28802400652164883
4.1759465478841875,-0.3268184219669664
4.209354120267261,-0.3813469695929306
4.242761692650334,-0.4456874614567815
4.276169265033408,-0.5046117000409281
4.309576837416482,-0.5404815859465287
4.342984409799555,-0.5402426140124735
4.3763919821826285,-0.4994064318191031
4.409799554565702,-0.4220672716236606
4.443207126948775,-0.3182021662356076
4.476614699331849,-0.20038484487572425
4.510022271714923,-0.08133058901437418
4.543429844097996,0.027709547788065208
4.5768374164810695,0.11848913244973572
4.610244988864143,0.18759473819655068
4.643652561247216,0.23773239482850472
4.67706013363029,0.27689299275193824
4.710467706013364,0.31444322666010394
4.743875278396437,0.3550960514320743
4.77728285077951,0.39371909817429035
4.810690423162584,0.4145100583018154
4.844097995545657,0.3964080290956035
4.877505567928731,0.3233319580064799
4.910913140311805,0.1947153548817598
4.944320712694878,0.030731600381666172
4.977728285077951,-0.13155223840907695
5.011135857461025,-0.25076173508416955
5.044543429844098,-0.2977550876954027
5.077951002227172,-0.2687263737078536
5.111358574610246,-0.18823379619631456
5.144766146993319,-0.09964511729296015
5.178173719376392,-0.046352387941190475
5.211581291759466,-0.051960481650172266
5.244988864142539,-0.10890812088815216
5.278396436525613,-0.18157134079097076
5.311804008908687,-0.22309158452508876
5.34521158129176,-0.19820649728215917
5.378619153674833,-0.10092532626538124
5.412026726057907,0.04191962320202598
5.445434298440981,0.18323977535655206
5.478841870824054,0.2781361393807932
5.512249443207128,0.3048541518069794
5.545657015590201,0.2736420113988036
5.579064587973274,0.21922309269791027
5.612472160356348,0.18113056743873868
5.645879732739422,0.18237672358201545
5.679287305122495,0.21755678133967024
5.712694877505569,0.2562805983405225
5.746102449888642,0.25970825901841005
5.779510022271715,0.20133919639781622
5.812917594654789,0.0814500564416247
5.846325167037863,-0.07174666614745176
5.879732739420936,-0.21434673264292867
5.91314031180401,-0.3061942090402759
5.946547884187083,-0.3283502928463076
5.979955456570156,-0.29078722882482677
6.01336302895323,-0.22716161946944122
6.046770601336304,-0.17924633322968483
6.080178173719377,-0.1779784365191137
6.1135857461024505,-0.22938388152170058
6.146993318485524,-0.3114186075947582
6.180400890868597,-0.38302782152179876
6.213808463251671,-0.4015343249297195
6.247216035634745,-0.34102720128805236
6.280623608017818,-0.2040881530777568
6.3140311804008915,-0.021955609053867932
6.347438752783965,0.1571073467954268
6.380846325167038,0.28668910297118044
6.414253897550112,0.3406672455918756
6.447661469933186,0.32335654486560395
6.481069042316259,0.26668163519245675
6.5144766146993325,0.21520628052575222
6.547884187082406,0.2054217225766802
6.581291759465479,0.2485997528257703
6.614699331848553,0.3250874039865521
6.648106904231627,0.3926716348495326
6.6815144766147,0.4051428796050928
6.7149220489977735,0.33266694752143205
6.748329621380847,0.1751468475011444
6.78173719376392,-0.03664501861479026
6.815144766146994,-0.25178816372537566
6.848552338530068,-0.4166068066092449
6.881959910913141,-0.4916151745560134
6.915367483296214,-0.4622373013908461
6.948775055679288,-0.3408823315288171
6.982182628062361,-0.16133308233165894
7.015590200445435,0.03167553984506862
7.048997772828509,0.1945384884488765
7.082405345211582,0.2958798568784106
7.115812917594655,0.3243733576326958
7.149220489977729,0.29106555571762865
7.182628062360802,0.22458625613688152
7.216035634743876,0.15959769811019894
7.24944320712695,0.1219445679878049
7.282850779510023,0.11659290232025425
7.316258351893096,0.12447741779717074
7.34966592427617,0.11087707126887754
7.383073496659243,0.042247471126937435
7.416481069042317,-0.09630776759765357
7.449888641425391,-0.29154537394852453
7.4832962138084635,-0.5052626513827069
7.516703786191537,-0.6883297224525062
7.550111358574611,-0.7984356886623285
7.583518930957685,-0.8132643357402358
7.616926503340758,-0.734136684717756
7.650334075723832,-0.5805539667112923
7.683741648106905,-0.3802471025750574
7.717149220489978,-0.16026269689444197
7.750556792873052,0.05746565235909668
7.783964365256126,0.2558740354098767
7.817371937639199,0.420202646287593
7.850779510022273,0.5362957969052602
7.884187082405346,0.5920879267252425
7.917594654788419,0.5825411326371025
7.951002227171493,0.5158604844863598
7.984409799554567,0.41706366259936717
8.01781737193764,0.32503195447725475
8.051224944320714,0.28154089469686006
8.084632516703786,0.31479328021286207
8.118040089086861,0.42382144546544864
8.151447661469934,0.5715961233864696
8.184855233853007,0.6924044280815326
8.218262806236082,0.7133954264283761
8.251670378619155,0.5833541720676899
8.285077951002227,0.2970329362871497
8.318485523385302,-0.09642571012776627
8.351893095768375,-0.5065385301482952
8.385300668151448,-0.832161879819224
8.418708240534523,-0.9975127847376155
8.452115812917596,-0.9782561864330241
8.485523385300668,-0.8067391249765332
8.518930957683743,-0.5550793421504322
8.552338530066816,-0.3047722194629213
8.585746102449889,-0.11677613059488072
8.619153674832964,-0.014368715301810211
8.652561247216036,0.016140610523450272
8.68596881959911,0.010398485870857718
8.719376391982184,0.005914560735941479
8.752783964365257,0.026425947962633478
8.78619153674833,0.07600036775175377
8.819599109131405,0.1424268915220723
8.853006681514477,0.20555048663410982
8.88641425389755,0.2456747233392977
8.919821826280625,0.24916642381238693
8.953229398663698,0.2108843167856864
8.98663697104677,0.13439759397871737
9.020044543429846,0.03091395943719461
9.053452115812918,-0.08277463556738884
9.086859688195991,-0.18730078947689435
9.120267260579066,-0.2643806618714624
9.153674832962139,-0.3003937675094483
9.187082405345212,-0.2890504701822868
9.220489977728286,-0.23259969766110317
9.25389755011136,-0.14141731924233816
9.287305122494432,-0.03205410415945598
9.320712694877507,0.07604560941242179
9.35412026726058,0.1647010992772481
9.387527839643653,0.22115265929507283
9.420935412026727,0.24097728008144118
9.4543429844098,0.22859604575444703
9.487750556792873,0.19493937623638444
9.521158129175948,0.15304284347323463
9.55456570155902,0.11345558106668213
9.587973273942094,0.08165510454769731
9.621380846325168,0.05876260551230664
9.654788418708241,0.044986732984818444
9.688195991091314,0.04334959740014591
9.721603563474389,0.060603067881979965
9.755011135857462,0.10357623293339716
9.788418708240535,0.17212257787159865
9.82182628062361,0.2527842681411315
9.855233853006682,0.31823020254728324
9.888641425389755,0.3352410823959743
9.92204899777283,0.27920367760285153
9.955456570155903,0.14836053368527485
9.988864142538976,-0.030407864936676555
10.02227171492205,-0.2091308081819456
10.055679287305123,-0.3376303116944772
10.089086859688196,-0.385150182101441
10.12249443207127,-0.3538157752154976
10.155902004454344,-0.27668213805600567
10.189309576837417,-0.20102993434518246
10.222717149220491,-0.16534393877746129
10.256124721603564,-0.1816731796338531
10.289532293986637,-0.23202039820184717
10.322939866369712,-0.27984504572791996
10.356347438752785,-0.28994545878983574
10.389755011135858,-0.2460980840045374
10.423162583518932,-0.15769430565761539
10.456570155902005,-0.052889123967238015
10.489977728285078,0.03708590447291721
10.523385300668153,0.09355327862136519
10.556792873051226,0.11777048415111749
10.590200445434299,0.12686000978848794
10.623608017817373,0.14147597864271677
10.657015590200446,0.17264590091915732
10.69042316258352,0.21512687847307949
10.723830734966594,0.2504864081415288
10.757238307349667,0.25753328591297975
10.790645879732741,0.22391044135620375
10.824053452115814,0.15258762367994946
10.857461024498887,0.0603372676321026
10.890868596881962,-0.030164298380616454
10.924276169265035,-0.09983193524143401
10.957683741648108,-0.13931259194854612
10.991091314031182,-0.14934926453491038
11.024498886414255,-0.1364687256937195
11.057906458797328,-0.10754246866523287
11.091314031180403,-0.0668481585708057
11.124721603563476,-0.017099758971924974
11.158129175946549,0.03704112881977335
11.191536748329623,0.08632014444126407
11.224944320712696,0.11802258706300857
11.25835189309577,0.12129991854239036
11.291759465478844,0.09408498983390293
11.325167037861917,0.047330015859943286
11.35857461024499,0.003132295621256927
11.391982182628064,-0.013633256846192097
11.425389755011137,0.013168998656978147
11.45879732739421,0.08193302979943325
11.492204899777285,0.17188803665546695
11.525612472160358,0.2507833961627968
11.55902004454343,0.2884506764471544
11.592427616926505,0.26967239192686565
11.625835189309578,0.1999096478566215
11.659242761692651,0.10112937294452799
11.692650334075726,0.00020550730844125567
11.726057906458799,-0.08382005413913815
11.759465478841872,-0.1470470413543129
11.792873051224946,-0.1992704101745819
11.82628062360802,-0.2552332596298829
11.859688195991092,-0.3236905906830832
11.893095768374167,-0.40014309032120204
11.92650334075724,-0.4668635544721919
11.959910913140313,-0.5000212027297286
11.993318485523387,-0.48028436921228007
12.02672605790646,-0.4018126076398638
12.060133630289533,-0.2755548692033343
12.093541202672608,-0.1255985269794747
12.12694877505568,0.019488468052207872
12.160356347438753,0.13633711998279702
12.193763919821828,0.21344632465187222
12.227171492204901,0.2525491163583099
12.260579064587974,0.2648784904923051
12.293986636971049,0.26456559401647867
12.327394209354122,0.2621961584355998
12.360801781737194,0.2610413530114224
12.39420935412027,0.2571437424267829
12.427616926503342,0.2429086817569577
12.461024498886415,0.21259553892979086
12.49443207126949,0.16736583331407
12.527839643652563,0.11748448264997999
12.561247216035635,0.08005978992848714
12.59465478841871,0.07239318537215045
12.628062360801783,0.10318768319906366
12.661469933184856,0.16555834285400686
12.69487750556793,0.23584965511749603
12.728285077951004,0.2801621172166206
12.761692650334076,0.2669042519245441
12.795100222717151,0.18035947933680155
12.828507795100224,0.029074221990840476
12.861915367483297,-0.15527432637671496
12.895322939866372,-0.3287031547914964
12.928730512249444,-0.45113404929590845
12.962138084632517,-0.5011124358865132
12.995545657015592,-0.4827458649583169
13.028953229398665,-0.42199885230636436
13.062360801781738,-0.35410469987622994
13.095768374164813,-0.30760207453427557
13.129175946547885,-0.2918223817040313
13.162583518930958,-0.29310309180262817
13.195991091314033,-0.2813185555151415
13.229398663697106,-0.22404649412168343
13.262806236080179,-0.102541090832725
13.296213808463254,0.07712522773438756
13.329621380846326,0.2825930735823265
13.3630289532294,0.46456600862488134
13.396436525612474,0.5738836130036649
13.429844097995547,0.579990513665603
13.46325167037862,0.4835420870706609
13.496659242761694,0.3178097213152942
13.530066815144767,0.13777820903989324
13.56347438752784,0.0007515960475435996
13.596881959910915,-0.05416690834186503
13.630289532293988,-0.01975324133947616
13.66369710467706,0.07780588132021374
13.697104677060135,0.18999631909675108
13.730512249443208,0.2651411655602353
13.763919821826281,0.2680010697010097
13.797327394209356,0.19218121339272273
13.830734966592429,0.06078321458233282
13.864142538975502,-0.08446010664751102
13.897550111358576,-0.20075605936929244
13.93095768374165,-0.2611618619472905
13.964365256124722,-0.2638948699734452
13.997772828507797,-0.23036918416437704
14.03118040089087,-0.1931503669044194
14.064587973273943,-0.17951954121497632
14.097995545657017,-0.19843053899547633
14.13140311804009,-0.237124759991148
14.164810690423163,-0.26896834792767155
14.198218262806238,-0.26837007059825874
14.23162583518931,-0.22491383913772678
14.265033407572384,-0.14925358585698364
14.298440979955458,-0.06780421933880333
14.331848552338531,-0.009373879843495195
14.365256124721604,0.008867281473466269
14.398663697104679,-0.011282150537516402
14.432071269487752,-0.051648303025781724
14.465478841870825,-0.0878060858916345
14.4988864142539,-0.1005966746386549
14.532293986636972,-0.08297462208967599
14.565701559020045,-0.039501951478133936
14.59910913140312,0.019847066760281754
14.632516703786193,0.08711882781821918
14.665924276169266,0.16060890969725586
14.69933184855234,0.24378265373142688
14.732739420935413,0.33989076156349074
14.766146993318486,0.4455222716878026
14.79955456570156,0.5467758163665972
14.832962138084634,0.6203975030175701
14.866369710467707,0.6399247428836194
14.899777282850781,0.5846711357015045
14.933184855233854,0.44815044800739845
14.966592427616927,0.24263537207124738
15.0,-0.002129785801238639
