Frequency (Hz),Amplitude
0.0,3.526233169350644
0.01993355481727575,3.5252085384089002
0.0398671096345515,3.522136826235761
0.059800664451827246,3.517024578471022
0.079734219269103,3.509882716817103
0.09966777408637874,3.5007265575782958
0.11960132890365449,3.4895758377841095
0.13953488372093023,3.476454749059655
0.159468438538206,3.461391979446163
0.17940199335548174,3.444420763407104
0.19933554817275748,3.425578940280499
0.21926910299003324,3.404909021451641
0.23920265780730898,3.3824582665195915
0.25913621262458475,3.3582787687121187
0.27906976744186046,3.3324275497603177
0.29900332225913623,3.3049666643720994
0.318936877076412,3.2759633143332207
0.3388704318936877,3.2454899721077144
0.3588039867109635,3.213624513594651
0.37873754152823924,3.180450359412047
0.39867109634551495,3.146056623706433
0.4186046511627907,3.110538269009381
0.4385382059800665,3.0739962650612433
0.4584717607973422,3.0365377487737972
0.47840531561461797,2.9982761815858803
0.49833887043189373,2.959331499352841
0.5182724252491695,2.9198302485820684
0.5382059800664452,2.8799057012618885
0.5581395348837209,2.839697938721809
0.5780730897009968,2.799353892909647
0.5980066445182725,2.7590273311995475
0.6179401993355482,2.718878768407367
0.637873754152824,2.6790752871771404
0.6578073089700996,2.6397902454585127
0.6777408637873754,2.6012028476262254
0.6976744186046512,2.5634975541763065
0.717607973421927,2.5268633042271675
0.7375415282392027,2.4914925256827014
0.7574750830564785,2.4575799103642537
0.7774086378737541,2.4253209361838723
0.7973421926910299,2.394910125966952
0.8172757475083057,2.3665390431532747
0.8372093023255814,2.340394038385859
0.8571428571428572,2.316653777648302
0.877076411960133,2.2954866013735424
0.8970099667774087,2.277047783530269
0.9169435215946844,2.2614767782932454
0.9368770764119602,2.2488945573212025
0.9568106312292359,2.239401150571451
0.9767441860465116,2.2330735058548585
0.9966777408637875,2.2299637754977746
1.0166112956810631,2.2300981220577976
1.036544850498339,2.2334761098198674
1.0564784053156147,2.2400707168521214
1.0764119601328903,2.2498289668371076
1.0963455149501662,2.262673144417125
1.1162790697674418,2.278502526087566
1.1362126245847177,2.297195533813585
1.1561461794019936,2.318612202547821
1.176079734219269,2.3425968464146716
1.196013289036545,2.368980810975651
1.2159468438538206,2.3975852091800354
1.2358803986710964,2.428223554204414
1.255813953488372,2.4607042210576395
1.275747508305648,2.4948326883954994
1.2956810631229239,2.530413530667054
1.3156146179401993,2.567252147238012
1.3355481727574752,2.605156228769681
1.3554817275747508,2.6439369716058883
1.3754152823920267,2.683410058320505
1.3953488372093024,2.723396427230088
1.4152823920265782,2.7637228560353595
1.435215946843854,2.8042223853179484
1.4551495016611296,2.844734606867233
1.4750830564784054,2.8851058401686345
1.495016611295681,2.9251892182032115
1.514950166112957,2.964844701262138
1.5348837209302328,3.003939034972095
1.5548172757475083,3.042345666299424
1.5747508305647842,3.0799446290416013
1.5946843853820598,3.11662240827586
1.6146179401993357,3.1522717914379976
1.6345514950166113,3.1867917121528824
1.6544850498338872,3.2200870916205133
1.6744186046511629,3.2520686812590163
1.6943521594684385,3.2826529093968637
1.7142857142857144,3.3117617340661187
1.73421926910299,3.339322503353541
1.754152823920266,3.365267824295022
1.7740863787375416,3.3895354409304614
1.7940199335548175,3.412068121854113
1.8139534883720931,3.432813557383315
1.8338870431893688,3.4517242663140966
1.8538205980066447,3.4687575121237693
1.8737541528239203,3.4838752284098042
1.893687707641196,3.497043953312789
1.9136212624584719,3.5082347726527345
1.9335548172757475,3.5174232715093665
1.9534883720930232,3.524589493990233
1.9734219269102993,3.529717910956903
1.993355481727575,3.5327973955133185
2.0132890365448506,3.533821206099631
2.0332225913621262,3.532786977080602
2.0531561461794023,3.5296967167636826
2.073089700996678,3.5245568128328397
2.0930232558139537,3.517378045232221
2.1129568106312293,3.5081756065849863
2.132890365448505,3.496969130278907
2.1528239202657806,3.483782726396575
2.1727574750830567,3.468645025707665
2.1926910299003324,3.4515892319754276
2.212624584717608,3.4326531828566424
2.2325581395348837,3.41187941968768
2.25249169435216,3.389315266451949
2.2724252491694354,3.3650129182047737
2.292358803986711,3.3390295391910985
2.312292358803987,3.311427370819024
2.332225913621263,3.2822738495429395
2.352159468438538,3.2516417345521402
2.3720930232558137,3.2196092449449702
2.39202657807309,3.1862602057800573
2.4119601328903655,3.1516842020180413
2.431893687707641,3.1159767388845814
2.4518272425249172,3.0792394065727318
2.471760797342193,3.0415800464405853
2.4916943521594686,3.00311291492306
2.511627906976744,2.9639588402374075
2.5315614617940203,2.92424536560058
2.551495016611296,2.884106871069708
2.5714285714285716,2.843684664255325
2.5913621262458477,2.8031270280420544
2.611295681063123,2.7625892111055816
2.6312292358803986,2.722233344492332
2.6511627906976742,2.6822282649217866
2.6710963455149503,2.6427492229295857
2.691029900332226,2.603977451703639
2.7109634551495017,2.566099570765675
2.7308970099667778,2.5293067978848
2.7508305647840534,2.4937939432244995
2.770764119601329,2.4597581622237943
2.7906976744186047,2.4273974486167185
2.810631229235881,2.3969088567760712
2.8305647840531565,2.3684864535589374
2.850498338870432,2.342319014112142
2.870431893687708,2.318587493359299
2.8903654485049834,2.297462324344979
2.910299003322259,2.279100614898031
2.9302325581395348,2.263643333303536
2.950166112956811,2.251212589540842
2.9700996677740865,2.241909128717058
2.990033222591362,2.235810155406623
3.0099667774086383,2.232967600176522
3.029900332225914,2.233406922188623
3.0498338870431896,2.2371265153011266
3.0697674418604657,2.2440977517567924
3.089700996677741,2.2542656606424956
3.1096345514950166,2.2675502017114817
3.129568106312292,2.2838480626993825
3.1495016611295683,2.303034883094508
3.169435215946844,2.324967791452832
3.1893687707641196,2.3494881374414227
3.2093023255813957,2.376424303213078
3.2292358803986714,2.405594489808192
3.249169435215947,2.436809390787266
3.2691029900332227,2.469874684787272
3.289036544850499,2.5045932989188007
3.3089700996677744,2.5407674140682266
3.32890365448505,2.57820019997592
3.3488372093023258,2.616697281716177
3.3687707641196014,2.6560679496704833
3.388704318936877,2.6961261323888435
3.4086378737541527,2.7366911562330882
3.428571428571429,2.7775883178762144
3.4485049833887045,2.818649296112838
3.46843853820598,2.8597124285114854
3.4883720930232562,2.9006228766451665
3.508305647840532,2.9412327013263324
3.5282392026578075,2.981400866722265
3.548172757475083,3.0209931896390767
3.5681063122923593,3.0598822477729697
3.588039867109635,3.0979472584255188
3.60797342192691,3.135073937110295
3.6279069767441863,3.1711543436637784
3.647840531561462,3.2060867219104527
3.6677740863787376,3.239775337610541
3.6877076411960132,3.2721303183157975
3.7076411960132893,3.303067497852785
3.727574750830565,3.332508267416976
3.7475083056478407,3.360379434671829
3.7674418604651168,3.386613091781785
3.787375415282392,3.411146492946398
3.807308970099668,3.43392194172645
3.8272425249169437,3.4548866882472993
3.8471760797342194,3.4739928362153694
3.867109634551495,3.4911972595807965
3.887043189368771,3.5064615286129954
3.9069767441860463,3.5197518451185017
3.9269102990033224,3.531038986516747
3.9468438538205985,3.5402982584930154
3.9667774086378738,3.547509455965829
3.98671096345515,3.5526568321348404
4.0066445182724255,3.5557290754118362
4.026578073089701,3.556719294080637
4.046511627906977,3.5556250085787844
4.0664451827242525,3.5524481513442474
4.086378737541528,3.5471950742223872
4.106312292358805,3.539876563481224
4.1262458471760795,3.530507862535159
4.146179401993356,3.5191087025284626
4.166112956810632,3.505703340977555
4.186046511627907,3.490320608715367
4.205980066445183,3.4729939654186035
4.225913621262459,3.4537615640288424
4.245847176079734,3.432666324396818
4.26578073089701,3.409756016484064
4.2857142857142865,3.3850833534415483
4.305647840531561,3.358706094846859
4.325581395348838,3.330687160312568
4.345514950166113,3.3010947535708053
4.365448504983389,3.270002496982547
4.385382059800665,3.2374895762034743
4.40531561461794,3.2036408944459853
4.425249169435216,3.1685472353938264
4.445182724252492,3.1323054333302944
4.465116279069767,3.095018548413228
4.485049833887043,3.0567960442427724
4.50498338870432,3.0177539638964523
4.524916943521594,2.978015099421829
4.544850498338871,2.9377091483540907
4.5647840531561465,2.8969728491412137
4.584717607973422,2.8559500853995763
4.604651162790698,2.814791946686297
4.624584717607974,2.7736567309843045
4.644518272425249,2.732709871403704
4.664451827242526,2.692123766806771
4.6843853820598005,2.6520774933162508
4.704318936877076,2.6127563711938335
4.724252491694353,2.574351359683404
4.7441860465116275,2.5370582514987556
4.764119601328904,2.501076639179706
4.78405315614618,2.4666086280884834
4.803986710963455,2.433857275941177
4.823920265780731,2.4030247469843364
4.8438538205980075,2.3743101806074973
4.863787375415282,2.3479072894210873
4.883720930232559,2.3240017203039836
4.9036544850498345,2.302768232774872
4.92358803986711,2.284367770790078
4.943521594684386,2.2689445246496875
4.963455149501661,2.256623096592471
4.983388704318937,2.247505894224892
5.003322259136213,2.241670877783169
5.023255813953488,2.2391697787561333
5.043189368770764,2.2400268881797496
5.063122923588041,2.244238483995533
5.083056478405315,2.2517729307470393
5.102990033222592,2.2625714452336356
5.122923588039868,2.2765494827895307
5.142857142857143,2.2935986647389126
5.162790697674419,2.3135891416191576
5.182724252491695,2.336372271004213
5.20265780730897,2.361783483745394
5.222591362126246,2.3896452173228027
5.242524916943522,2.419769807854387
5.262458471760797,2.45196225062672
5.282392026578074,2.486022760150951
5.3023255813953485,2.521749082323666
5.322259136212625,2.558938531409698
5.342192691029901,2.5973897419935033
5.362126245847176,2.63690414009572
5.382059800664452,2.677287148154138
5.4019933554817285,2.7183491457158553
5.421926910299003,2.759906211916148
5.44186046511628,2.801780677666503
5.4617940199335555,2.8438015155072676
5.48172757475083,2.8858045938236656
5.501661129568107,2.9276328200303543
5.5215946843853825,2.969136194764299
5.541528239202658,3.0101717963657797
5.561461794019934,3.050603712174121
5.5813953488372094,3.0903029305484138
5.601328903654485,3.1291472051291116
5.621262458471762,3.167020900721783
5.641196013289036,3.203814828326474
5.661129568106313,3.2394260752468678
5.681063122923589,3.273757834878292
5.700996677740864,3.3067192396660086
5.72093023255814,3.3382251998211396
5.740863787375416,3.3681962496510875
5.760797342192691,3.396558402781846
5.780730897009967,3.423243017093435
5.800664451827243,3.448186669839509
5.820598006644518,3.4713310431566446
5.840531561461795,3.492622819973556
5.8604651162790695,3.5120135901912386
5.880398671096346,3.529459766911877
5.900332225913622,3.544922512436291
5.920265780730897,3.5583676737206207
5.940199335548173,3.5697657269764402
5.960132890365449,3.5790917311087886
5.980066445182724,3.5863252897110383
6.0,3.5914505213696204
6.0199335548172765,3.5944560380741692
6.039867109634551,3.595334931576462
6.059800664451828,3.5940847675938685
6.0797342192691035,3.590707587808035
6.099667774086379,3.585209919666349
6.119601328903655,3.577602794051303
6.139534883720931,3.567901770939924
6.159468438538206,3.556126973231383
6.179401993355482,3.5423031289741345
6.1993355481727574,3.526459622272993
6.219269102990033,3.508630553200294
6.23920265780731,3.4888548070704863
6.259136212624584,3.4671761334621594
6.279069767441861,3.443643235382017
6.299003322259137,3.4183098689564675
6.318936877076412,3.3912349540039557
6.338870431893688,3.3624826957764764
6.3588039867109645,3.332122718055039
6.378737541528239,3.300230207628661
6.398671096345516,3.266886069968788
6.418604651162791,3.2321770956142397
6.438538205980066,3.1961961363884597
6.458471760797343,3.159042290058505
6.4784053156146175,3.120821091391476
6.498338870431894,3.0816447067382957
6.51827242524917,3.04163212825035
6.538205980066445,3.0009093625776657
6.558139534883721,2.9596096073782863
6.578073089700998,2.917873407160755
6.598006644518272,2.8758487778648893
6.617940199335549,2.8336912871577256
6.6378737541528245,2.791564074699247
6.6578073089701,2.7496377936705327
6.677740863787376,2.7080904517559974
6.6976744186046515,2.667107126696118
6.717607973421927,2.6268795287219233
6.737541528239203,2.587605379985164
6.7574750830564785,2.5494875799475434
6.777408637873754,2.512733126129836
6.797342192691031,2.47755176226192
6.8172757475083055,2.444154331367307
6.837209302325582,2.412750820257381
6.857142857142858,2.3835480947330208
6.877076411960133,2.3567473416142932
6.897009966777409,2.3325412541844015
6.9169435215946855,2.311111020766932
6.93687707641196,2.2926232002707905
6.956810631229236,2.277226591271632
6.9767441860465125,2.2650492196867775
6.996677740863787,2.256195581329217
7.016611295681064,2.250744276931314
7.036544850498339,2.248746166859289
7.056478405315615,2.2502231503490906
7.076411960132891,2.2551676410356043
7.096345514950166,2.263542769829904
7.116279069767442,2.2752833021009433
7.136212624584719,2.29029721348732
7.156146179401993,2.30846783209945
7.17607973421927,2.3296564279456904
7.196013289036546,2.3537051151596753
7.21594684385382,2.380439929327178
7.235880398671097,2.4096739496684467
7.2558139534883725,2.4412103516639463
7.275747508305648,2.4748452969871155
7.295681063122924,2.5103705913639796
7.3156146179402,2.5475760646299035
7.335548172757475,2.58625164884437
7.355481727574752,2.6261891486033644
7.3754152823920265,2.66718371207293
7.395348837209303,2.709035021700841
7.415282392026579,2.751548230369743
7.435215946843854,2.7945346724776554
7.45514950166113,2.837812380702641
7.475083056478406,2.8812064386627325
7.495016611295681,2.924549197886267
7.514950166112956,2.967680384942133
7.5348837209302335,3.010447121618295
7.554817275747508,3.0527038779587654
7.574750830564784,3.0943123749686534
7.5946843853820605,3.1351414509973043
7.614617940199336,3.175066903282304
7.634551495016611,3.213971313913553
7.6544850498338874,3.251743867561678
7.674418604651163,3.288280166693994
7.694352159468439,3.323482048652105
7.714285714285715,3.3572574078572153
7.73421926910299,3.3895200255120725
7.754152823920266,3.4201894084526328
7.774086378737542,3.449190638238129
7.794019933554818,3.476454231131289
7.813953488372093,3.501916009288414
7.83388704318937,3.5255169832312605
7.853820598006645,3.547203245495093
7.8737541528239205,3.566925875224068
7.893687707641197,3.584640853406515
7.913621262458472,3.6003089883985635
7.9335548172757475,3.613895851367671
7.953488372093024,3.6253717212924124
7.9734219269103,3.6347115391753784
7.9933554817275745,3.641894871159854
8.013289036544851,3.646905880283685
8.033222591362128,3.649733306654336
8.053156146179402,3.6503704558844263
8.073089700996679,3.6488151956866797
8.093023255813954,3.6450699605892236
8.11295681063123,3.6391417647958257
8.132890365448505,3.6310422232802475
8.152823920265782,3.6207875812676895
8.172757475083056,3.608398752319678
8.192691029900331,3.5939013652988816
8.21262458471761,3.5773258205474945
8.232558139534884,3.5587073556638265
8.252491694352159,3.5380861213054744
8.272425249169435,3.5155072674800336
8.292358803986712,3.491021040803098
8.312292358803987,3.4646828932022227
8.332225913621263,3.436553602520771
8.352159468438538,3.406699405416848
8.372093023255815,3.375192142853248
8.392026578073091,3.3421094183216336
8.411960132890366,3.307534768723671
8.43189368770764,3.271557847527872
8.451827242524917,3.234274619411912
8.471760797342194,3.1957875650628
8.491694352159469,3.1562058941130315
8.511627906976745,3.1156457633097316
8.53156146179402,3.0742304959081395
8.551495016611296,3.032090796917067
8.571428571428573,2.989364957162296
8.591362126245848,2.946199037141756
8.611295681063122,2.9027470192984177
8.6312292358804,2.8591709146222346
8.651162790697676,2.8156408064274263
8.67109634551495,2.77233481078941
8.691029900332227,2.729438929575756
8.710963455149502,2.687146768448781
8.730897009966778,2.6456590889289258
8.750830564784053,2.605183160973394
8.77076411960133,2.5659318810524607
8.790697674418604,2.5281226210243557
8.81063122923588,2.49197577594717
8.830564784053157,2.457712985089477
8.850498338870432,2.425555010525051
8.870431893687707,2.3957192723409513
8.890365448504983,2.368417058796732
8.91029900332226,2.343850453318927
8.930232558139535,2.3222090468208276
8.950166112956811,2.3036665314748173
8.970099667774086,2.288377297887859
8.990033222591363,2.2764731782187213
9.00996677740864,2.2680604895694083
9.029900332225914,2.26321753191584
9.049833887043189,2.261992681019557
9.069767441860467,2.2644031890479686
9.089700996677742,2.2704347659498567
9.109634551495017,2.280041966858255
9.129568106312293,2.2931493601846387
9.14950166112957,2.309653403387112
9.169435215946844,2.3294249138770144
9.189368770764121,2.3523119950042224
9.209302325581396,2.378143263410871
9.22923588039867,2.4067312240885284
9.249169435215949,2.437875651301877
9.269102990033224,2.4713668540756006
9.289036544850498,2.5069887306395544
9.308970099667773,2.544521543689025
9.328903654485051,2.583744374727729
9.348837209302326,2.6244372391172406
9.368770764119601,2.6663828626010417
9.388704318936878,2.709368134587275
9.408637873754152,2.7531852635142138
9.428571428571429,2.797632665700034
9.448504983388705,2.8425156219069323
9.46843853820598,2.8876467361848386
9.488372093023255,2.9328462301249125
9.508305647840533,2.9779421030654314
9.528239202657808,3.022770185558317
9.548172757475083,3.067174109901076
9.56810631229236,3.1110052180407024
9.588039867109636,3.154122423840176
9.60797342192691,3.1963920436742237
9.627906976744187,3.2376876066408977
9.647840531561462,3.27788965335598
9.667774086378738,3.3168855303281894
9.687707641196015,3.354569185270309
9.70764119601329,3.3908409673499564
9.727574750830565,3.425607435291028
9.747508305647841,3.458781175361001
9.767441860465118,3.4902806305923644
9.787375415282392,3.5200299420517505
9.807308970099669,3.547958802564778
9.827242524916944,3.574002323001509
9.84717607973422,3.5981009110087756
9.867109634551497,3.6202001619234245
9.887043189368772,3.6402507615015534
9.906976744186046,3.6582084000417696
9.926910299003321,3.674033697455704
9.9468438538206,3.6876921388396298
9.966777408637874,3.6991540201216124
9.986710963455149,3.7083944033930765
10.006644518272426,3.715393081580288
10.026578073089702,3.7201345521660465
10.046511627906977,3.7226079997326944
10.066445182724253,3.722807287163617
10.086378737541528,3.7207309554092562
10.106312292358805,3.7163822317952997
10.126245847176081,3.7097690469234275
10.146179401993356,3.7009040602887437
10.16611295681063,3.68980469481135
10.186046511627907,3.6764931805519807
10.205980066445184,3.6609966079520366
10.225913621262459,3.6433469910052154
10.245847176079735,3.62358134082984
10.26578073089701,3.601741750165042
10.285714285714286,3.577875489357912
10.305647840531563,3.5520351144381257
10.325581395348838,3.5242785878863474
10.345514950166113,3.494669412687225
10.36544850498339,3.463276780207565
10.385382059800666,3.4301757323463002
10.40531561461794,3.3954473382516746
10.425249169435217,3.3591788856766547
10.445182724252492,3.321464086727151
10.465116279069768,3.2824032973256276
10.485049833887045,3.2421037491363314
10.50498338870432,3.2006797919470134
10.524916943521594,3.1582531435358003
10.544850498338871,3.1149531428305997
10.564784053156147,3.0709170006460993
10.584717607973422,3.0262900404143123
10.604651162790697,2.981225919063759
10.624584717607974,2.935886815516969
10.64451827242525,2.89044357114504
10.664451827242525,2.8450757629551244
10.684385382059801,2.7999716863455553
10.704318936877076,2.7553282200663847
10.724252491694353,2.7113505417776245
10.74418604651163,2.668251658628591
10.764119601328904,2.6262517140486508
10.784053156146179,2.585577030057618
10.803986710963457,2.5464588446414624
