Time (s),Filtered Signal
0.0,0.006924393699434855
0.03337028824833703,-0.10418806958470671
0.06674057649667406,-0.21671341674605535
0.10011086474501109,-0.3276957948891712
0.13348115299334812,-0.42774249798611835
0.16685144124168516,-0.5023195582128983
0.20022172949002218,-0.5363236298428877
0.2335920177383592,-0.5202590023499095
0.26696230598669624,-0.455475819483779
0.3003325942350333,-0.3560592440189596
0.3337028824833703,-0.24612276592304502
0.3670731707317073,-0.15303795649666826
0.40044345898004435,-0.09881207470693507
0.4338137472283814,-0.09269818970262272
0.4671840354767184,-0.1278180214704194
0.5005543237250555,-0.1832039483434101
0.5339246119733925,-0.23073284984546744
0.5672949002217295,-0.24463543183638628
0.6006651884700666,-0.2102872460377236
0.6340354767184035,-0.12921559581425948
0.6674057649667406,-0.018620559312523904
0.7007760532150776,0.0943433731885261
0.7341463414634146,0.18153633571866554
0.7675166297117517,0.22314981894391636
0.8008869179600887,0.21454056511347902
0.8342572062084257,0.16854465675115748
0.8676274944567628,0.11237753052822308
0.9009977827050998,0.07952789406476299
0.9343680709534368,0.0984861172263965
0.9677383592017739,0.18154079107632415
1.001108647450111,0.31768417474577004
1.0344789356984478,0.4731324110157531
1.067849223946785,0.6006869428074582
1.101219512195122,0.6556426689190856
1.134589800443459,0.6126459564693958
1.167960088691796,0.476606656548248
1.2013303769401331,0.28256418606265116
1.23470066518847,0.08388309102909067
1.268070953436807,-0.06667528792838746
1.3014412416851442,-0.13524372243663238
1.3348115299334813,-0.1172764838025699
1.3681818181818182,-0.03685359766467835
1.4015521064301553,0.06337878708683668
1.4349223946784924,0.13664603118894733
1.4682926829268292,0.14572835897997247
1.5016629711751663,0.07268509191992172
1.5350332594235034,-0.07667054268828599
1.5684035476718403,-0.2741003292514715
1.6017738359201774,-0.4764268676640139
1.6351441241685145,-0.6383975736034128
1.6685144124168514,-0.7276152348820943
1.7018847006651885,-0.7357068074718891
1.7352549889135256,-0.6798158717608985
1.7686252771618625,-0.5922476406066279
1.8019955654101996,-0.5024753609541593
1.8353658536585367,-0.4211061782822872
1.8687361419068735,-0.3358224141815159
1.9021064301552106,-0.2232753922586878
1.9354767184035477,-0.07109530401458544
1.9688470066518848,0.10356627888931275
2.002217294900222,0.2527023805783644
2.035587583148559,0.31825915151451845
2.0689578713968957,0.2665219331673785
2.102328159645233,0.11717194206049705
2.13569844789357,-0.052193984844913006
2.1690687361419068,-0.13396608455821904
2.202439024390244,-0.04104038770026621
2.235809312638581,0.24424257464736104
2.269179600886918,0.6492720979495664
2.302549889135255,1.0327663043677802
2.335920177383592,1.2420273644458548
2.369290465631929,1.1801759763340818
2.4026607538802662,0.8512221606750809
2.436031042128603,0.36063671461917646
2.46940133037694,-0.12954404981086498
2.5027716186252773,-0.46992926390596246
2.536141906873614,-0.5845734474104772
2.569512195121951,-0.4954613577687777
2.6028824833702884,-0.3012991173919374
2.6362527716186253,-0.12369651302933445
2.6696230598669626,-0.048719745344414665
2.7029933481152995,-0.09200343480262674
2.7363636363636363,-0.20191126454028308
2.7697339246119737,-0.2954220807766705
2.8031042128603105,-0.305844636795302
2.8364745011086474,-0.2175699367929958
2.8698447893569847,-0.0718051298688289
2.9032150776053216,0.05691623161505753
2.9365853658536585,0.09929620033954999
2.969955654101996,0.024898027488806873
3.0033259423503327,-0.1445886998427971
3.0366962305986696,-0.34642075890961677
3.070066518847007,-0.5044463801089181
3.1034368070953438,-0.5592371668985985
3.1368070953436806,-0.48779245428202994
3.170177383592018,-0.3066369627178137
3.203547671840355,-0.06029721341705759
3.2369179600886917,0.19720318523857813
3.270288248337029,0.41910575533687955
3.303658536585366,0.5753314721214913
3.337028824833703,0.6539232452114891
3.37039911308204,0.657746067670524
3.403769401330377,0.6004692129827381
3.437139689578714,0.5038246343004518
3.470509977827051,0.39530583480291265
3.503880266075388,0.3040648783318815
3.537250554323725,0.2536714821141728
3.5706208425720622,0.25283934276852876
3.603991130820399,0.2876117748989463
3.637361419068736,0.31951351846242454
3.6707317073170733,0.29321111935945315
3.70410199556541,0.1542317913187809
3.737472283813747,-0.1272452344274054
3.7708425720620844,-0.5351518389981997
3.8042128603104213,-0.9996628588668289
3.8375831485587586,-1.4106259548544535
3.8709534368070955,-1.651733521816285
3.9043237250554323,-1.643948629102109
3.9376940133037697,-1.3793255018704973
3.9710643015521065,-0.9279731212933903
4.004434589800444,-0.41235698319403935
4.037804878048781,0.04081082808839571
4.071175166297118,0.34900550177924516
4.1045454545454545,0.5000529963514099
4.137915742793791,0.5449495648784292
4.171286031042128,0.5633508571642967
4.204656319290466,0.6207511300201779
4.238026607538803,0.7384874963731639
4.27139689578714,0.8888661922162894
4.304767184035477,1.0139564757691253
4.3381374722838135,1.0557566382160906
4.371507760532151,0.9824011191130914
4.404878048780488,0.7997111668393052
4.438248337028825,0.5457855208525828
4.471618625277162,0.27384410231539064
4.504988913525499,0.03228338603289104
4.538359201773836,-0.14963624441325507
4.571729490022173,-0.26576036950435267
4.60509977827051,-0.32701275154998505
4.638470066518847,-0.35007149682124655
4.671840354767184,-0.3472904661028843
4.705210643015521,-0.3229099680226347
4.738580931263858,-0.2765756459781571
4.771951219512196,-0.2108245256965299
4.8053215077605325,-0.1369235432962187
4.838691796008869,-0.07456448821640793
4.872062084257206,-0.04484514887722075
4.905432372505543,-0.06040462229568839
4.93880266075388,-0.11872196122704486
4.972172949002218,-0.20287572146606955
5.005543237250555,-0.2894344035235103
5.0389135254988915,-0.3586304262896413
5.072283813747228,-0.4006556060911082
5.105654101995565,-0.41474842306069826
5.139024390243902,-0.40279781004480913
5.17239467849224,-0.3629789934216664
5.205764966740577,-0.28880538668761163
5.239135254988914,-0.174927180887633
5.2725055432372505,-0.02575420784018695
5.305875831485587,0.13979747225069408
5.339246119733925,0.2922844865193293
5.372616407982262,0.40371799113580115
5.405986696230599,0.46104845992783283
5.439356984478936,0.4725796105161443
5.472727272727273,0.46213030186179255
5.5060975609756095,0.4529962482073036
5.539467849223947,0.45063683605003185
5.572838137472284,0.43514192202587015
5.606208425720621,0.36999243208624166
5.639578713968958,0.22437542239704686
5.672949002217295,-0.002552957881630155
5.706319290465632,-0.2700831898215702
5.7396895787139695,-0.5063486217783995
5.773059866962306,-0.6385776253529002
5.806430155210643,-0.6295143545457542
5.83980044345898,-0.5010750498716037
5.873170731707317,-0.330797260207686
5.906541019955654,-0.21933932065264372
5.939911308203992,-0.24227639186028366
5.9732815964523285,-0.40909870902642065
6.006651884700665,-0.6510288132852086
6.040022172949002,-0.8465372087882249
6.073392461197339,-0.8748055094330892
6.106762749445676,-0.6722842279149254
6.140133037694014,-0.26442769996387294
6.173503325942351,0.24377521887312356
6.2068736141906875,0.7142311135779212
6.240243902439024,1.036138619256619
6.273614190687361,1.1706952418156786
6.306984478935698,1.1593522140596881
6.340354767184036,1.0940573271567198
6.373725055432373,1.066719523972073
6.40709534368071,1.1236883583133588
6.4404656319290465,1.2459248538216612
6.473835920177383,1.3610180103225467
6.507206208425721,1.377894969634409
6.540576496674058,1.226501208002301
6.573946784922395,0.8854985805286743
6.607317073170732,0.3887431079490219
6.640687361419069,-0.18878635316449877
6.674057649667406,-0.7571145290194389
6.707427937915743,-1.2377366200740492
6.74079822616408,-1.5806855282675685
6.774168514412417,-1.7682960395613183
6.807538802660754,-1.8084405117546767
6.840909090909091,-1.724045162540459
6.874279379157428,-1.5451502114681568
6.9076496674057655,-1.3056104722971986
6.941019955654102,-1.042008312523456
6.974390243902439,-0.7907284343043068
7.007760532150776,-0.5813379669754194
7.041130820399113,-0.42842485828544347
7.07450110864745,-0.32661082738765856
7.107871396895788,-0.2525814897460081
7.1412416851441245,-0.1743345224812591
7.174611973392461,-0.06402151029084183
7.207982261640798,0.09085102385176654
7.241352549889135,0.2819626380731754
7.274722838137472,0.4820104671658956
7.30809312638581,0.6531013760908808
7.341463414634147,0.7595911776866625
7.3748337028824835,0.7822414037515677
7.40820399113082,0.7294173205534652
7.441574279379157,0.6403425033211865
7.474944567627494,0.5765413784674653
7.508314855875832,0.6013925705091213
7.541685144124169,0.7532869459407909
7.575055432372506,1.0226264514504078
7.6084257206208425,1.343852654225899
7.641796008869179,1.6093359473901716
7.675166297117517,1.703322081008055
7.708536585365854,1.5446792857209672
7.741906873614191,1.1214633904165687
7.775277161862528,0.5018218159625562
7.808647450110865,-0.18518525090942592
7.842017738359202,-0.7923438745384879
7.875388026607539,-1.2035422448870932
7.908758314855876,-1.3695948211570879
7.942128603104213,-1.3170268382593913
7.97549889135255,-1.128365281427113
8.008869179600888,-0.9044282266132232
8.042239467849225,-0.7255023608932298
8.075609756097561,-0.62700807460353
8.108980044345898,-0.5976743223002688
8.142350332594235,-0.5980205315573603
8.175720620842572,-0.5882919106233356
8.209090909090909,-0.5514069883166322
8.242461197339246,-0.49959098313006634
8.275831485587583,-0.46202726854665094
8.30920177383592,-0.4610529603912299
8.342572062084257,-0.49089344098568377
8.375942350332595,-0.5119875403103837
8.409312638580932,-0.4658074718413845
8.442682926829269,-0.30394076340231313
8.476053215077606,-0.01698664670847416
8.509423503325943,0.35212630718289206
8.54279379157428,0.718898177370482
8.576164079822616,0.989133310197998
8.609534368070953,1.0983714442531844
8.64290465631929,1.0406227941009036
8.676274944567627,0.8719188758483133
8.709645232815964,0.6852347710328848
8.743015521064303,0.5670045259219143
8.77638580931264,0.5553164387886331
8.809756097560976,0.6205867994203043
8.843126385809313,0.6796994186566949
8.87649667405765,0.6382844238642144
8.909866962305987,0.44100765253891244
8.943237250554324,0.10445814143525359
8.97660753880266,-0.2850816015666609
9.009977827050998,-0.6094041904374481
9.043348115299334,-0.7739359930114301
9.076718403547671,-0.7537371129834503
9.110088691796008,-0.6066668362600547
9.143458980044347,-0.4462884397530648
9.176829268292684,-0.3869071517020547
9.21019955654102,-0.48715674088745564
9.243569844789358,-0.7197362543768403
9.276940133037694,-0.9823537058081423
9.310310421286031,-1.1446420742834305
9.343680709534368,-1.108040767419729
9.377050997782705,-0.8496926313307227
9.410421286031042,-0.4303500057850058
9.443791574279379,0.035057216891912026
9.477161862527716,0.4275695238841088
9.510532150776053,0.6705644437193216
9.543902439024391,0.753028070439243
9.577272727272728,0.7240378685102624
9.610643015521065,0.6662414122273345
9.644013303769402,0.6625913425203884
9.677383592017739,0.7687293791176302
9.710753880266076,0.9970213734478758
9.744124168514412,1.3126379069313938
9.77749445676275,1.6400999595361812
9.810864745011086,1.8793254081132698
9.844235033259423,1.9302042543626645
9.87760532150776,1.7219433755770142
9.910975609756099,1.2389508411074641
9.944345898004435,0.5326516745618901
9.977716186252772,-0.2882116941424278
10.01108647450111,-1.0876208543916508
10.044456762749446,-1.7417546520592757
10.077827050997783,-2.1720693218817577
10.11119733924612,-2.3593686131256777
10.144567627494457,-2.335765103759663
10.177937915742794,-2.161607529498576
10.21130820399113,-1.899713128326942
10.244678492239467,-1.5976047841975105
10.278048780487804,-1.2821229750888727
10.311419068736143,-0.9640477390711093
10.34478935698448,-0.6466919963332624
10.378159645232817,-0.3328188131962015
10.411529933481154,-0.027391063888806882
10.44490022172949,0.26281954992145945
10.478270509977827,0.5300108700259849
10.511640798226164,0.7646723490690329
10.545011086474501,0.9542017999885181
10.578381374722838,1.083608621897456
10.611751662971175,1.1405662285683664
10.645121951219512,1.1238258192736752
10.67849223946785,1.0501947018899664
10.711862527716187,0.9540384792962305
10.745232815964524,0.8763290798723475
10.778603104212861,0.846410314310945
10.811973392461198,0.8651987908151498
10.845343680709535,0.8996589125547553
10.878713968957872,0.8937165119016481
10.912084257206208,0.7924431086817979
10.945454545454545,0.5688515002972009
10.978824833702882,0.24028599764799113
11.012195121951219,-0.13419742962190434
11.045565410199556,-0.4749019695339515
11.078935698447895,-0.711263145076274
11.112305986696231,-0.8063614493468534
11.145676274944568,-0.7654508246932474
11.179046563192905,-0.6267299736179084
11.212416851441242,-0.44194247862084646
11.245787139689579,-0.2584398238928573
11.279157427937916,-0.11082201704590106
11.312527716186253,-0.022125778458875978
11.34589800443459,-0.007834307276099729
11.379268292682926,-0.07544501040673147
11.412638580931263,-0.2178735192707784
11.4460088691796,-0.40600304584647456
11.479379157427939,-0.5886731193251314
11.512749445676276,-0.7048831651316861
11.546119733924613,-0.7052040299550908
11.57949002217295,-0.5726054069111093
11.612860310421286,-0.3317759743786999
11.646230598669623,-0.04149820540934526
11.67960088691796,0.2265585637381391
11.712971175166297,0.41248018324782215
11.746341463414634,0.4851736510553903
11.77971175166297,0.4459586068617957
11.813082039911308,0.3202905367772405
11.846452328159646,0.1444559971002572
11.879822616407983,-0.04558306952365377
11.91319290465632,-0.21969773008836524
11.946563192904657,-0.35438436647120897
11.979933481152994,-0.43198628502817354
12.01330376940133,-0.4408365871563216
12.046674057649668,-0.3768073536450558
12.080044345898004,-0.24528357905229323
12.113414634146341,-0.062350284667282936
12.146784922394678,0.1456022084631864
12.180155210643015,0.34440791121932196
12.213525498891352,0.49736867230580295
12.24689578713969,0.5734114576213197
12.280266075388028,0.5569362585100205
12.313636363636364,0.4559989541660319
12.347006651884701,0.30415863252521014
12.380376940133038,0.15258142134903452
12.413747228381375,0.05320421968777293
12.447117516629712,0.03899921189638261
12.480487804878049,0.11031927466218856
12.513858093126386,0.2345078388005738
12.547228381374723,0.35981522689745377
12.58059866962306,0.43741471128674486
12.613968957871396,0.44108420713678453
12.647339246119735,0.3753860907827975
12.680709534368072,0.2692625577937053
12.714079822616409,0.1594618248393831
12.747450110864746,0.07300592799761012
12.780820399113082,0.01755414597049128
12.81419068736142,-0.016486517176816835
12.847560975609756,-0.04491984556907512
12.880931263858093,-0.07726730769775705
12.91430155210643,-0.11057439699078699
12.947671840354767,-0.1331960149604084
12.981042128603104,-0.1361748506968189
13.014412416851442,-0.12511324091618406
13.04778270509978,-0.1246396003491884
13.081152993348116,-0.1711664664911346
13.114523281596453,-0.29586819900685624
13.14789356984479,-0.5055801728130699
13.181263858093127,-0.771630452557617
13.214634146341464,-1.0338989641034124
13.2480044345898,-1.2204471698740222
13.281374722838137,-1.2750253843994832
13.314745011086474,-1.179910858308579
13.348115299334811,-0.9629494099295396
13.381485587583148,-0.6851589828033146
13.414855875831487,-0.4149472289193547
13.448226164079824,-0.20148024503253273
13.48159645232816,-0.05938656126555256
13.514966740576497,0.029775650417292642
13.548337028824834,0.10288761662399575
13.581707317073171,0.19716104176301616
13.615077605321508,0.33815250878207775
13.648447893569845,0.537766199768957
13.681818181818182,0.7986340441300291
13.715188470066519,1.1170443461328192
13.748558758314855,1.4785902212801019
13.781929046563192,1.847774988772833
13.815299334811531,2.160160032697576
13.848669623059868,2.327795018652132
13.882039911308205,2.263050964276798
13.915410199556542,1.9149026571269954
13.948780487804878,1.301506285860456
13.982150776053215,0.5204359596710714
14.015521064301552,-0.2737613793560432
14.048891352549889,-0.9192422234096999
14.082261640798226,-1.3034853342128008
14.115631929046563,-1.4014880686379703
14.1490022172949,-1.2783909330273564
14.182372505543238,-1.0565888815044286
14.215742793791575,-0.8640092903778644
14.249113082039912,-0.787376748010352
14.282483370288249,-0.8489943263209835
14.315853658536586,-1.0120641520618028
14.349223946784923,-1.2060351204477462
14.38259423503326,-1.3568896415794345
14.415964523281596,-1.4096145858249398
14.449334811529933,-1.3379159121670656
14.48270509977827,-1.1436997646958589
14.516075388026607,-0.8517548862940019
14.549445676274944,-0.5032167576009583
14.582815964523283,-0.1478833682102054
14.61618625277162,0.16608693169512406
14.649556541019956,0.40474937948150363
14.682926829268293,0.5593739831843593
14.71629711751663,0.6500727343009122
14.749667405764967,0.7180702128324349
14.783037694013304,0.8077960299532086
14.81640798226164,0.9456621758313488
14.849778270509978,1.1252124287651473
14.883148558758315,1.3063789816228746
14.916518847006651,1.4304721419774542
14.949889135254988,1.4450783969310275
14.983259423503327,1.3278424359341303
15.016629711751664,1.097808145852711
15.05,0.8080850205276431
15.083370288248338,0.5221485074355442
15.116740576496674,0.2843473705291252
15.150110864745011,0.09906611883631485
15.183481152993348,-0.0701192726518427
15.216851441241685,-0.27938644698268567
15.250221729490022,-0.5712221968663521
15.283592017738359,-0.9452978571425584
15.316962305986696,-1.3488645184053243
15.350332594235034,-1.6920200399035945
15.383702882483371,-1.8805239639592302
15.417073170731708,-1.8506685109307137
15.450443458980045,-1.5913735898241959
15.483813747228382,-1.1466607684767436
15.517184035476719,-0.6011203599698651
15.550554323725056,-0.05629658245489217
15.583924611973393,0.3943488715309127
15.61729490022173,0.6871441836970816
15.650665188470066,0.803524306036459
15.684035476718403,0.7752727530468823
15.71740576496674,0.6754574812792769
15.750776053215079,0.5935912019934722
15.784146341463416,0.6002818521404353
15.817516629711752,0.7142070773215005
15.85088691796009,0.8874588716641724
15.884257206208426,1.0203324926444304
15.917627494456763,1.00393825388852
15.9509977827051,0.7740869950984928
15.984368070953437,0.3510045170873096
16.017738359201775,-0.15701961444600077
16.05110864745011,-0.5919152841159957
16.08447893569845,-0.8109229410748936
16.117849223946784,-0.7487349281392829
16.151219512195123,-0.44709933308103017
16.184589800443458,-0.0376349125053418
16.217960088691797,0.31389952260538767
16.251330376940132,0.4756985877933431
16.28470066518847,0.3996747480079785
16.31807095343681,0.1325803519046489
16.351441241685144,-0.212765180667932
16.384811529933483,-0.5096495835242563
16.418181818181818,-0.6683732796536226
16.451552106430157,-0.6651249300350953
16.48492239467849,-0.5404197733007403
16.51829268292683,-0.3725650021769469
16.551662971175165,-0.24076820720894093
16.585033259423504,-0.1940929339253223
16.61840354767184,-0.2374012370995816
16.651773835920178,-0.33695354770934416
16.685144124168513,-0.44018344213152283
16.71851441241685,-0.4992448585998427
16.75188470066519,-0.48776504940798265
16.785254988913525,-0.4046419787245082
16.818625277161864,-0.265652708692789
16.8519955654102,-0.08970915286929021
16.885365853658538,0.11134276109849749
16.918736141906873,0.3334807189899161
16.95210643015521,0.5721534918669373
16.985476718403547,0.811018676188206
17.018847006651885,1.0162174358184215
17.05221729490022,1.1420366579668884
17.08558758314856,1.147607438152154
17.118957871396898,1.0175210295970012
17.152328159645233,0.7754845503892598
17.18569844789357,0.48190920033863965
17.219068736141907,0.21357359679231525
17.252439024390245,0.03303840305038931
17.28580931263858,-0.03783723991087148
17.31917960088692,-0.026417501280082183
17.352549889135254,0.0057166409158018105
17.385920177383593,-0.005289194236095904
