Frequency (Hz),Amplitude
0.0,3.1102625231675405
0.019801980198019802,3.1094020386037533
0.039603960396039604,3.1068225558495
0.0594059405940594,3.102529990679908
0.07920792079207921,3.0965342126101607
0.09900990099009901,3.0888490597682656
0.1188118811881188,3.079492359789547
0.13861386138613863,3.0684859567993237
0.15841584158415842,3.055855744559609
0.1782178217821782,3.041631705857743
0.19801980198019803,3.025847958206433
0.21782178217821782,3.0085428059040336
0.2376237623762376,2.9897587984661818
0.25742574257425743,2.969542795382756
0.27722772277227725,2.947946037071482
0.297029702970297,2.925024221786344
0.31683168316831684,2.9008375880887574
0.33663366336633666,2.875451002294279
0.3564356435643564,2.848934050058714
0.37623762376237624,2.821361130955428
0.39603960396039606,2.79281155450831
0.4158415841584158,2.763369635672075
0.43564356435643564,2.733124787178873
0.45544554455445546,2.7021716054876426
0.4752475247524752,2.6706099462668056
0.495049504950495,2.638544984404849
0.5148514851485149,2.6060872524717356
0.5346534653465347,2.5733526503498108
0.5544554455445545,2.5404624174290396
0.5742574257425742,2.5075430573450475
0.594059405940594,2.474726203776257
0.613861386138614,2.44214841437956
0.6336633663366337,2.409950878633285
0.6534653465346534,2.378279024308242
0.6732673267326733,2.347282006674799
0.6930693069306931,2.317112064588343
0.7128712871287128,2.287923728517819
0.7326732673267327,2.2598728676523057
0.7524752475247525,2.233115566692641
0.7722772277227723,2.207806828021282
0.7920792079207921,2.1840991017720386
0.8118811881188118,2.1621406548795274
0.8316831683168316,2.1420738002695274
0.8514851485148516,2.124033018509153
0.8712871287128713,2.1081430157569416
0.891089108910891,2.0945167727741185
0.9108910891089109,2.0832536489259836
0.9306930693069307,2.074437611292335
0.9504950495049505,2.068135661087198
0.9702970297029703,2.0643965267172684
0.99009900990099,2.0632496846107062
1.00990099009901,2.064704755651395
1.0297029702970297,2.06875130753222
1.0495049504950495,2.0753590730431277
1.0693069306930694,2.0844785730801347
1.0891089108910892,2.096042112980423
1.108910891089109,2.109965103482866
1.1287128712871286,2.1261476446012173
1.1485148514851484,2.1444763028137044
1.1683168316831685,2.164826009407522
1.188118811881188,2.1870620101623466
1.2079207920792079,2.2110418029477286
1.227722772277228,2.236617009103972
1.2475247524752475,2.2636351354513686
1.2673267326732673,2.2919411952849154
1.2871287128712872,2.3213791678113704
1.3069306930693068,2.3517932854772368
1.3267326732673268,2.383029147088125
1.3465346534653466,2.414934661338806
1.3663366336633662,2.447360830356962
1.3861386138613863,2.480162386245144
1.405940594059406,2.5131982956019634
1.4257425742574257,2.546332147868619
1.4455445544554455,2.579432443339572
1.4653465346534653,2.612372796036419
1.4851485148514851,2.6450320655796435
1.504950495049505,2.677294430875623
1.5247524752475248,2.70904941699936
1.5445544554455446,2.7401918851953386
1.5643564356435644,2.7706219945104222
1.5841584158415842,2.8002451422577828
1.6039603960396038,2.828971889316503
1.6237623762376237,2.856717875209882
1.6435643564356437,2.8834037269785844
1.6633663366336633,2.9089549650681015
1.683168316831683,2.933301908774776
1.7029702970297032,2.956379583229379
1.7227722772277227,2.978127629429973
1.7425742574257426,2.9984902184539206
1.7623762376237624,3.017415970671121
1.782178217821782,3.034857880535135
1.801980198019802,3.0507732473369527
1.8217821782178218,3.0651236121581897
1.8415841584158414,3.0778747011496326
1.8613861386138615,3.088996375180066
1.881188118811881,3.0984625858443398
1.900990099009901,3.106251337783286
1.920792079207921,3.1123446572483764
1.9405940594059405,3.11672856683611
1.9603960396039604,3.119393066320125
1.98019801980198,3.12033211951881
2.0,3.1195436471519056
2.01980198019802,3.117029525658976
2.0396039603960396,3.1127955919741326
2.0594059405940595,3.106851654273586
2.0792079207920793,3.0992115087340157
2.099009900990099,3.0898929623588582
2.118811881188119,3.078917861944856
2.1386138613861387,3.0663121292704694
2.1584158415841586,3.052105802589661
2.1782178217821784,3.0363330845058334
2.1980198019801978,3.019032396278919
2.217821782178218,3.000246438580608
2.237623762376238,2.9800222586535203
2.257425742574257,2.958411323746133
2.2772277227722775,2.935469600579225
2.297029702970297,2.911257640446607
2.3168316831683167,2.8858406693531236
2.336633663366337,2.859288682339264
2.3564356435643563,2.831676540822503
2.376237623762376,2.8030840713908067
2.3960396039603964,2.77359616400006
2.4158415841584158,2.743302866943767
2.4356435643564356,2.712299475265378
2.455445544554456,2.6806866084620076
2.4752475247524752,2.648570272372897
2.495049504950495,2.616061899052493
2.514851485148515,2.5832783572004248
2.5346534653465347,2.550341924371403
2.5544554455445545,2.5173802107458894
2.5742574257425743,2.4845260227557278
2.594059405940594,2.4519171534007373
2.6138613861386135,2.4196960847668483
2.633663366336634,2.388009587203516
2.6534653465346536,2.3570081990160285
2.673267326732673,2.3268455705926523
2.6930693069306932,2.2976776578650604
2.712871287128713,2.2696617521566873
2.7326732673267324,2.24295533706589
2.7524752475247527,2.2177147682714655
2.7722772277227725,2.194093779162765
2.792079207920792,2.1722418239640033
2.811881188118812,2.152302280321269
2.8316831683168315,2.1344105446836665
2.8514851485148514,2.1186920654977164
2.8712871287128716,2.105260370254873
2.891089108910891,2.0942151516056455
2.910891089108911,2.085640483835443
2.9306930693069306,2.079603242849755
2.9504950495049505,2.0761517996034327
2.9702970297029703,2.075315048283548
2.99009900990099,2.0771018167882187
3.00990099009901,2.081500689061487
3.0297029702970297,2.0884802481498905
3.0495049504950495,2.0979897273312416
3.0693069306930694,2.1099600363401763
3.089108910891089,2.1243051124147776
3.108910891089109,2.1409235330195195
3.128712871287129,2.159700319467111
3.148514851485148,2.180508858413694
3.1683168316831685,2.203212870888357
3.1881188118811883,2.2276683652328635
3.2079207920792077,2.2537255199015944
3.227722772277228,2.281230453262724
3.2475247524752473,2.3100268492003706
3.267326732673267,2.3399574184977596
3.2871287128712874,2.370865185996779
3.3069306930693068,2.4025946019618845
3.3267326732673266,2.434992482745796
3.346534653465347,2.4679087907714354
3.366336633663366,2.501197267152784
3.386138613861386,2.5347159322007924
3.4059405940594063,2.5683274698587053
3.4257425742574257,2.60189951204538
3.4455445544554455,2.6353048381968045
3.4653465346534653,2.668421504193287
3.485148514851485,2.701132913512625
3.504950495049505,2.73332784199109
3.5247524752475248,2.764900426101147
3.5445544554455446,2.795750123236339
3.564356435643564,2.8257816511732594
3.5841584158415842,2.854904912683638
3.603960396039604,2.883034910207231
3.6237623762376234,2.9100916545706204
3.6435643564356437,2.9360000709421197
3.6633663366336635,2.9606899045403434
3.683168316831683,2.9840956280516595
3.702970297029703,3.006156352247225
3.722772277227723,3.026815740911469
3.7425742574257423,3.0460219308885823
3.762376237623762,3.063727457810882
3.7821782178217824,3.0798891878832535
3.801980198019802,3.094468255952019
3.8217821782178216,3.107430009977613
3.841584158415842,3.118743961951317
3.8613861386138613,3.128383745241617
3.881188118811881,3.1363270783213695
3.9009900990099013,3.142555734807696
3.9207920792079207,3.1470555197408356
3.9405940594059405,3.1498162520313913
3.96039603960396,3.15083175301678
3.98019801980198,3.1500998410841325
4.0,3.1476223323371824
4.01980198019802,3.143405047307108
4.03960396039604,3.1374578237301156
4.0594059405940595,3.129794535436743
4.079207920792079,3.1204331174175453
4.099009900990099,3.109395597145442
4.118811881188119,3.0967081322447187
4.138613861386139,3.0824010545986393
4.158415841584159,3.0665089209785465
4.178217821782178,3.0490705702554544
4.198019801980198,3.0301291872157066
4.217821782178218,3.0097323729419285
4.237623762376238,2.9879322216340243
4.257425742574258,2.964785403626022
4.2772277227722775,2.940353254196938
4.297029702970297,2.914701867568853
4.316831683168317,2.8879021952238504
4.336633663366336,2.8600301473433114
4.356435643564357,2.8311666957660635
4.376237623762377,2.801397976363888
4.3960396039603955,2.77081538813089
4.415841584158416,2.739515685563808
4.435643564356436,2.7076010600624842
4.455445544554455,2.675179205093591
4.475247524752476,2.6423633587324584
4.4950495049504955,2.6092723159303652
4.514851485148514,2.5760304014620754
4.534653465346535,2.5427673930205517
4.554455445544555,2.5096183823925147
4.574257425742574,2.476723561146892
4.594059405940594,2.444227915905932
4.613861386138614,2.4122808171924492
4.633663366336633,2.381035485240551
4.653465346534653,2.3506483162468186
4.673267326732674,2.3212780535798774
4.693069306930693,2.2930847907330754
4.712871287128713,2.26622879656169
4.732673267326733,2.240869158812089
4.752475247524752,2.2171622492482146
4.772277227722772,2.195260022781909
4.792079207920793,2.1753081736785425
4.811881188118812,2.1574441836407448
4.8316831683168315,2.1417953085942183
4.851485148514852,2.128476562272043
4.871287128712871,2.1175887639916593
4.891089108910891,2.109216724056535
4.910891089108912,2.1034276418307165
4.930693069306931,2.1002697878911682
4.9504950495049505,2.09977153243903
4.97029702970297,2.101940767671291
4.99009900990099,2.1067647530789673
5.00990099009901,2.1142103912356713
5.02970297029703,2.1242249195416214
5.0495049504950495,2.1367369826648512
5.069306930693069,2.1516580329441592
5.089108910891089,2.1688839931931643
5.108910891089109,2.1882971089499614
5.128712871287129,2.2097679153495404
5.148514851485149,2.2331572469467385
5.1683168316831685,2.2583182260190533
5.188118811881188,2.285098174910743
5.207920792079208,2.31334040956338
5.227722772277227,2.342885883343335
5.247524752475248,2.373574661670978
5.267326732673268,2.4052472180994227
5.2871287128712865,2.437745550976219
5.306930693069307,2.4709141264864205
5.326732673267327,2.5046006587473753
5.346534653465346,2.538656740862868
5.366336633663367,2.572938342684901
5.3861386138613865,2.6073061917429046
5.405940594059405,2.641626053652299
5.425742574257426,2.6757689275510304
5.445544554455446,2.7096111709450676
5.465346534653465,2.743034566942735
5.485148514851486,2.7759263453550074
5.504950495049505,2.8081791676313106
5.524752475247524,2.83969108415548
5.544554455445545,2.8703654710859268
5.564356435643565,2.9001109527131397
5.584158415841584,2.9288413142354575
5.603960396039604,2.9564754089219756
5.623762376237624,2.982937062832875
5.643564356435643,3.0081549795928804
5.663366336633663,3.032062647150774
5.683168316831684,3.05459824799399
5.702970297029703,3.0757045739094764
5.7227722772277225,3.0953289460784923
5.742574257425743,3.11342314105218
5.762376237623762,3.1299433229670286
5.782178217821782,3.1448499822155367
5.801980198019803,3.1581078806807286
5.821782178217822,3.1696860035654955
5.841584158415841,3.1795575177958773
5.861386138613861,3.1876997369439057
5.881188118811881,3.194094092599081
5.900990099009901,3.198726112112864
5.920792079207921,3.201585402646019
5.9405940594059405,3.2026656414612527
5.96039603960396,3.2019645724215957
5.98019801980198,3.19948400867696
6.0,3.1952298415448523
6.01980198019802,3.1892120556154726
6.03960396039604,3.1814447501349115
6.0594059405940595,3.171946166740675
6.079207920792079,3.1607387236406215
6.099009900990099,3.1478490563365
6.118811881188119,3.133308064995977
6.138613861386139,3.117150968567633
6.158415841584159,3.099417365711564
6.178217821782178,3.0801513025772875
6.198019801980198,3.0594013473988686
6.217821782178218,3.037220671787475
6.237623762376237,3.013667138478763
6.257425742574258,2.988803395129028
6.2772277227722775,2.962696973541175
6.297029702970296,2.935420393430141
6.316831683168317,2.9070512694958643
6.336633663366337,2.8776724201483637
6.356435643564356,2.8473719757105
6.376237623762377,2.8162434832963523
6.396039603960396,2.784386004812165
6.415841584158415,2.7519042036415313
6.435643564356436,2.718908414545759
6.455445544554456,2.68551469013083
6.475247524752475,2.6518448159063555
6.495049504950495,2.618026284504837
6.514851485148515,2.584192218072542
6.534653465346534,2.5504812262393113
6.554455445544554,2.517037185504327
6.574257425742575,2.484008924453647
6.594059405940594,2.451549798106193
6.6138613861386135,2.419817134064319
6.633663366336634,2.3889715332601327
6.653465346534653,2.359176009209764
6.673267326732673,2.3305949521026323
6.693069306930694,2.303392908039599
6.712871287128713,2.277733169518598
6.732673267326732,2.2537761809736283
6.752475247524753,2.231677772763301
6.772277227722772,2.211587248213634
6.792079207920792,2.1936453606099557
6.811881188118813,2.1779822295706266
6.8316831683168315,2.164715257916295
6.851485148514851,2.153947119675855
6.871287128712871,2.145763895896725
6.891089108910891,2.1402334362491864
6.910891089108911,2.137404020186165
6.930693069306931,2.137303381351638
6.9504950495049505,2.139938143420708
6.97029702970297,2.1452936957081796
6.99009900990099,2.153334514412314
7.00990099009901,2.1640049123562033
7.02970297029703,2.1772301787192725
7.0495049504950495,2.192918052441902
7.069306930693069,2.210960460154679
7.089108910891089,2.2312354423728444
7.108910891089109,2.253609190338264
7.128712871287128,2.2779381196888115
7.148514851485149,2.3040709150360663
7.1683168316831685,2.33185049023808
7.188118811881187,2.361115821330212
7.207920792079208,2.3917036215184773
7.227722772277228,2.4234498393810737
7.247524752475247,2.4561909717881254
7.267326732673268,2.4897651916471726
7.287128712871287,2.524013297270347
7.306930693069306,2.558779494990117
7.326732673267327,2.5939120298043066
7.346534653465347,2.6292636805638376
7.366336633663366,2.664692136811757
7.3861386138613865,2.7000602741182136
7.405940594059406,2.735236343885423
7.425742574257425,2.7700940923333603
7.445544554455446,2.804512821893754
7.465346534653466,2.838377406669245
7.485148514851485,2.8715782720518646
7.504950495049505,2.9040113471064375
7.524752475247524,2.935577996950694
7.544554455445544,2.9661849411276777
7.564356435643565,2.9957441628756074
7.584158415841584,3.0241728132554386
7.603960396039604,3.051393113289173
7.623762376237624,3.0773322565821677
7.643564356435643,3.101922314336841
7.663366336633663,3.1251001442002515
7.683168316831684,3.146807304010585
7.702970297029703,3.1669899712048974
7.7227722772277225,3.1855988684116507
7.742574257425743,3.202589195565744
7.762376237623762,3.217920568742792
7.782178217821782,3.231556965804536
7.801980198019803,3.243466678873105
7.821782178217822,3.2536222736016267
7.841584158415841,3.2620005551785547
7.861386138613862,3.268582540988444
7.881188118811881,3.2733534398500437
7.900990099009901,3.276302637760056
7.92079207920792,3.277423690086113
7.9405940594059405,3.276714320172597
7.96039603960396,3.2741764243469955
7.980198019801979,3.2698160833401526
8.0,3.2636435801599673
8.01980198019802,3.255673424483259
8.03960396039604,3.245924383652835
8.05940594059406,3.2344195203847885
8.07920792079208,3.2211862373027067
8.099009900990099,3.206256328418212
8.118811881188119,3.1896660376689545
8.138613861386139,3.171456124602008
8.158415841584159,3.151671937249114
8.178217821782178,3.1303634921755816
8.198019801980198,3.107585561591438
8.217821782178218,3.083397767284975
8.237623762376238,3.057864680967551
8.257425742574258,3.031055930395359
8.277227722772277,3.003046310348203
8.297029702970297,2.973915897186274
8.316831683168317,2.943750165258862
8.336633663366337,2.9126401028918365
8.356435643564357,2.880682325016808
8.376237623762377,2.847979178710859
8.396039603960396,2.8146388369779434
8.415841584158416,2.7807753750105313
8.435643564356436,2.746508821918627
8.455445544554456,2.711965179505597
8.475247524752476,2.6772763981224106
8.495049504950495,2.64258029797764
8.514851485148515,2.6080204225762706
8.534653465346535,2.5737458092934427
8.554455445544555,2.539910660582882
8.574257425742575,2.5066738981394514
8.594059405940595,2.4741985816919336
8.613861386138613,2.4426511742509858
8.633663366336634,2.412200636868033
8.653465346534654,2.3830173385830458
8.673267326732672,2.35527177154703
8.693069306930694,2.329133067538751
8.712871287128714,2.3047673203786396
8.732673267326732,2.282335729022804
8.752475247524753,2.261992588096736
8.772277227722773,2.243883165706784
8.792079207920791,2.2281415216351204
8.811881188118813,2.214888331280154
8.831683168316832,2.204228790552982
8.85148514851485,2.1962506829457156
8.871287128712872,2.1910226908878725
8.891089108910892,2.1885930284453465
8.91089108910891,2.1889884611505264
8.930693069306932,2.1922137617841746
8.950495049504951,2.1982516295176326
8.97029702970297,2.207063075854031
8.990099009900991,2.2185882565379025
9.00990099009901,2.2327477063364753
9.029702970297029,2.249443915335936
9.04950495049505,2.2685631725707807
9.06930693069307,2.2899775961074877
9.089108910891088,2.313547268069286
9.10891089108911,2.3391223978006113
9.12871287128713,2.3665454452521404
9.148514851485148,2.395653148315451
9.16831683168317,2.426278410837515
9.188118811881187,2.458252021147316
9.207920792079207,2.4914041831473765
9.227722772277229,2.5255658526923064
9.247524752475247,2.5605698807255552
9.267326732673267,2.5962519713648273
9.287128712871288,2.6324514678981745
9.306930693069306,2.669011982689664
9.326732673267326,2.7057818885759017
9.346534653465348,2.742614689767549
9.366336633663366,2.7793692898449236
9.386138613861386,2.815910173417122
9.405940594059407,2.852107516617617
9.425742574257425,2.887837240012469
9.445544554455445,2.922981015831539
9.465346534653467,2.9574262397937505
9.485148514851485,2.9910659762481036
9.504950495049505,3.0237988839313625
9.524752475247526,3.0555291283719583
9.544554455445544,3.08616628585338
9.564356435643564,3.115625242887184
9.584158415841586,3.1438260943261542
9.603960396039604,3.170694042560746
9.623762376237623,3.1961592996715895
9.643564356435645,3.2201569939443124
9.663366336633663,3.2426270817754186
9.683168316831683,3.2635142656967964
9.702970297029704,3.2827679190096775
9.722772277227723,3.300342017336253
9.742574257425742,3.316195077258911
9.762376237623764,3.330290102116172
9.782178217821782,3.342594534953322
9.801980198019802,3.353080218579269
9.821782178217823,3.3617233626544687
9.841584158415841,3.368504517723556
9.861386138613861,3.373408556107718
9.881188118811881,3.376424659582857
9.900990099009901,3.37754631378749
9.92079207920792,3.3767713093280385
9.94059405940594,3.3741017495755536
9.96039603960396,3.369544065176987
9.98019801980198,3.3631090353324926
10.0,3.354811815918279
10.01980198019802,3.344671974558818
10.03960396039604,3.3327135327724386
10.05940594059406,3.318965015327192
10.07920792079208,3.3034595069481036
10.099009900990099,3.2862347165085772
10.118811881188119,3.267333048815365
10.138613861386139,3.2468016840530334
10.158415841584159,3.224692664886302
10.178217821782178,3.2010629911202124
10.198019801980198,3.175974721682187
10.217821782178218,3.14949508350839
10.237623762376238,3.1216965866790765
10.257425742574258,3.0926571448437468
10.277227722772277,3.062460199592448
10.297029702970297,3.031194846952329
10.316831683168317,2.9989559636011744
10.336633663366337,2.965844329677703
10.356435643564357,2.9319667442146247
10.376237623762377,2.897436128210968
10.396039603960396,2.8623716091831293
10.415841584158416,2.8268985796839665
10.435643564356436,2.791148720759443
10.455445544554454,2.755259979640288
10.475247524752476,2.7193764891782823
10.495049504950495,2.68364841469581
10.514851485148514,2.6482317121181054
10.534653465346535,2.6132877796361345
10.554455445544555,2.578982983886614
10.574257425742573,2.5454880409649276
10.594059405940595,2.5129772327879136
10.613861386138614,2.4816274407138086
10.633663366336632,2.451616981243472
10.653465346534654,2.4231242333897893
10.673267326732674,2.3963260541663636
10.693069306930692,2.3713959877363844
10.712871287128714,2.348502285002328
10.732673267326733,2.3278057634555545
10.752475247524751,2.3094575512637645
10.772277227722773,2.2935967738282472
