Frequency (Hz),Amplitude
0.0,0.05383930346391197
0.019801980198019802,0.2099983455736336
0.039603960396039604,0.40931536578081823
0.0594059405940594,0.6105179593898128
0.07920792079207921,0.8117087666917706
0.09900990099009901,1.0123387925454486
0.1188118811881188,1.212092453107974
0.13861386138613863,1.4107222710662015
0.15841584158415842,1.6080072262416432
0.1782178217821782,1.8037389279646416
0.19801980198019803,1.997716181929567
0.21782178217821782,2.189742618682066
0.2376237623762376,2.379625599378635
0.25742574257425743,2.5671757107837974
0.27722772277227725,2.752206554051171
0.297029702970297,2.934534689154141
0.31683168316831684,3.113979665751358
0.33663366336633666,3.2903641037378986
0.3564356435643564,3.4635138029797954
0.37623762376237624,3.6332578702869216
0.39603960396039606,3.7994288563893623
0.4158415841584158,3.9618628983765816
0.43564356435643564,4.1203998646525495
0.45544554455445546,4.274883500431592
0.4752475247524752,4.42516157240913
0.495049504950495,4.57108601163245
0.5148514851485149,4.71251305385388
0.5346534653465347,4.849303376822128
0.5544554455445545,4.981322234085787
0.5742574257425742,5.108439584966995
0.594059405940594,5.230530220422467
0.613861386138614,5.347473884553431
0.6336633663366337,5.459155391558482
0.6534653465346534,5.565464737949164
0.6732673267326733,5.666297209867579
0.6930693069306931,5.7615534853619925
0.7128712871287128,5.851139731489741
0.7326732673267327,5.934967696128201
0.7524752475247525,6.012954794385164
0.7722772277227723,6.085024189508489
0.7920792079207921,6.151104868204076
0.8118811881188118,6.211131710278054
0.8316831683168316,6.265045552527577
0.8514851485148516,6.312793246810792
0.8712871287128713,6.354327712234042
0.891089108910891,6.389607981400891
0.9108910891089109,6.418599240674127
0.9306930693069307,6.441272864408504
0.9504950495049505,6.457606443118475
0.9702970297029703,6.467583805551549
0.99009900990099,6.471195034644151
1.00990099009901,6.468436477343669
1.0297029702970297,6.459310748286056
1.0495049504950495,6.4438267273253835
1.0693069306930694,6.421999550917741
1.0891089108910892,6.393850597368
1.108910891089109,6.359407465954954
1.1287128712871286,6.318703949956035
1.1485148514851484,6.27178000359965
1.1683168316831685,6.218681702979287
1.188118811881188,6.159461200970348
1.2079207920792079,6.094176676196623
1.227722772277228,6.022892276100622
1.2475247524752475,5.94567805417797
1.2673267326732673,5.862609901443396
1.2871287128712872,5.773769472202774
1.3069306930693068,5.679244104212786
1.3267326732673268,5.579126733318
1.3465346534653466,5.473515802662598
1.3663366336633662,5.362515166583923
1.3861386138613863,5.246233989303717
1.405940594059406,5.124786638545339
1.4257425742574257,4.998292574217234
1.4455445544554455,4.866876232319043
1.4653465346534653,4.730666904245491
1.4851485148514851,4.5897986116872636
1.504950495049505,4.444409977358749
1.5247524752475248,4.29464409182407
1.5445544554455446,4.140648376748005
1.5643564356435644,3.9825744449763416
1.5841584158415842,3.8205779579599843
1.6039603960396038,3.6548184811970765
1.6237623762376237,3.4854593386042443
1.6435643564356437,3.3126674670874063
1.6633663366336633,3.1366132731400573
1.683168316831683,2.957470494184006
1.7029702970297032,2.7754160688170297
1.7227722772277227,2.5906300225734116
1.7425742574257426,2.4032953800526173
1.7623762376237624,2.213598121956695
1.782178217821782,2.0217272200850696
1.801980198019802,1.827874812142225
1.8217821782178218,1.6322366388980036
1.8415841584158414,1.4350130034812902
1.8613861386138615,1.236410851145768
1.881188118811881,1.036648499481233
1.900990099009901,0.8359675057084505
1.920792079207921,0.634667576135851
1.9405940594059405,0.43323960806956247
1.9603960396039604,0.23318828446920656
1.98019801980198,0.05810335332083204
2.0,0.18682267778277054
2.01980198019802,0.3857986908085916
2.0396039603960396,0.5871534140826088
2.0594059405940595,0.788584161926352
2.0792079207920793,0.9894974995645643
2.099009900990099,1.1895679152217973
2.118811881188119,1.3885446935256833
2.1386138613861387,1.5862053863889187
2.1584158415841586,1.7823407632456432
2.1782178217821784,1.976748997013863
2.1980198019801978,2.1692331549381065
2.217821782178218,2.3596000491327938
2.237623762376238,2.547659707760858
2.257425742574257,2.733225153080247
2.2772277227722775,2.916112340995655
2.297029702970297,3.096140189822634
2.3168316831683167,3.273130660122011
2.336633663366337,3.446908864438796
2.3564356435643563,3.6173031946714964
2.376237623762376,3.784145459667894
2.3960396039603964,3.9472710284169237
2.4158415841584158,4.106518975841329
2.4356435643564356,4.261732229189018
2.455445544554456,4.412757713641923
2.4752475247524752,4.559446496158549
2.495049504950495,4.701653926827479
2.514851485148515,4.839239777184081
2.5346534653465347,4.9720683750623
2.5544554455445545,5.100008735637735
2.5742574257425743,5.222934688378192
2.594059405940594,5.340724999661761
2.6138613861386135,5.4532634908556785
2.633663366336634,5.56043915167441
2.6534653465346536,5.662146248655489
2.673267326732673,5.758284428607726
2.6930693069306932,5.848758816900093
2.712871287128713,5.933480110470868
2.7326732673267324,6.01236466544708
2.7524752475247527,6.085334579273071
2.7722772277227725,6.1523177672556715
2.792079207920792,6.213248033440982
2.811881188118812,6.2680651357453465
2.8316831683168315,6.316714845270209
2.8514851485148514,6.359148999737226
2.8712871287128716,6.395325550986954
2.891089108910891,6.425208606490911
2.910891089108911,6.448768464833331
2.9306930693069306,6.4659816451253675
2.9504950495049505,6.476830910321026
2.9702970297029703,6.4813052844103405
2.99009900990099,6.479400063471739
3.00990099009901,6.471116820571922
3.0297029702970297,6.4564634045077645
3.0495049504950495,6.435453932391359
3.0693069306930694,6.408108776085282
3.089108910891089,6.374454542501905
3.108910891089109,6.334524047786561
3.128712871287129,6.288356285410946
3.148514851485148,6.235996388209456
3.1683168316831685,6.1774955843975805
3.1881188118811883,6.112911147617872
3.2079207920792077,6.042306341065617
3.227722772277228,5.965750355752938
3.2475247524752473,5.883318242976642
3.267326732673267,5.79509084106232
3.2871287128712874,5.701154696463991
3.3069306930693068,5.601601979306369
3.3267326732673266,5.496530393464517
3.346534653465347,5.386043081284204
3.366336633663366,5.2702485230556455
3.386138613861386,5.149260431363649
3.4059405940594063,5.0231976404492205
3.4257425742574257,4.8921839907318505
3.4455445544554455,4.756348208658654
3.4653465346534653,4.615823782068142
3.485148514851485,4.470748831283501
3.504950495049505,4.321265976186426
3.5247524752475248,4.167522199571056
3.5445544554455446,4.0096687071445904
3.564356435643564,3.847860784636264
3.5841584158415842,3.6822576526132287
3.603960396039604,3.5130223198047634
3.6237623762376234,3.340321436042313
3.6435643564356437,3.1643251463965383
3.6633663366336635,2.9852069488434982
3.683168316831683,2.803143559014975
3.702970297029703,2.6183147876398256
3.722772277227723,2.4309034398396645
3.7425742574257423,2.2410952518431544
3.762376237623762,2.0490788927021275
3.7821782178217824,1.8550460823056993
3.801980198019802,1.6591919265686568
3.8217821782178216,1.4617156817894725
3.841584158415842,1.2628224312452088
3.8613861386138613,1.0627268924920303
3.881188118811881,0.8616628641398745
3.9009900990099013,0.6599104337380998
3.9207920792079207,0.45789589300300026
3.9405940594059405,0.25676400075734734
3.96039603960396,0.06957349007517424
3.98019801980198,0.16328802951635124
4.0,0.36238819800818606
4.01980198019802,0.5642969543141403
4.03960396039604,0.7663288623802124
4.0594059405940595,0.967868546089403
4.079207920792079,1.1685888483572535
4.099009900990099,1.3682392934134895
4.118811881188119,1.5665976019659922
4.138613861386139,1.7634544547561706
4.158415841584159,1.958607720643043
4.178217821782178,2.1518600034739976
4.198019801980198,2.343017534429219
4.217821782178218,2.531889671631314
4.237623762376238,2.7182886973286595
4.257425742574258,2.9020297705289
4.2772277227722775,3.0829309649427605
4.297029702970297,3.260813355465559
4.316831683168317,3.435501132898426
4.336633663366336,3.6068217351888703
4.356435643564357,3.774605988145828
4.376237623762377,3.938688251234988
4.3960396039603955,4.098906565616948
4.415841584158416,4.255102802533451
4.435643564356436,4.407122810734121
4.455445544554455,4.554816562011549
4.475247524752476,4.698038294158098
4.4950495049504955,4.8366466508224235
4.514851485148514,4.9705048178561855
4.534653465346535,5.099480655820279
4.554455445544555,5.223446828376307
4.574257425742574,5.342280926330243
4.594059405940594,5.455865587126356
4.613861386138614,5.564088609613117
4.633663366336633,5.666843063922095
4.653465346534653,5.764027396315645
4.673267326732674,5.855545528872681
4.693069306930693,5.94130695389237
4.712871287128713,6.021226822905689
4.732673267326733,6.095226030193348
4.752475247524752,6.163231290716978
4.772277227722772,6.225175212377733
4.792079207920793,6.280996362524122
4.811881188118812,6.3306393286374965
4.8316831683168315,6.3740547731306645
4.851485148514852,6.4111994822016145
4.871287128712871,6.442036408690863
4.891089108910891,6.466534708897517
4.910891089108912,6.4846697733154075
4.930693069306931,6.496423251257138
4.9504950495049505,6.501783069340235
4.97029702970297,6.500743443815784
4.99009900990099,6.493304886726541
5.00990099009901,6.4794742058873895
5.02970297029703,6.459264498687995
5.0495049504950495,6.432695139722886
5.069306930693069,6.399791762261487
5.089108910891089,6.360586233576215
5.108910891089109,6.315116624153429
5.128712871287129,6.263427170818266
5.148514851485149,6.2055682338107
5.1683168316831685,6.141596247856668
5.188118811881188,6.071573667284357
5.207920792079208,5.995568905242409
5.227722772277227,5.913656267083263
5.247524752475248,5.825915877981539
5.267326732673268,5.732433604864356
5.2871287128712865,5.63330097273745
5.306930693069307,5.528615075498455
5.326732673267327,5.418478481336635
5.346534653465346,5.302999132826757
5.366336633663367,5.182290241834375
5.3861386138613865,5.056470179360116
5.405940594059405,4.925662360462991
5.425742574257426,4.789995124417251
5.445544554455446,4.649601610275142
5.465346534653465,4.504619628030399
5.485148514851486,4.355191525606599
5.504950495049505,4.20146405193351
5.524752475247524,4.0435882164277315
5.544554455445545,3.881719145269179
5.564356435643565,3.716015934972153
5.584158415841584,3.5466415039081465
5.603960396039604,3.3737624426753015
5.623762376237624,3.1975488645759773
5.643564356435643,3.018174258042708
5.663366336633663,2.8358153437919835
5.683168316831684,2.6506519410544986
5.702970297029703,2.462866849939491
5.7227722772277225,2.27264576184178
5.742574257425743,2.0801772188613428
5.762376237623762,1.8856526609685305
5.782178217821782,1.6892666365161555
5.801980198019803,1.491217333594117
5.821782178217822,1.2917077873278033
5.841584158415841,1.0909486469307461
5.861386138613861,0.8891650031190137
5.881188118811881,0.6866157035753506
5.900990099009901,0.4836619229668985
5.920792079207921,0.2811338176262971
5.9405940594059405,0.08600527246666566
5.96039603960396,0.1389859088682905
5.98019801980198,0.33878334927641124
6.0,0.5416796039775074
6.01980198019802,0.744692034338717
6.03960396039604,0.9472163817818524
6.0594059405940595,1.1489343859397778
6.079207920792079,1.3495999322396408
6.099009900990099,1.5489927206750764
6.118811881188119,1.7469041679525261
6.138613861386139,1.9431321884645925
6.158415841584159,2.137479021683209
6.178217821782178,2.3297502753733754
6.198019801980198,2.5197545109837107
6.217821782178218,2.707303092127187
6.237623762376237,2.8922101693304367
6.257425742574258,3.074292738956425
6.2772277227722775,3.2533707439530706
6.297029702970296,3.4292671986624916
6.316831683168317,3.6018083274728703
6.336633663366337,3.770823711186926
6.356435643564356,3.9361464372909554
6.376237623762377,4.097613251659736
6.396039603960396,4.2550647100478605
6.415841584158415,4.408345328225161
6.435643564356436,4.557303729936653
6.455445544554456,4.7017927920787
6.475247524752475,4.841669786624367
6.495049504950495,4.976796518927545
6.514851485148515,5.107039462103209
6.534653465346534,5.232269887229754
6.554455445544554,5.352363989155053
6.574257425742575,5.4672030077149145
6.594059405940594,5.576673344193403
6.6138613861386135,5.680666672871402
6.633663366336634,5.7790800475232595
6.653465346534653,5.871816002733373
6.673267326732673,5.958782649914239
6.693069306930694,6.039893767917014
6.712871287128713,6.11506888813344
6.732673267326732,6.184233373996093
6.752475247524753,6.247318494790838
6.772277227722772,6.304261493702688
6.792079207920792,6.355005650022686
6.811881188118813,6.399500335450434
6.8316831683168315,6.437701064433128
6.851485148514851,6.4695695384883525
6.871287128712871,6.495073684464692
6.891089108910891,6.514187686699919
6.910891089108911,6.526892013043469
6.930693069306931,6.533173434715785
6.9504950495049505,6.533025039983574
6.97029702970297,6.526446241636433
6.99009900990099,6.513442778256269
7.00990099009901,6.494026709277535
7.02970297029703,6.468216403842457
7.0495049504950495,6.436036523461666
7.069306930693069,6.397517998496999
7.089108910891089,6.352697998489517
7.108910891089109,6.301619896361929
7.128712871287128,6.244333226531172
7.148514851485149,6.180893636972859
7.1683168316831685,6.111362835285923
7.188118811881187,6.035808528811767
7.207920792079208,5.954304358869164
7.227722772277228,5.866929829171914
7.247524752475247,5.773770228503414
7.267326732673268,5.6749165477286425
7.287128712871287,5.570465391231111
7.306930693069306,5.460518882869446
7.326732673267327,5.345184566555882
7.346534653465347,5.224575301567178
7.366336633663366,5.09880915270719
7.3861386138613865,4.968009275450689
7.405940594059406,4.832303796209248
7.425742574257425,4.6918256878742115
7.445544554455446,4.546712640808331
7.465346534653466,4.397106929479391
7.485148514851485,4.243155274957006
7.504950495049505,4.085008703531631
7.524752475247524,3.922822401766975
7.544554455445544,3.7567555683712914
7.564356435643565,3.5869712633811814
7.584158415841584,3.4136362553131683
7.603960396039604,3.2369208671860155
7.623762376237624,3.056998822705936
7.643564356435643,2.8740470945354555
7.663366336633663,2.6882457576125933
7.683168316831684,2.4997778522839704
7.702970297029703,2.308829265218011
7.7227722772277225,2.1155886420124643
7.742574257425743,1.9202473569988452
7.762376237623762,1.7229995896183146
7.782178217821782,1.5240426093035158
7.801980198019803,1.3235774962510831
7.821782178217822,1.1218108565565887
7.841584158415841,0.9189590846558527
7.861386138613862,0.7152602823661404
7.881188118811881,0.5110153212816959
7.900990099009901,0.3067940741804085
7.92079207920792,0.10604554882930743
7.9405940594059405,0.11342608771522054
7.96039603960396,0.31465746298719616
7.980198019801979,0.5190104526036305
8.0,0.7234060124251592
8.01980198019802,0.9272953546458477
8.03960396039604,1.1303812986167638
8.05940594059406,1.3324264728289912
8.07920792079208,1.533214363289975
8.099009900990099,1.7325378912539164
8.118811881188119,1.9301953047753084
8.138613861386139,2.1259885212754717
8.158415841584159,2.319722431878117
8.178217821782178,2.511204629035086
8.198019801980198,2.7002453372906188
8.217821782178218,2.8866574481681515
8.237623762376238,3.070256611088857
8.257425742574258,3.250861355425437
8.277227722772277,3.4282932300796096
8.297029702970297,3.602376952775544
8.316831683168317,3.7729405643915364
8.336633663366337,3.9398155854112504
8.356435643564357,4.102837172600391
8.376237623762377,4.2618442746317795
8.396039603960396,4.416679785763755
8.415841584158416,4.567190696920283
8.435643564356436,4.713228243680149
8.455445544554456,4.854648050788933
8.475247524752476,4.991310272880727
8.495049504950495,5.123079731147757
8.514851485148515,5.249826045733424
8.534653465346535,5.371423763651789
8.554455445544555,5.4877524820577035
8.574257425742575,5.598696966708441
8.594059405940595,5.704147265471345
8.613861386138613,5.803998816743365
8.633663366336634,5.898152552658243
8.653465346534654,5.986514996966019
8.673267326732672,6.068998357477482
8.693069306930694,6.1455206129737165
8.712871287128714,6.21600559448799
8.732673267326732,6.280383060874034
8.752475247524753,6.338588768581517
8.772277227722773,6.390564535565723
8.792079207920791,6.436258299265234
8.811881188118813,6.475624168587364
8.831683168316832,6.508622469847751
8.85148514851485,6.535219786616437
8.871287128712872,6.555388993429298
8.891089108910892,6.569109283329923
8.91089108910891,6.576366189213005
8.930693069306932,6.577151598947004
8.950495049504951,6.571463764259692
8.97029702970297,6.559307303376755
8.990099009900991,6.540693197409682
9.00990099009901,6.515638780495484
9.029702970297029,6.484167723697168
9.04950495049505,6.446310012679811
9.06930693069307,6.402101919183815
9.089108910891088,6.351585966322537
9.10891089108911,6.294810887738359
9.12871287128713,6.2318315806568245
9.148514851485148,6.1627090528853685
9.16831683168317,6.08751036380856
9.188118811881187,6.006308559438834
9.207920792079207,5.919182601587124
9.227722772277229,5.826217291224606
9.247524752475247,5.727503186112757
9.267326732673267,5.623136512785334
9.287128712871288,5.513219072972483
9.306930693069306,5.397858144563631
9.326732673267326,5.277166377212989
9.346534653465348,5.151261682698516
9.366336633663366,5.020267120153285
9.386138613861386,4.884310776296681
9.405940594059407,4.743525640802597
9.425742574257425,4.598049476953314
9.445544554455445,4.448024687741268
9.465346534653467,4.29359817759833
9.485148514851485,4.1349212099542
9.504950495049505,3.9721492608557067
9.524752475247526,3.80544186891997
9.544554455445544,3.63496248195383
9.564356435643564,3.460878300659344
9.584158415841586,3.283360119977265
9.603960396039604,3.10258216882717
9.623762376237623,2.9187219493336305
9.643564356435645,2.7319600771753745
9.663366336633663,2.5424801256302203
9.683168316831683,2.350468477546366
9.702970297029704,2.156114192532684
9.722772277227723,1.959608902586109
9.742574257425742,1.7611467614889134
9.762376237623764,1.560924499742164
9.782178217821782,1.3591416992043146
9.801980198019802,1.1560015640423722
9.821782178217823,0.9517129438400007
9.841584158415841,0.7464960368317362
9.861386138613861,0.540601623536182
9.881188118811881,0.33440234505960215
9.900990099009901,0.12936156304419233
9.92079207920792,0.08600421690768628
9.94059405940594,0.28964248347401567
9.96039603960396,0.49594936108509424
9.98019801980198,0.7021553735778087
10.0,0.9078181788027098
10.01980198019802,1.1126732005763131
10.03960396039604,1.316495442440894
10.05940594059406,1.5190734824787402
10.07920792079208,1.7202021871621502
10.099009900990099,1.9196802023213333
10.118811881188119,2.117309004143211
10.138613861386139,2.312892550982107
10.158415841584159,2.506237195643747
10.178217821782178,2.6971517209363016
10.198019801980198,2.885447437428108
10.217821782178218,3.070938313986
10.237623762376238,3.2534411259390668
10.257425742574258,3.4327756126010933
10.277227722772277,3.608764639404606
10.297029702970297,3.7812343617870234
10.316831683168317,3.950014389025535
10.336633663366337,4.1149379468304925
10.356435643564357,4.2758420378751945
10.376237623762377,4.43256759966798
10.396039603960396,4.58495965931776
10.415841584158416,4.732867484839274
10.435643564356436,4.876144732708558
10.455445544554454,5.014649591423676
10.475247524752476,5.148244920857505
10.495049504950495,5.276798387212817
10.514851485148514,5.400182593408072
10.534653465346535,5.518275204736321
10.554455445544555,5.630959069651373
10.574257425742573,5.7381223355453805
10.594059405940595,5.839658559390549
10.613861386138614,5.93546681312571
10.633663366336632,6.025451783675623
10.653465346534654,6.109523867497916
10.673267326732674,6.187599259559003
10.693069306930692,6.259600036646883
10.712871287128714,6.32545423493502
10.732673267326733,6.385095921717472
10.752475247524751,6.438465261242155
10.772277227722773,6.485508574574508
10.792079207920793,6.526178393430785
10.81188118811881,6.56043350792571
