Time (s),Filtered Signal
0.0,-0.051012764848970146
0.03337004405286344,0.4663953167953687
0.06674008810572687,0.8338472922595349
0.10011013215859031,0.9630495710155164
0.13348017621145375,0.8598482209651582
0.16685022026431717,0.6115660941895535
0.20022026431718062,0.3389960895676316
0.23359030837004408,0.1395571547746043
0.2669603524229075,0.050244441067883026
0.3003303964757709,0.045778101460296275
0.33370044052863435,0.06721524637820406
0.3670704845814978,0.060960864029073615
0.40044052863436125,0.005657259969148127
0.43381057268722467,-0.08516679832747596
0.46718061674008815,-0.18100593091302103
0.5005506607929515,-0.25782777114922745
0.533920704845815,-0.3113113189395987
0.5672907488986785,-0.3530891081374127
0.6006607929515418,-0.39520199035336956
0.6340308370044053,-0.4352339154898706
0.6674008810572687,-0.4530882169018158
0.7007709251101322,-0.4218533289012221
0.7341409691629956,-0.3256031943056393
0.767511013215859,-0.17241206847339413
0.8008810572687225,0.0060756027170139676
0.834251101321586,0.16876998130946447
0.8676211453744493,0.28486949284992547
0.9009911894273128,0.34790218221240604
0.9343612334801763,0.3763296162814267
0.9677312775330397,0.40083785351865514
1.001101321585903,0.44583983019643775
1.0344713656387665,0.515485247223571
1.06784140969163,0.5913851130318549
1.1012114537444935,0.6424458414766412
1.134581497797357,0.6407163325347718
1.1679515418502202,0.5745273135651586
1.2013215859030837,0.4525385605507849
1.2346916299559472,0.29781699830234715
1.2680616740088106,0.13635242948896692
1.3014317180616741,-0.013395746431478135
1.3348017621145374,-0.14498828626834312
1.3681718061674009,-0.26159663562647517
1.4015418502202643,-0.3695246017031574
1.4349118942731278,-0.47201646611288195
1.4682819383259913,-0.5665662395347918
1.5016519823788548,-0.6462816823347844
1.535022026431718,-0.703489536809186
1.5683920704845815,-0.7330036833218418
1.601762114537445,-0.733400007353172
1.6351321585903085,-0.7062715022638011
1.668502202643172,-0.6545767277290035
1.7018722466960352,-0.5812778416524049
1.7352422907488987,-0.48879290554969346
1.7686123348017622,-0.3790897585012671
1.8019823788546256,-0.25403346646064306
1.8353524229074891,-0.1158312790465789
1.8687224669603526,0.032315244339742366
1.9020925110132159,0.18530988447028232
1.9354625550660793,0.3353675996150016
1.9688325991189428,0.47202253343930906
2.002202643171806,0.5835029638814629
2.0355726872246698,0.6593787816059763
2.068942731277533,0.6936079204211596
2.1023127753303967,0.6867497713165651
2.13568281938326,0.6463908698021095
2.1690528634361232,0.5854963569333616
2.202422907488987,0.5190563829492001
2.23579295154185,0.45985205938594337
2.269162995594714,0.414483448075443
2.302533039647577,0.38100151986016306
2.3359030837004404,0.34933571248891426
2.369273127753304,0.3049229346974986
2.4026431718061674,0.23460388918478214
2.436013215859031,0.1325737299208176
2.4693832599118943,0.003774252258875619
2.5027533039647576,-0.13697257917253972
2.5361233480176213,-0.2698884083539495
2.5694933920704845,-0.3770815878427329
2.6028634361233483,-0.44824710139489216
2.6362334801762115,-0.4827865340287042
2.6696035242290748,-0.48779365180834355
2.7029735682819385,-0.47348377325828356
2.7363436123348017,-0.4488250524402977
2.7697136563876654,-0.4196470306681933
2.8030837004405287,-0.3896289111505091
2.8364537444933924,-0.36248712131196603
2.8698237885462556,-0.34278171462227913
2.903193832599119,-0.333740568903622
2.9365638766519826,-0.3328523516947674
2.969933920704846,-0.3282422027062288
3.0033039647577096,-0.2994479434257204
3.036674008810573,-0.22442155442279121
3.070044052863436,-0.09101682562832329
3.1034140969162998,0.09227644448770712
3.136784140969163,0.29282909782195204
3.1701541850220267,0.46171854661469874
3.20352422907489,0.5516416392647236
3.2368942731277532,0.5377251221808501
3.270264317180617,0.43109726199720666
3.30363436123348,0.27731831136130475
3.337004405286344,0.13871326064791017
3.370374449339207,0.06791800503503245
3.4037444933920704,0.08498258374885662
3.437114537444934,0.16913141098556525
3.4704845814977974,0.26917416208347117
3.503854625550661,0.32733510522717324
3.5372246696035243,0.30484582211691796
3.5705947136563876,0.19732784116215385
3.6039647577092513,0.03369906303728118
3.6373348017621145,-0.13918919195898669
3.6707048458149782,-0.2772875038627796
3.7040748898678415,-0.35500937456543996
3.737444933920705,-0.36938438289706804
3.7708149779735685,-0.33322552779423975
3.8041850220264317,-0.2636434356373485
3.8375550660792954,-0.17372105630282889
3.8709251101321587,-0.07182297813466776
3.9042951541850224,0.032781342284451974
3.9376651982378856,0.12384819486825291
3.971035242290749,0.1780009126294248
4.004405286343612,0.1729694024166408
4.037775330396476,0.10082207768969788
4.0711453744493395,-0.021529463440798608
4.104515418502203,-0.1521994770062757
4.137885462555066,-0.23738790081769212
4.171255506607929,-0.23325740802647135
4.2046255506607935,-0.12665273825959777
4.237995594713657,0.0559698090686152
4.27136563876652,0.2569422647671969
4.304735682819383,0.41019616036460066
4.3381057268722465,0.4681726673773084
4.371475770925111,0.4202481766891112
4.404845814977974,0.29429403243282565
4.438215859030837,0.1414537016268009
4.4715859030837,0.012388225424346486
4.504955947136564,-0.06320161637771386
4.538325991189428,-0.08466011141557159
4.571696035242291,-0.07404485077143451
4.605066079295154,-0.060735961143352196
4.638436123348018,-0.06607841899583285
4.671806167400881,-0.0956433447798841
4.705176211453745,-0.1413760361772164
4.738546255506608,-0.1901592759318841
4.7719162995594715,-0.23243301893286863
4.805286343612335,-0.26576947520971683
4.838656387665198,-0.2924275045919674
4.872026431718062,-0.3140137426327342
4.905396475770925,-0.32785206412281287
4.938766519823789,-0.32781607260287177
4.972136563876652,-0.3087727935584953
5.005506607929515,-0.2710615181727816
5.038876651982379,-0.22145145828513238
5.072246696035243,-0.16962524170852566
5.105616740088106,-0.1224613085518295
5.138986784140969,-0.07994000721130766
5.172356828193832,-0.03536374040045002
5.2057268722466965,0.02033288387367992
5.23909691629956,0.09302004171002873
5.272466960352423,0.18196455803124606
5.305837004405286,0.28028670710801246
5.3392070484581495,0.37835658539325756
5.372577092511014,0.4674859642754589
5.405947136563877,0.5415402614727522
5.43931718061674,0.5959682360990023
5.4726872246696034,0.6257629730147358
5.506057268722468,0.6245896806583304
5.539427312775331,0.5863451279371985
5.572797356828194,0.5085716471338089
5.606167400881057,0.39574187415425044
5.639537444933921,0.2602740129474775
5.672907488986785,0.12014942925828043
5.706277533039648,-0.006458542793690388
5.739647577092511,-0.1077226664388546
5.7730176211453745,-0.1831823245483044
5.806387665198238,-0.2445731854371205
5.839757709251102,-0.31097270262947335
5.873127753303965,-0.3991228918224089
5.9064977973568284,-0.5126056510654733
5.939867841409692,-0.6353238150051044
5.973237885462555,-0.7339285339910732
6.006607929515419,-0.7700255297351185
6.039977973568282,-0.7176988821638385
6.073348017621146,-0.5780327337208438
6.106718061674009,-0.38253670699416137
6.140088105726872,-0.1822509397370562
6.173458149779736,-0.026626944890187916
6.2068281938325995,0.05786770764521833
6.240198237885463,0.07855052000066552
6.273568281938326,0.07080276483799806
6.306938325991189,0.07836907764148304
6.3403083700440535,0.12971107361980266
6.373678414096917,0.2227328897504333
6.40704845814978,0.3258428504166883
6.440418502202643,0.39465654981482223
6.4737885462555065,0.39547339504961426
6.507158590308371,0.3233806643159155
6.540528634361234,0.20596939077042925
6.573898678414097,0.09117610323291817
6.60726872246696,0.02559041116833874
6.640638766519824,0.033836918243921814
6.674008810572688,0.10859272709810605
6.707378854625551,0.21533282372012078
6.740748898678414,0.30884635462721943
6.774118942731278,0.3532861653647662
6.807488986784141,0.33634487405443614
6.840859030837005,0.2714395274276803
6.874229074889868,0.18780316499176722
6.9075991189427315,0.11417164782093972
6.940969162995595,0.06454277021782177
6.974339207048458,0.03299329384743528
7.007709251101322,-0.0003924622574140444
7.041079295154185,-0.05624457748745381
7.074449339207049,-0.14274216565546402
7.107819383259912,-0.24970632862615486
7.141189427312775,-0.35298255776944426
7.174559471365639,-0.4265003688501635
7.207929515418503,-0.45533629103516166
7.241299559471366,-0.4428131956544269
7.274669603524229,-0.4081259974367137
7.308039647577092,-0.37604952678148873
7.3414096916299565,-0.36411885630463686
7.37477973568282,-0.3734683880258136
7.408149779735683,-0.3873286655500876
7.441519823788546,-0.3774970183503636
7.47488986784141,-0.3157690209122833
7.508259911894274,-0.18564789416676367
7.541629955947137,0.009994966269919784
7.575,0.24776191732425643
7.608370044052863,0.48912691213969395
7.641740088105728,0.690442528068888
7.675110132158591,0.814479508431202
7.708480176211454,0.8401796249915935
7.741850220264317,0.7678236684999666
7.775220264317181,0.6180721635445399
7.808590308370045,0.42525178946847886
7.841960352422908,0.22733993522516388
7.875330396475771,0.05635461482997457
7.9087004405286345,-0.06760844641490464
7.942070484581498,-0.13756535782056273
7.975440528634362,-0.157409662662255
8.008810572687224,-0.13877309118499873
8.042180616740088,-0.09866019163427894
8.075550660792953,-0.05757441750608428
8.108920704845815,-0.03655889862691927
8.142290748898679,-0.05216884435037618
8.175660792951541,-0.11050849625853922
8.209030837004406,-0.2033941691148841
8.24240088105727,-0.3096964993325394
8.275770925110132,-0.4025434055804967
8.309140969162996,-0.4596502238980213
8.342511013215859,-0.4718241383175574
8.375881057268723,-0.4452919450386955
8.409251101321587,-0.39674239746136825
8.44262114537445,-0.34391014414805704
8.475991189427313,-0.2967632882053401
8.509361233480176,-0.2536704850970557
8.54273127753304,-0.2039618759937017
8.576101321585904,-0.13492990394423096
8.609471365638766,-0.0393451589188143
8.64284140969163,0.08021465983526116
8.676211453744493,0.21189758404716003
8.709581497797357,0.3390175592969549
8.742951541850221,0.4456221801710432
8.776321585903084,0.5203234597981697
8.809691629955948,0.5571120698858361
8.84306167400881,0.5540176713982365
8.876431718061674,0.5117053253243334
8.909801762114538,0.43361984303492285
8.9431718061674,0.3275833832718308
8.976541850220265,0.20715836930983494
9.009911894273127,0.09076503740231431
9.043281938325991,-0.0023235157355889274
9.076651982378856,-0.05814301450446925
9.110022026431718,-0.07388739366481006
9.143392070484582,-0.06056013025557804
9.176762114537445,-0.040435403994156426
9.210132158590309,-0.039298064928684776
9.243502202643173,-0.07582232459342833
9.276872246696035,-0.15229913488526103
9.3102422907489,-0.25119132117344445
9.343612334801762,-0.34011732389656424
9.376982378854626,-0.38427102250987116
9.41035242290749,-0.36147868498662333
9.443722466960352,-0.27307462556112133
9.477092511013216,-0.14500197442416782
9.510462555066079,-0.01790474151988596
9.543832599118943,0.06952667843959347
9.577202643171807,0.09607756950311669
9.61057268722467,0.06502260185013885
9.643942731277534,-0.0002254631209848102
9.677312775330396,-0.0687263225061853
9.71068281938326,-0.11583302555548969
9.744052863436124,-0.13136932587523364
9.777422907488987,-0.11914451013160277
9.81079295154185,-0.08970426638961979
9.844162995594713,-0.05142507500707167
9.877533039647577,-0.005183780193700218
9.910903083700441,0.054664510293180604
9.944273127753304,0.13380863765867138
9.977643171806168,0.22972135859751702
10.01101321585903,0.32646716679422766
10.044383259911895,0.39634048810515926
10.077753303964759,0.40908110491460553
10.111123348017621,0.34555450041415225
10.144493392070485,0.20980582636059675
10.177863436123348,0.03299930903012235
10.211233480176212,-0.13437057626153737
10.244603524229076,-0.24041866740123977
10.277973568281938,-0.2531845977934999
10.311343612334802,-0.17593309074879246
10.344713656387665,-0.048627592326853125
10.378083700440529,0.06667440128028351
10.411453744493393,0.11140657435842573
10.444823788546255,0.05623468456447859
10.47819383259912,-0.08489916664505352
10.511563876651982,-0.2595771434085549
10.544933920704846,-0.399129090925728
10.57830396475771,-0.448485249992009
10.611674008810573,-0.3899439466766778
10.645044052863437,-0.24984189386236394
10.678414096916299,-0.08526933495491755
10.711784140969163,0.04245111812717596
10.745154185022027,0.09464587580251668
10.77852422907489,0.07000297546077641
10.811894273127754,0.0011003645034364218
10.845264317180618,-0.06412469964440921
10.87863436123348,-0.08581635153098205
10.912004405286345,-0.04888445099776776
10.945374449339207,0.03436797997118834
10.978744493392071,0.13531445430668088
11.012114537444935,0.2265098425655673
11.045484581497798,0.29566055139211767
11.078854625550662,0.34874263369091396
11.112224669603524,0.40135630266358746
11.145594713656388,0.4640552423031186
11.178964757709252,0.5307030477078778
11.212334801762115,0.5771289254046196
11.245704845814979,0.5715009456938542
11.279074889867841,0.49116241315468184
11.312444933920705,0.3368661458351579
11.34581497797357,0.1364393555989598
11.379185022026432,-0.06475243725394324
11.412555066079296,-0.2224756645021029
11.445925110132158,-0.31270759590546465
11.479295154185023,-0.34197222559542767
11.512665198237887,-0.34369355172696203
11.546035242290749,-0.36176125103856166
11.579405286343613,-0.4285783567936612
11.612775330396476,-0.5477695216249028
11.64614537444934,-0.6899232036765511
11.679515418502204,-0.8038013888285839
11.712885462555066,-0.8380998788575451
11.74625550660793,-0.7637602013984683
11.779625550660793,-0.5866801188022402
11.812995594713657,-0.34549032426616083
11.846365638766521,-0.09621195034215028
11.879735682819383,0.10868744596217945
11.913105726872248,0.2377473607095211
11.94647577092511,0.2881380043214202
11.979845814977974,0.2821396827095487
12.013215859030838,0.2556841580950711
12.0465859030837,0.24434537879747284
12.079955947136565,0.27181335170359455
12.113325991189427,0.3439654168146963
12.146696035242291,0.449322399985748
12.180066079295155,0.5646702712734322
12.213436123348018,0.6632610685372103
12.246806167400882,0.7225023171712286
12.280176211453744,0.7286109276639664
12.313546255506608,0.6772748937163594
12.346916299559473,0.5713130864027335
12.380286343612335,0.41763618103756633
12.413656387665199,0.22570444375186777
12.447026431718061,0.008206193459764982
12.480396475770926,-0.21720965270179743
12.51376651982379,-0.4273949404424933
12.547136563876652,-0.5961791506678868
12.580506607929516,-0.7000014419772762
12.613876651982379,-0.7248893029507226
12.647246696035243,-0.6718550679255156
12.680616740088107,-0.5580843132643996
12.71398678414097,-0.4128634633994531
12.747356828193833,-0.269299249737919
12.780726872246696,-0.15460791109248934
12.81409691629956,-0.0824275507976585
12.847466960352424,-0.05000943763200584
12.880837004405286,-0.04145831427657496
12.91420704845815,-0.03590384332440898
12.947577092511013,-0.017341446198664564
12.980947136563877,0.018188917696539658
13.014317180616741,0.06162740248812566
13.047687224669604,0.09694248232593057
13.081057268722468,0.11142221079237279
13.11442731277533,0.1048407791167912
13.147797356828194,0.0922330671719193
13.181167400881058,0.09807330266224586
13.21453744493392,0.14418413401109345
13.247907488986785,0.23722816190471727
13.281277533039647,0.36216131832066034
13.314647577092511,0.4852189091715118
13.348017621145376,0.5653801313896
13.381387665198238,0.5692966742254368
13.414757709251102,0.4833605669930209
13.448127753303964,0.31831467458803275
13.481497797356829,0.10533368690478204
13.514867841409693,-0.11409232010182997
13.548237885462555,-0.3002817610865682
13.58160792951542,-0.42535341003297084
13.614977973568282,-0.4783980408441757
13.648348017621146,-0.46516517826758697
13.68171806167401,-0.40346009835017904
13.715088105726872,-0.3166147000358649
13.748458149779736,-0.2275497787850832
13.781828193832599,-0.15505703313195643
13.815198237885463,-0.11241634516857024
13.848568281938327,-0.10714905068880935
13.88193832599119,-0.1404053279529447
13.915308370044054,-0.20543504634545265
13.948678414096916,-0.2861875193237551
13.98204845814978,-0.35815853191850366
14.015418502202644,-0.3931647597117307
14.048788546255507,-0.3677037996743642
14.08215859030837,-0.2720104650289701
14.115528634361233,-0.11548987026270748
14.148898678414097,0.07490720899535872
14.182268722466961,0.26370275211422983
14.215638766519824,0.41982242380947155
14.249008810572688,0.5275436595788083
14.28237885462555,0.5900967553522414
14.315748898678414,0.6240256173979052
14.349118942731279,0.6471388789974862
14.382488986784141,0.6663503945148884
14.415859030837005,0.6719794316519316
14.449229074889868,0.6418806984680385
14.482599118942732,0.5536717066411594
14.515969162995596,0.39893142895237177
14.549339207048458,0.19188665723325113
14.582709251101322,-0.03238299723652025
14.616079295154185,-0.2299687683779884
14.649449339207049,-0.3648731216727562
14.682819383259913,-0.4224708955207571
14.716189427312775,-0.41337865236794197
14.74955947136564,-0.36639203336669157
14.782929515418502,-0.31469735935808746
14.816299559471366,-0.28263955996764595
14.84966960352423,-0.27928411522446506
14.883039647577093,-0.30057529151619666
14.916409691629957,-0.33681486583610404
14.94977973568282,-0.37959601017516753
14.983149779735683,-0.42372644529279646
15.016519823788547,-0.46391044034363127
15.04988986784141,-0.4900243113111273
15.083259911894274,-0.48595004481088705
15.116629955947138,-0.43445411872945594
15.15,-0.32625562117020424
15.183370044052865,-0.16809898927013942
15.216740088105727,0.01551888752282446
15.250110132158591,0.18915166041129947
15.283480176211455,0.3192401992766904
15.316850220264318,0.3869905479025095
15.350220264317182,0.3950223481858699
15.383590308370044,0.3646479546402513
15.416960352422908,0.32540688550873126
15.450330396475772,0.30218769230068443
15.483700440528635,0.305947180283742
15.517070484581499,0.33159704207787527
15.550440528634361,0.3627819196591978
15.583810572687225,0.38028006304483797
15.61718061674009,0.36995735926088463
15.650550660792952,0.3274046841372529
15.683920704845816,0.2583958973590664
15.717290748898678,0.17595027582334088
15.750660792951543,0.09556275833814802
15.784030837004407,0.030206389427893457
15.817400881057269,-0.013606408774999872
15.850770925110133,-0.03779868887432704
15.884140969162996,-0.05220383612469419
15.91751101321586,-0.07145217054994175
15.950881057268724,-0.10980462496902714
15.984251101321586,-0.1752149656924878
16.01762114537445,-0.26453219851896986
16.050991189427315,-0.3619255742459305
16.084361233480177,-0.44200310944053306
16.11773127753304,-0.47757497445656893
16.151101321585905,-0.4499014764879787
16.184471365638768,-0.3574533009985971
16.21784140969163,-0.21888064054206025
16.251211453744492,-0.06776930093533524
16.284581497797358,0.05958745092587445
16.31795154185022,0.13844137535657836
16.351321585903083,0.1652222211203276
16.38469162995595,0.1575713855342848
16.41806167400881,0.14433115364341895
16.451431718061674,0.15021479577172012
16.48480176211454,0.1828339948453875
16.518171806167402,0.22870022668913614
16.551541850220264,0.2601878198747221
16.584911894273127,0.24974963910231757
16.618281938325993,0.18402263051345752
16.651651982378855,0.07078274523782989
16.685022026431717,-0.06428537322158126
16.718392070484583,-0.18864385973348394
16.751762114537446,-0.27563068934131
16.785132158590308,-0.31252761587260547
16.818502202643174,-0.30093188722475545
16.851872246696036,-0.2510300780357797
16.8852422907489,-0.1745209841517048
16.91861233480176,-0.08085318328867147
16.951982378854627,0.021544204868974157
16.98535242290749,0.12118556088234449
17.01872246696035,0.20094947383639075
17.052092511013218,0.24051235462351003
17.08546255506608,0.22396704720748548
17.118832599118942,0.14900608341879545
17.152202643171808,0.03219952215038175
17.18557268722467,-0.09373490475480915
17.218942731277533,-0.190793881828962
17.2523127753304,-0.23036538494579334
