Frequency (Hz),Amplitude
0.0,0.5977967471901433
0.019867549668874173,0.5975916195652251
0.039735099337748346,0.5969766389734266
0.059602649006622516,0.595953013099835
0.07947019867549669,0.594522757550635
0.09933774834437085,0.5926887000858673
0.11920529801324503,0.5904544866177801
0.13907284768211922,0.5878245890474989
0.15894039735099338,0.5848043150336452
0.17880794701986755,0.5813998198076068
0.1986754966887417,0.5776181201710965
0.2185430463576159,0.5734671108320861
0.23841059602649006,0.5689555832552079
0.2582781456953642,0.5640932472211198
0.27814569536423844,0.5588907553057673
0.2980132450331126,0.5533597305037109
0.31788079470198677,0.5475127972278665
0.33774834437086093,0.5413636159196266
0.3576158940397351,0.534926921494945
0.3774834437086093,0.5282185658305595
0.3973509933774834,0.5212555644550928
0.4172185430463576,0.5140561475463743
0.4370860927152318,0.5066398152416215
0.45695364238410596,0.49902739713153843
0.4768211920529801,0.4912411156215463
0.49668874172185434,0.48330465258937766
0.5165562913907285,0.47524321843217027
0.5364238410596026,0.4670836221591783
0.5562913907284769,0.4588543406286908
0.5761589403973509,0.45058558432903667
0.5960264900662252,0.44230935624533946
0.6158940397350993,0.4340594993229767
0.6357615894039735,0.4258717268337712
0.6556291390728477,0.41778362858811174
0.6754966887417219,0.4098346444617135
0.695364238410596,0.4020659952061116
0.7152317880794702,0.3945205591297332
0.7350993377483444,0.387242682181724
0.7549668874172186,0.38027790852958876
0.7748344370860927,0.3736726192527431
0.7947019867549668,0.36747356868430014
0.8145695364238411,0.36172731162854976
0.8344370860927152,0.35647952047841086
0.8543046357615894,0.35177419926620696
0.8741721854304636,0.34765281166910905
0.8940397350993378,0.34415335125750485
0.9139072847682119,0.341309393597481
0.9337748344370861,0.3391491795159478
0.9536423841059603,0.33769478499435845
0.9735099337748344,0.3369614340135334
0.9933774834437087,0.33695700508974213
1.0132450331125828,0.3376817701266729
1.033112582781457,0.3391283867210207
1.0529801324503312,0.34128214450166117
1.0728476821192052,0.3441214454421842
1.0927152317880795,0.34761848037019616
1.1125827814569538,0.35174005145465626
1.1324503311258278,0.356448484511789
1.1523178807947019,0.3617025754997644
1.1721854304635762,0.36745852148058605
1.1920529801324504,0.3736707958749094
1.2119205298013245,0.38029293910680156
1.2317880794701985,0.38727824703042557
1.2516556291390728,0.394580349600219
1.271523178807947,0.4021536803643474
1.2913907284768211,0.4099538432721244
1.3112582781456954,0.4179378870857322
1.3311258278145695,0.4260644996832957
1.3509933774834437,0.43429413513707116
1.370860927152318,0.4425890860549747
1.390728476821192,0.4509135126478335
1.410596026490066,0.4592334386175296
1.4304635761589404,0.4675167224674017
1.4503311258278146,0.4757330113605941
1.4701986754966887,0.48385368328455663
1.4900662251655628,0.4918517820677643
1.5099337748344372,0.4997019487561582
1.5298013245033113,0.5073803519911408
1.5496688741721854,0.5148646193244593
1.5695364238410596,0.5221337708419124
1.5894039735099337,0.5291681560247466
1.609271523178808,0.535949394437149
1.6291390728476822,0.5424603205702089
1.6490066225165563,0.5486849329817426
1.6688741721854303,0.5546083477333844
1.6887417218543048,0.5602167560294132
1.7086092715231789,0.5654973858970479
1.728476821192053,0.5704384677070785
1.7483443708609272,0.575029203311456
1.7682119205298013,0.5792597385653692
1.7880794701986755,0.5831211390023016
1.8079470198675496,0.5866053684384552
1.8278145695364238,0.5897052702958153
1.847682119205298,0.5924145514492998
1.8675496688741722,0.5947277684218063
1.8874172185430464,0.5966403157707473
1.9072847682119205,0.5981484165300953
1.9271523178807946,0.599249114592909
1.9470198675496688,0.5999402689401885
1.9668874172185429,0.6002205496429751
1.9867549668874174,0.600089435585447
2.0066225165562916,0.599547213877431
2.0264900662251657,0.5985949809456137
2.0463576158940397,0.5972346453131581
2.066225165562914,0.595468932098352
2.086092715231788,0.5933013892833949
2.1059602649006623,0.590736395825361
2.1258278145695364,0.5877791717022234
2.1456953642384105,0.5844357900078574
2.165562913907285,0.5807131912302902
2.185430463576159,0.5766191998683107
2.205298013245033,0.5721625435608129
2.2251655629139075,0.5673528749215176
2.2450331125827816,0.5622007962877562
2.2649006622516556,0.5567178876048073
2.2847682119205297,0.5509167376747045
2.3046357615894038,0.5448109789997431
2.324503311258278,0.5384153264414157
2.3443708609271523,0.5317456198936054
2.364238410596027,0.5248188711283127
2.384105960264901,0.5176533149079439
2.403973509933775,0.5102684643625668
2.423841059602649,0.5026851704940521
2.443708609271523,0.49492568548048654
2.463576158940397,0.4870137292002153
2.4834437086092715,0.4789745580587742
2.5033112582781456,0.47083503476658306
2.52317880794702,0.4626236971601954
2.543046357615894,0.45437082346572377
2.562913907284768,0.44610849055198254
2.5827814569536423,0.4378706207002639
2.6026490066225163,0.4296930112265317
2.622516556291391,0.4216133399474271
2.642384105960265,0.41367113802908545
2.662251655629139,0.40590772028449257
2.6821192052980134,0.3983660616303065
2.7019867549668874,0.39109060738578294
2.7218543046357615,0.38412700467404454
2.741721854304636,0.3775217427208706
2.76158940397351,0.3713216917358579
2.781456953642384,0.3655735337001898
2.801324503311258,0.3603230840832682
2.821192052980132,0.3556145113741864
2.8410596026490067,0.3514894711167508
2.8609271523178808,0.3479861821991168
2.8807947019867552,0.3451384842832828
2.9006622516556293,0.3429749248306022
2.9205298013245033,0.34151793032221117
2.9403973509933774,0.34078311726337585
2.9602649006622515,0.3407787932684487
2.9801324503311255,0.34150568682505206
3.0,0.34295692732471267
3.0198675496688745,0.34511827683239243
3.0397350993377485,0.34796859474541403
3.0596026490066226,0.35148049890640576
3.0794701986754967,0.35562117421680295
3.0993377483443707,0.36035327360292835
3.119205298013245,0.36563585634986323
3.1390728476821192,0.37142531432567527
3.1589403973509933,0.3776762458015808
3.1788079470198674,0.38434224756591545
3.198675496688742,0.3913766071524117
3.218543046357616,0.3987328870038802
3.23841059602649,0.40636540052588593
3.2582781456953644,0.4142295859686825
3.2781456953642385,0.4222822879794881
3.2980132450331126,0.43048195877738193
3.3178807947019866,0.4387887916070474
3.3377483443708607,0.44716479882489485
3.3576158940397347,0.45557384601850576
3.3774834437086096,0.4639816522481561
3.3973509933774837,0.47235576504246674
3.4172185430463577,0.48066551732834756
3.437086092715232,0.4888819721199998
3.456953642384106,0.4969778595844297
3.47682119205298,0.5049275100613618
3.4966887417218544,0.5127067857453234
3.5165562913907285,0.5202930130253509
3.5364238410596025,0.5276649169067863
3.556291390728477,0.5348025584899097
3.576158940397351,0.5416872761322991
3.596026490066225,0.5483016306578169
3.615894039735099,0.5546293547784251
3.6357615894039736,0.5606553067520419
3.6556291390728477,0.5663654281987559
3.6754966887417218,0.5717467059292609
3.695364238410596,0.5767871375958026
3.7152317880794703,0.5814757009510757
3.7350993377483444,0.5858023264896255
3.754966887417219,0.5897578732456317
3.774834437086093,0.5933341075276016
3.794701986754967,0.5965236843823227
3.814569536423841,0.5993201315959727
3.834437086092715,0.6017178360578638
3.854304635761589,0.6037120323317109
3.8741721854304636,0.605298793299419
3.8940397350993377,0.6064750227629268
3.9139072847682117,0.6072384499105431
3.9337748344370858,0.6075876255748959
3.9536423841059607,0.6075219202305021
3.9735099337748347,0.6070415236995553
3.993377483443709,0.6061474465551453
4.013245033112583,0.6048415232317351
4.033112582781457,0.6031264168732647
4.052980132450331,0.6010056259698225
4.072847682119205,0.5984834928545583
4.0927152317880795,0.5955652141531028
4.112582781456953,0.5922568532983918
4.132450331125828,0.5885653552441787
4.152317880794702,0.5844985635303144
4.172185430463576,0.5800652398719429
4.19205298013245,0.575275086461935
4.211920529801325,0.5701387711911199
4.231788079470199,0.5646679560020197
4.251655629139073,0.5588753285981777
4.271523178807947,0.5527746377297835
4.291390728476821,0.546380732265145
4.311258278145695,0.5397096042321737
4.33112582781457,0.5327784359704287
4.3509933774834435,0.5256056514659418
4.370860927152318,0.5182109718407487
4.390728476821192,0.5106154748274914
4.410596026490066,0.5028416578653825
4.43046357615894,0.4949135041934982
4.450331125827815,0.4868565509758697
4.470198675496689,0.4786979580516211
4.490066225165563,0.47046657534463177
4.509933774834438,0.4621930062712427
4.529801324503311,0.4539096636357865
4.549668874172186,0.4456508134911272
4.569536423841059,0.43745260126656077
4.589403973509934,0.42935305314767735
4.6092715231788075,0.4213920442806755
4.629139072847682,0.41361122395550987
4.649006622516556,0.4060538866393634
4.66887417218543,0.3987647767891829
4.688741721854305,0.3917898150451959
4.708609271523179,0.38517573403564526
4.728476821192054,0.3789696139882861
4.748344370860927,0.3732183120183533
4.768211920529802,0.3679677846285544
4.788079470198675,0.3632623106957109
4.80794701986755,0.3591436317891478
4.827814569536423,0.3556500373902057
4.847682119205298,0.3528154333043666
4.867549668874172,0.3506684407033113
4.887417218543046,0.3492315790270606
4.9072847682119205,0.3485205867861004
4.927152317880794,0.34854392907635107
4.947019867549669,0.3493025292591633
4.966887417218543,0.3507897458192291
4.986754966887418,0.3529915960016523
5.006622516556291,0.35588720820108866
5.026490066225166,0.35944946803273325
5.04635761589404,0.36364581078985203
5.066225165562914,0.3684391068062218
5.086092715231788,0.37378858616307425
5.105960264900662,0.3796507542765591
5.125827814569536,0.38598025860681057
5.14569536423841,0.39273067726893235
5.1655629139072845,0.39985521108475713
5.185430463576159,0.4073072703710579
5.205298013245033,0.4150409557699479
5.225165562913908,0.4230114383897913
5.245033112582782,0.43117524848043554
5.264900662251656,0.4394904840720632
5.28476821192053,0.4479169518250615
5.304635761589404,0.45641625214904963
5.324503311258278,0.4649518197991338
5.344370860927152,0.47348892992967284
5.364238410596027,0.4819946781950709
5.3841059602649,0.49043794208258173
5.403973509933775,0.49878932933904124
5.4238410596026485,0.5070211181655443
5.443708609271523,0.5151071928247474
5.463576158940397,0.5230229774384935
5.483443708609272,0.5307453700398609
5.503311258278146,0.538252678368405
5.52317880794702,0.5455245584416774
5.543046357615895,0.5525419565817663
5.562913907284768,0.5592870553046377
5.582781456953643,0.5657432232770556
5.602649006622516,0.5718949693968127
5.622516556291391,0.5777279009458557
5.642384105960264,0.5832286856926495
5.662251655629139,0.5883850177726702
5.682119205298013,0.593185587147522
5.701986754966887,0.5976200524295341
5.7218543046357615,0.6016790168555624
5.741721854304636,0.6053540071985064
5.7615894039735105,0.6086374554152936
5.781456953642384,0.6115226828442046
5.801324503311259,0.6140038867812945
5.821192052980132,0.6160761292839345
5.841059602649007,0.6177353280692621
5.860927152317881,0.6189782493952938
5.880794701986755,0.6198025028329044
5.900662251655629,0.6202065378574773
5.920529801324503,0.6201896422096124
5.940397350993377,0.6197519419946337
5.960264900662251,0.6188944035113214
5.980132450331126,0.6176188368206083
6.0,0.615927901085392
6.0198675496688745,0.6138251117331894
6.039735099337749,0.6113148495135626
6.059602649006623,0.6084023715428268
6.079470198675497,0.6050938244484916
6.099337748344371,0.6013962597458469
6.119205298013245,0.5973176515980443
6.139072847682119,0.5928669171289881
6.158940397350993,0.5880539394743741
6.178807947019867,0.5828895937693864
6.198675496688741,0.5773857762808781
6.218543046357616,0.5715554368950659
6.23841059602649,0.5654126151671994
6.258278145695365,0.5589724801240251
6.2781456953642385,0.5522513739792725
6.298013245033113,0.5452668598724542
6.317880794701987,0.5380377736651862
6.337748344370861,0.5305842797201626
6.357615894039735,0.5229279304357696
6.377483443708609,0.515091729103525
6.397350993377484,0.5071001953822288
6.417218543046357,0.49897943232705366
6.437086092715232,0.4907571934566076
6.456953642384105,0.48246294776890536
6.47682119205298,0.4741279399105553
6.496688741721854,0.46578524184888787
6.516556291390729,0.45746979138678484
6.5364238410596025,0.44921841169959265
6.556291390728477,0.4410698047880771
6.5761589403973515,0.4330645103839923
6.596026490066225,0.42524482051012397
6.6158940397351,0.4176546387297463
6.635761589403973,0.4103392723276776
6.655629139072848,0.4033451455183421
6.675496688741721,0.3967194226027644
6.695364238410596,0.390509532155953
6.715231788079469,0.3847625871558803
6.735099337748344,0.3795247017044748
6.754966887417219,0.3748402126721786
6.774834437086093,0.37075082393557846
6.794701986754967,0.3672947011744672
6.814569536423841,0.3645055553100105
6.8344370860927155,0.3624117610919045
6.854304635761589,0.36103556241834994
6.874172185430464,0.3603924162152352
6.894039735099337,0.3604905212010862
6.913907284768212,0.36133056662191
6.933774834437086,0.36290572012327693
6.95364238410596,0.36520185535594324
6.973509933774834,0.36819800127584035
6.993377483443709,0.37186697899997534
7.013245033112583,0.3761761805703378
7.033112582781457,0.3810884381696645
7.052980132450331,0.38656293227264493
7.072847682119205,0.39255609203133335
7.0927152317880795,0.3990224494256322
7.112582781456954,0.405915418705346
7.132450331125828,0.41318798289748376
7.152317880794702,0.420793278498397
7.172185430463576,0.4286850771994016
7.19205298013245,0.43681816930567036
7.211920529801324,0.44514865741970433
7.231788079470198,0.45363417120097227
7.251655629139073,0.4622340149136414
7.271523178807947,0.4709092593899219
7.291390728476822,0.4796227892945653
7.311258278145695,0.4883393154480995
7.33112582781457,0.49702536066015246
7.3509933774834435,0.5056492261870995
7.370860927152318,0.5141809446557537
7.390728476821192,0.5225922241425304
7.410596026490066,0.5308563870915357
7.430463576158941,0.5389483069017477
7.450331125827814,0.5468443443064483
7.470198675496689,0.5545222850941502
7.490066225165562,0.5619612802628878
7.509933774834438,0.5691417893412145
7.52980132450331,0.5760455273334066
7.549668874172186,0.5826554155376572
7.569536423841059,0.5889555363314767
7.589403973509934,0.594931091907038
7.6092715231788075,0.6005683668610582
7.629139072847682,0.6058546944919174
7.649006622516557,0.6107784266246573
7.66887417218543,0.6153289067672884
7.6887417218543055,0.6194964463961404
7.708609271523178,0.6232723041702142
7.728476821192054,0.6266486678828892
7.748344370860927,0.629618638971892
7.768211920529802,0.632176219423827
7.788079470198675,0.6343163009270466
7.80794701986755,0.6360346561454061
7.827814569536423,0.6373279320048278
7.847682119205298,0.638193644904606
7.8675496688741715,0.638630177785581
7.887417218543046,0.6386367790075502
7.907284768211921,0.6382135630085751
7.927152317880795,0.6373615127391906
7.9470198675496695,0.6360824838847188
7.966887417218543,0.6343792109092541
7.986754966887418,0.6322553149749047
8.006622516556291,0.6297153138101415
8.026490066225167,0.6267646336209414
8.046357615894038,0.623409623157953
8.066225165562914,0.6196575700718651
8.086092715231787,0.615516719707132
8.105960264900663,0.6109962965005223
8.125827814569536,0.6061065281651031
8.14569536423841,0.6008586728507948
8.165562913907285,0.5952650494787081
8.185430463576159,0.5893390714453756
8.205298013245034,0.5830952838832165
8.225165562913906,0.5765494046413278
8.245033112582782,0.5697183691118214
8.264900662251655,0.5626203789672681
8.28476821192053,0.5552749547864674
8.304635761589404,0.5477029924225353
8.324503311258278,0.5399268227983225
8.344370860927151,0.5319702745888524
8.364238410596027,0.5238587389555177
8.3841059602649,0.5156192351170316
8.403973509933774,0.5072804750619834
8.42384105960265,0.4988729251106602
8.443708609271523,0.49042886130516794
8.463576158940398,0.48198241473579817
8.483443708609272,0.4735696018961647
8.503311258278146,0.4652283340108711
8.52317880794702,0.45699839803011544
8.543046357615895,0.4489214006986697
8.562913907284768,0.4410406658852976
8.582781456953642,0.4334010743567018
8.602649006622515,0.42604883460911513
8.62251655629139,0.41903117349985225
8.642384105960264,0.41239593656495743
8.66225165562914,0.406191090399817
8.682119205298013,0.40046412360741185
8.701986754966887,0.3952613487614238
8.721854304635762,0.39062711554564017
8.741721854304636,0.3866029543624668
8.76158940397351,0.38322667950392897
8.781456953642383,0.3805314903080364
8.801324503311259,0.37854511613901426
8.821192052980132,0.377289055008522
8.841059602649008,0.3767779549090025
8.86092715231788,0.37701918075911156
8.880794701986755,0.3780125984346076
8.90066225165563,0.37975059181580184
8.920529801324504,0.38221831109064286
8.940397350993377,0.3853941331280952
8.960264900662251,0.38925029993564997
8.980132450331126,0.39375369084406286
9.0,0.39886667904740125
9.019867549668875,0.4045480234290049
9.039735099337747,0.41075375136990844
9.059602649006623,0.4174379961044066
9.079470198675496,0.4245537616371162
9.099337748344372,0.43205359788750536
9.119205298013245,0.4398901775292831
9.139072847682119,0.4480167732904787
9.158940397350994,0.4563876399961288
9.178807947019868,0.4649583093825051
9.198675496688743,0.473685807893831
9.218543046357615,0.4825288085917894
9.23841059602649,0.49144772829021116
9.258278145695364,0.5004047803757676
9.27814569536424,0.5093639927435175
9.298013245033111,0.5182911990606838
9.317880794701987,0.5271540103135246
9.33774834437086,0.5359217723838064
9.357615894039736,0.5445655142987519
9.37748344370861,0.5530578908287489
9.397350993377483,0.5613731222789708
9.417218543046358,0.5694869336303234
9.437086092715232,0.5773764946206612
9.456953642384107,0.585020361904011
9.47682119205298,0.5923984240680032
9.496688741721854,0.5994918500121988
9.516556291390728,0.6062830409783814
9.536423841059603,0.6127555863655545
9.556291390728477,0.6188942233467214
9.57615894039735,0.6246848002224835
9.596026490066224,0.6301142433905016
9.6158940397351,0.6351705277743237
9.635761589403973,0.6398426505346781
9.655629139072847,0.6441206078777568
9.675496688741722,0.6479953747748425
9.695364238410596,0.6514588874139554
9.715231788079471,0.6545040282150563
9.735099337748345,0.6571246132542649
9.754966887417218,0.6593153819590368
9.774834437086092,0.6610719889537662
9.794701986754967,0.66239099795441
9.814569536423841,0.6632698776297733
9.834437086092716,0.6637069993671266
9.854304635761588,0.6637016368996045
9.874172185430464,0.6632539677730208
9.894039735099337,0.6623650766497843
9.913907284768213,0.6610369604675933
9.933774834437086,0.6592725354908074
9.95364238410596,0.6570756463120964
9.973509933774835,0.6544510768817798
9.993377483443709,0.6514045636615587
10.013245033112582,0.6479428110180995
10.033112582781456,0.6440735089896787
10.052980132450331,0.6398053535755557
10.072847682119205,0.6351480697119364
10.09271523178808,0.6301124371097554
10.112582781456952,0.6247103191364265
10.132450331125828,0.6189546949249459
10.152317880794701,0.6128596948868721
10.172185430463577,0.6064406397880475
10.192052980132452,0.5997140835142523
10.211920529801324,0.5926978596034022
10.2317880794702,0.5854111315464312
10.251655629139073,0.5778744467532929
10.271523178807948,0.5701097939360216
10.29139072847682,0.5621406634668633
10.311258278145695,0.5539921100152557
10.331125827814569,0.5456908164394448
10.350993377483444,0.5372651574926136
10.370860927152318,0.5287452613842617
10.390728476821192,0.5201630666014323
10.410596026490065,0.5115523706293662
10.43046357615894,0.5029488663112837
10.450331125827816,0.4943901605571357
10.470198675496688,0.48591576897110145
10.490066225165563,0.4775670787613414
10.509933774834437,0.4693872710991905
10.529801324503312,0.4614211930255938
10.549668874172186,0.4537151682272407
10.56953642384106,0.446316735742661
10.589403973509933,0.43927430617906765
10.609271523178808,0.4326367266223607
