Time (s),Filtered Signal
0.0,-0.02513478164563534
0.03337028824833703,0.4751991604358367
0.06674057649667406,0.8351531702937273
0.10011086474501109,0.959142225883755
0.13348115299334812,0.8252232782668193
0.16685144124168516,0.4871274584772228
0.20022172949002218,0.050344595288070663
0.2335920177383592,-0.36723075909120384
0.26696230598669624,-0.6743228376895096
0.3003325942350333,-0.8306835122026323
0.3337028824833703,-0.8497748957268415
0.3670731707317073,-0.7819141120237947
0.40044345898004435,-0.6873190787000907
0.4338137472283814,-0.6109435510305017
0.4671840354767184,-0.5683649864284094
0.5005543237250555,-0.5461821101193484
0.5339246119733925,-0.5142188881121964
0.5672949002217295,-0.4427391646850371
0.6006651884700666,-0.3170305583199075
0.6340354767184035,-0.1439037856370336
0.6674057649667406,0.05138659441102831
0.7007760532150776,0.23529747984030158
0.7341463414634146,0.37826728270972765
0.7675166297117517,0.46404535228080185
0.8008869179600887,0.4930292841044036
0.8342572062084257,0.4794487067643221
0.8676274944567628,0.444546507732507
0.9009977827050998,0.4087752469022966
0.9343680709534368,0.3855573749722619
0.9677383592017739,0.37808741081130315
1.001108647450111,0.3796364302005828
1.0344789356984478,0.37701829872200704
1.067849223946785,0.3561395007024721
1.101219512195122,0.30786293595637415
1.134589800443459,0.23209654670947238
1.167960088691796,0.13847572219905432
1.2013303769401331,0.04327733605853462
1.23470066518847,-0.03623037490969658
1.268070953436807,-0.08771515840762348
1.3014412416851442,-0.10765723254139492
1.3348115299334813,-0.10184741102200401
1.3681818181818182,-0.08267548511504237
1.4015521064301553,-0.06459686712782516
1.4349223946784924,-0.05955770291864595
1.4682926829268292,-0.07370924463524718
1.5016629711751663,-0.10593231049532503
1.5350332594235034,-0.1481078478599109
1.5684035476718403,-0.18694630364660778
1.6017738359201774,-0.20726807779586431
1.6351441241685145,-0.19645271864045344
1.6685144124168514,-0.14917047569750344
1.7018847006651885,-0.07080894981591954
1.7352549889135256,0.02217733795271454
1.7686252771618625,0.10600977431571768
1.8019955654101996,0.1568382755103231
1.8353658536585367,0.15913489660222058
1.8687361419068735,0.11182152090220873
1.9021064301552106,0.029184432395680953
1.9354767184035477,-0.06434545665552388
1.9688470066518848,-0.14369442516071676
2.002217294900222,-0.1929284710889835
2.035587583148559,-0.21096199885180264
2.0689578713968957,-0.2105621779324556
2.102328159645233,-0.21104441415950925
2.13569844789357,-0.22796888632277335
2.1690687361419068,-0.2645988667085531
2.202439024390244,-0.3091801283240678
2.235809312638581,-0.3395052352046961
2.269179600886918,-0.3328446251330343
2.302549889135255,-0.2766844977636975
2.335920177383592,-0.1751180546467711
2.369290465631929,-0.047650691300772
2.4026607538802662,0.079144255817676
2.436031042128603,0.18301508486018306
2.46940133037694,0.25469732838242115
2.5027716186252773,0.29950501888151004
2.536141906873614,0.3313680822938133
2.569512195121951,0.3629989548189713
2.6028824833702884,0.3978750922054221
2.6362527716186253,0.4283806540754253
2.6696230598669626,0.4406410789999293
2.7029933481152995,0.42271364169885006
2.7363636363636363,0.37122962424801886
2.7697339246119737,0.2931048792565228
2.8031042128603105,0.2022889849722307
2.8364745011086474,0.11434315559986348
2.8698447893569847,0.04212907838298436
2.9032150776053216,-0.005929755869811863
2.9365853658536585,-0.025968343775447475
2.969955654101996,-0.019115223263018444
3.0033259423503327,0.0070112186593035255
3.0366962305986696,0.037201433024206414
3.070066518847007,0.050532793133928694
3.1034368070953438,0.02655017842735852
3.1368070953436806,-0.045979519815567124
3.170177383592018,-0.16213659568659802
3.203547671840355,-0.30025215614246303
3.2369179600886917,-0.42918106294750796
3.270288248337029,-0.5205310127841084
3.303658536585366,-0.5597857707329867
3.337028824833703,-0.5505164726566465
3.37039911308204,-0.5095606736063318
3.403769401330377,-0.4560456858106852
3.437139689578714,-0.40049683736463404
3.470509977827051,-0.34005267373416403
3.503880266075388,-0.2621989100187404
3.537250554323725,-0.15457014306391387
3.5706208425720622,-0.015022468533356271
3.603991130820399,0.14383810716812193
3.637361419068736,0.2982791303230276
3.6707317073170733,0.42325544851548863
3.70410199556541,0.503052551338989
3.737472283813747,0.5369846155230645
3.7708425720620844,0.5371156572191951
3.8042128603104213,0.5193736699315414
3.8375831485587586,0.49312414259469195
3.8709534368070955,0.4552484905160563
3.9043237250554323,0.3924215493871396
3.9376940133037697,0.2907619376362236
3.9710643015521065,0.14773728982935566
4.004434589800444,-0.020472740117625465
4.037804878048781,-0.18097063121054757
4.071175166297118,-0.2955900687530266
4.1045454545454545,-0.3368930288942511
4.137915742793791,-0.30116088859648243
4.171286031042128,-0.2119385964831661
4.204656319290466,-0.11199726227039992
4.238026607538803,-0.046915757732978916
4.27139689578714,-0.04726824765316901
4.304767184035477,-0.11693387247017857
4.3381374722838135,-0.23221125340095744
4.371507760532151,-0.3516483949193335
4.404878048780488,-0.4320064931642896
4.438248337028825,-0.4435459585635929
4.471618625277162,-0.3787174452058789
4.504988913525499,-0.25174794605722656
4.538359201773836,-0.0907740807489653
4.571729490022173,0.072942893074305
4.60509977827051,0.21387427965602118
4.638470066518847,0.31643799609535345
4.671840354767184,0.374942868239598
4.705210643015521,0.3917112813516039
4.738580931263858,0.3756710312533862
4.771951219512196,0.34169449350808473
4.8053215077605325,0.3088632809914468
4.838691796008869,0.29557403435729845
4.872062084257206,0.31157422081187197
4.905432372505543,0.3502635651302902
4.93880266075388,0.38640565777855446
4.972172949002218,0.38290223826319475
5.005543237250555,0.30577096451835517
5.0389135254988915,0.1414016555982701
5.072283813747228,-0.09231791143256433
5.105654101995565,-0.3475261278436271
5.139024390243902,-0.5615093621785777
5.17239467849224,-0.6798676260881307
5.205764966740577,-0.6779870665349598
5.239135254988914,-0.5712944738073729
5.2725055432372505,-0.40936949619338386
5.305875831485587,-0.2559783528594251
5.339246119733925,-0.16336905008264097
5.372616407982262,-0.1518651551397441
5.405986696230599,-0.20357057475427492
5.439356984478936,-0.2727319233919203
5.472727272727273,-0.30780490995217263
5.5060975609756095,-0.2750268500257812
5.539467849223947,-0.17282614874036542
5.572838137472284,-0.03095885569080437
5.606208425720621,0.10438441013774309
5.639578713968958,0.1917831713607601
5.672949002217295,0.211991308865985
5.706319290465632,0.1741201941253188
5.7396895787139695,0.10925302680999195
5.773059866962306,0.056208872259114646
5.806430155210643,0.04709739046169811
5.83980044345898,0.09889851109184626
5.873170731707317,0.21285728906155463
5.906541019955654,0.37888306692492696
5.939911308203992,0.5800995170149587
5.9732815964523285,0.7941754040170294
6.006651884700665,0.9917971613961862
6.040022172949002,1.135954048650451
6.073392461197339,1.1862143526417943
6.106762749445676,1.1093028104433147
6.140133037694014,0.8927104950050089
6.173503325942351,0.5547104102067459
6.2068736141906875,0.1443826482901162
6.240243902439024,-0.27065204888592825
6.273614190687361,-0.6251692910654585
6.306984478935698,-0.877719373600862
6.340354767184036,-1.0233588861546257
6.373725055432373,-1.0919997214836739
6.40709534368071,-1.1326232478844538
6.4404656319290465,-1.1895631220089067
6.473835920177383,-1.2805226638523037
6.507206208425721,-1.385609655751113
6.540576496674058,-1.4525425869763067
6.573946784922395,-1.4167586630371725
6.607317073170732,-1.2288457022737194
6.640687361419069,-0.8781733146801146
6.674057649667406,-0.4026199604730667
6.707427937915743,0.12020506464538791
6.74079822616408,0.5971367208183547
6.774168514412417,0.9495118148371737
6.807538802660754,1.137412121762567
6.840909090909091,1.1692203260808258
6.874279379157428,1.0938271512796331
6.9076496674057655,0.9795082630229734
6.941019955654102,0.8880126533584617
6.974390243902439,0.853458133786416
7.007760532150776,0.8732988293942856
7.041130820399113,0.9139503293233546
7.07450110864745,0.9282019239011122
7.107871396895788,0.8771316193472836
7.1412416851441245,0.7475138750886008
7.174611973392461,0.5575020132020652
7.207982261640798,0.34816846500182086
7.241352549889135,0.16448089783955647
7.274722838137472,0.03402868878447612
7.30809312638581,-0.046797959831212266
7.341463414634147,-0.11226556471234453
7.3748337028824835,-0.21156514709592103
7.40820399113082,-0.3840259896974025
7.441574279379157,-0.6361792859334754
7.474944567627494,-0.9317303653996974
7.508314855875832,-1.2004934220083003
7.541685144124169,-1.364018016762266
7.575055432372506,-1.3676285299456228
7.6084257206208425,-1.2047689196409999
7.641796008869179,-0.922104690667116
7.675166297117517,-0.6020725586666364
7.708536585365854,-0.3299134645834354
7.741906873614191,-0.15974538026456475
7.775277161862528,-0.09502588028530758
7.808647450110865,-0.0920868180582952
7.842017738359202,-0.08440222919704671
7.875388026607539,-0.01542430839429004
7.908758314855876,0.13574370680879505
7.942128603104213,0.34714858434961743
7.97549889135255,0.5668036892069452
8.008869179600888,0.7373859258953733
8.042239467849225,0.8201090228594543
8.075609756097561,0.8073608469264423
8.108980044345898,0.7206668850081581
8.142350332594235,0.597836969319053
8.175720620842572,0.4770172848787218
8.209090909090909,0.3846467400502298
8.242461197339246,0.33055144240488876
8.275831485587583,0.30938357373091796
8.30920177383592,0.30547237461607263
8.342572062084257,0.29835296217100327
8.375942350332595,0.26771548115219734
8.409312638580932,0.19778340839910752
8.442682926829269,0.08133746651819299
8.476053215077606,-0.0770784201015058
8.509423503325943,-0.2599935836284528
8.54279379157428,-0.43919891134851213
8.576164079822616,-0.5817595602989637
8.609534368070953,-0.6588632525277477
8.64290465631929,-0.6550346953068047
8.676274944567627,-0.5744158296528058
8.709645232815964,-0.441181074367196
8.743015521064303,-0.29293181730931034
8.77638580931264,-0.1686755227121343
8.809756097560976,-0.09562041560879884
8.843126385809313,-0.08009499831536027
8.87649667405765,-0.10654846448455983
8.909866962305987,-0.14515003293670894
8.943237250554324,-0.16458016083224755
8.97660753880266,-0.1442408013623022
9.009977827050998,-0.08061294274132987
9.043348115299334,0.0143958018619186
9.076718403547671,0.12125626456277916
9.110088691796008,0.22218061710942466
9.143458980044347,0.30734858108431706
9.176829268292684,0.37562556994859075
9.21019955654102,0.4305909016259636
9.243569844789358,0.47490513479265967
9.276940133037694,0.5062824387778934
9.310310421286031,0.5169044457183648
9.343680709534368,0.4961698616702572
9.377050997782705,0.43530856130282286
9.410421286031042,0.3319831903908864
9.443791574279379,0.193260870431371
9.477161862527716,0.035813515109227916
9.510532150776053,-0.11722733948981108
9.543902439024391,-0.24247496631906218
9.577272727272728,-0.32401427039088976
9.610643015521065,-0.3598810507910307
9.644013303769402,-0.36414774407844636
9.677383592017739,-0.3626450484315554
9.710753880266076,-0.3829610828272129
9.744124168514412,-0.44228285430045966
9.77749445676275,-0.5382646632625688
9.810864745011086,-0.647307384453806
9.844235033259423,-0.7315725630225749
9.87760532150776,-0.7521777585911582
9.910975609756099,-0.6832458463071182
9.944345898004435,-0.5211494911684347
9.977716186252772,-0.28549415930558364
10.01108647450111,-0.01200431875181392
10.044456762749446,0.2591956721931064
10.077827050997783,0.4948758797530399
10.11119733924612,0.6753803452149651
10.144567627494457,0.7951433037242558
10.177937915742794,0.8584996212321713
10.21130820399113,0.8740833369733176
10.244678492239467,0.8509482581943627
10.278048780487804,0.7976782394481234
10.311419068736143,0.7233977674151931
10.34478935698448,0.6382111022519386
10.378159645232817,0.5510843340893871
10.411529933481154,0.46531523309395884
10.44490022172949,0.37421341738825076
10.478270509977827,0.2607436015946912
10.511640798226164,0.10358057563237694
10.545011086474501,-0.11140324412902132
10.578381374722838,-0.3789900031693116
10.611751662971175,-0.6683978928013724
10.645121951219512,-0.9278892268711642
10.67849223946785,-1.1002672213912026
10.711862527716187,-1.1436486192279498
10.745232815964524,-1.0484624269011242
10.778603104212861,-0.8425472334333347
10.811973392461198,-0.5813770155940713
10.845343680709535,-0.3273931359896069
10.878713968957872,-0.1276174932078587
10.912084257206208,0.0005660793439559927
10.945454545454545,0.06973614482784996
10.978824833702882,0.10996087374239472
11.012195121951219,0.1505459274943719
11.045565410199556,0.2051215365144077
11.078935698447895,0.2667223734904779
11.112305986696231,0.3141047074825645
11.145676274944568,0.32509494945313927
11.179046563192905,0.28985619812761754
11.212416851441242,0.2176501879286584
11.245787139689579,0.13420868461968397
11.279157427937916,0.0712807314961542
11.312527716186253,0.053249779976541116
11.34589800443459,0.08667192228445432
11.379268292682926,0.15708233738815727
11.412638580931263,0.23431557144782544
11.4460088691796,0.28419368029998293
11.479379157427939,0.2819848510976647
11.512749445676276,0.22233804654105183
11.546119733924613,0.12170402094470835
11.57949002217295,0.01217119457318348
11.612860310421286,-0.07085564454592555
11.646230598669623,-0.10207442821924374
11.67960088691796,-0.07525699917086975
11.712971175166297,-0.004259563877852005
11.746341463414634,0.08378403917244683
11.77971175166297,0.15947329057185206
11.813082039911308,0.20122441408516886
11.846452328159646,0.200419011609626
11.879822616407983,0.1605721895079073
11.91319290465632,0.09247686792921073
11.946563192904657,0.008689229183368261
11.979933481152994,-0.07994643596960474
12.01330376940133,-0.16496363863579
12.046674057649668,-0.2391705242544536
12.080044345898004,-0.2955215784170808
12.113414634146341,-0.32720443484006106
12.146784922394678,-0.3290731996288364
12.180155210643015,-0.29960647426159853
12.213525498891352,-0.24223894339403415
12.24689578713969,-0.16525267777036207
12.280266075388028,-0.08014612504270922
12.313636363636364,0.0008785680864204471
12.347006651884701,0.06732052289304462
12.380376940133038,0.11187795169199101
12.413747228381375,0.1308192509741649
12.447117516629712,0.1235740183459027
12.480487804878049,0.09206897563530836
12.513858093126386,0.040097597810311844
12.547228381374723,-0.027286625726059163
12.58059866962306,-0.10435006895376672
12.613968957871396,-0.1849311476099821
12.647339246119735,-0.2619462020832696
12.680709534368072,-0.3262203040751698
12.714079822616409,-0.3656461662999968
12.747450110864746,-0.36624212903662534
12.780820399113082,-0.31606871711516604
12.81419068736142,-0.21116824073071203
12.847560975609756,-0.060762958447192254
12.880931263858093,0.1116695472636082
12.91430155210643,0.2733747501337488
12.947671840354767,0.3923454497866465
12.981042128603104,0.4485603292168484
13.014412416851442,0.44151916082239284
13.04778270509978,0.39048049937583473
13.081152993348116,0.32692930944005066
13.114523281596453,0.2822256859177365
13.14789356984479,0.275519181157327
13.181263858093127,0.3069009688920433
13.214634146341464,0.358477421069812
13.2480044345898,0.40261934460660304
13.281374722838137,0.41361189114717095
13.314745011086474,0.37765614980476936
13.348115299334811,0.2971945917829854
13.381485587583148,0.18830608957572353
13.414855875831487,0.0730671817830383
13.448226164079824,-0.02922341934106447
13.48159645232816,-0.1081076892708028
13.514966740576497,-0.16336449055701435
13.548337028824834,-0.20236086256932886
13.581707317073171,-0.23577273195617338
13.615077605321508,-0.27417430603655796
13.648447893569845,-0.3265161408233098
13.681818181818182,-0.3995916389387593
13.715188470066519,-0.496645265212995
13.748558758314855,-0.614092199163213
13.781929046563192,-0.737474706336848
13.815299334811531,-0.8397903590149388
13.848669623059868,-0.8855162800013328
13.882039911308205,-0.841283306791495
13.915410199556542,-0.6901298553277212
13.948780487804878,-0.44288632562256347
13.982150776053215,-0.13994756602887407
14.015521064301552,0.1595673488365122
14.048891352549889,0.39799616497619117
14.082261640798226,0.539993227103225
14.115631929046563,0.5842493439038366
14.1490022172949,0.5604085656692714
14.182372505543238,0.5129036706174855
14.215742793791575,0.4799611303393426
14.249113082039912,0.47807898213535793
14.282483370288249,0.4988533030305507
14.315853658536586,0.5182351755745983
14.349223946784923,0.5120160871399363
14.38259423503326,0.46890209023091217
14.415964523281596,0.39489465852994016
14.449334811529933,0.3080601852131063
14.48270509977827,0.227873427355947
14.516075388026607,0.16543480574235217
14.549445676274944,0.11930586151221441
14.582815964523283,0.07796965055844662
14.61618625277162,0.02646273439738489
14.649556541019956,-0.046642280419955835
14.682926829268293,-0.14478408233607132
14.71629711751663,-0.2622987937494796
14.749667405764967,-0.3857950700895165
14.783037694013304,-0.49678742740723775
14.81640798226164,-0.575025023274974
14.849778270509978,-0.6026953683269275
14.883148558758315,-0.5695731352028182
14.916518847006651,-0.47806866966243294
14.949889135254988,-0.34581726954675696
14.983259423503327,-0.20320350056347364
15.016629711751664,-0.08482550226411056
15.05,-0.01695427372823388
15.083370288248338,-0.005937595553664055
15.116740576496674,-0.03334684438101259
15.150110864745011,-0.06148466113375519
15.183481152993348,-0.04833229741729133
15.216851441241685,0.033768229064406075
15.250221729490022,0.18393152888684952
15.283592017738359,0.3699972039744837
15.316962305986696,0.5393832843633128
15.350332594235034,0.6394278064468182
15.383702882483371,0.6384982885065416
15.417073170731708,0.5385432474307689
15.450443458980045,0.3736256817845603
15.483813747228382,0.19543709568443213
15.517184035476719,0.05257868251635352
15.550554323725056,-0.02732679127987474
15.583924611973393,-0.045703655126033034
15.61729490022173,-0.02920895162961674
15.650665188470066,-0.016989518970307812
15.684035476718403,-0.04479244275120461
15.71740576496674,-0.13170830139346804
15.750776053215079,-0.2733994744981219
15.784146341463416,-0.4432033076051551
15.817516629711752,-0.6003557993932128
15.85088691796009,-0.7028709013751641
15.884257206208426,-0.7212536539786744
15.917627494456763,-0.6485252979322007
15.9509977827051,-0.5026675256589332
15.984368070953437,-0.31997200816865407
16.017738359201775,-0.14139695632219892
16.05110864745011,0.002660487774196284
16.08447893569845,0.10261072245877549
16.117849223946784,0.17032852518499855
16.151219512195123,0.22997711178777802
16.184589800443458,0.30340688513711617
16.217960088691797,0.39711729141905644
16.251330376940132,0.4970141992487855
16.28470066518847,0.5735336888919755
16.31807095343681,0.5949182028975298
16.351441241685144,0.5427094838288179
16.384811529933483,0.4224671396338955
16.418181818181818,0.26472087784933923
16.451552106430157,0.11530123716347324
16.48492239467849,0.01868164325069496
16.51829268292683,0.000929470142639612
16.551662971175165,0.059129440504524816
16.585033259423504,0.16166467156988992
16.61840354767184,0.25952626257168426
16.651773835920178,0.30447809978720014
16.685144124168513,0.2670827068363122
16.71851441241685,0.14747823506998387
16.75188470066519,-0.02538494324715269
16.785254988913525,-0.20560436205800503
16.818625277161864,-0.3482053468299067
16.8519955654102,-0.4255458261764671
16.885365853658538,-0.43564713886578715
16.918736141906873,-0.39957173529503764
16.95210643015521,-0.3497491311045589
16.985476718403547,-0.31486812235590816
17.018847006651885,-0.30806533588834667
17.05221729490022,-0.3232807375336699
17.08558758314856,-0.3407366813863621
17.118957871396898,-0.3383421981792273
17.152328159645233,-0.303331778979157
17.18569844789357,-0.23869611868892093
17.219068736141907,-0.16168417945343921
17.252439024390245,-0.09543958303306041
17.28580931263858,-0.05789336344673807
17.31917960088692,-0.05306384707217745
