Frequency (Hz),Amplitude
0.0,1.833141446972407
0.019801980198019802,1.8326725935405834
0.039603960396039604,1.8312671606905766
0.0594059405940594,1.82892853213905
0.07920792079207921,1.8256623520142783
0.09900990099009901,1.8214765317554937
0.1188118811881188,1.816381259767112
0.13861386138613863,1.8103890138191054
0.15841584158415842,1.8035145761760012
0.1782178217821782,1.795775051423653
0.19801980198019803,1.7871898869434069
0.21782178217821782,1.777780895955878
0.2376237623762376,1.7675722830197647
0.25742574257425743,1.7565906718226065
0.27722772277227725,1.7448651350381936
0.297029702970297,1.7324272259462108
0.31683168316831684,1.7193110114116525
0.33663366336633666,1.7055531057000926
0.3564356435643564,1.6911927044576531
0.37623762376237624,1.6762716180069572
0.39603960396039606,1.6608343028988275
0.4158415841584158,1.6449278904105646
0.43564356435643564,1.6286022103912832
0.45544554455445546,1.6119098085211563
0.4752475247524752,1.5949059546724373
0.495049504950495,1.5776486396372755
0.5148514851485149,1.5601985570235049
0.5346534653465347,1.5426190666227448
0.5544554455445545,1.5249761350380047
0.5742574257425742,1.5073382488399478
0.594059405940594,1.4897762950296962
0.613861386138614,1.472363403158856
0.6336633663366337,1.4551747431418827
0.6534653465346534,1.438287272651207
0.6732673267326733,1.421779428080792
0.6930693069306931,1.405730753476811
0.7128712871287128,1.3902214626460865
0.7326732673267327,1.3753319309426888
0.7524752475247525,1.3611421150658674
0.7722772277227723,1.347730901618897
0.7920792079207921,1.335175388178682
0.8118811881188118,1.3235501041551685
0.8316831683168316,1.3129261826547698
0.8514851485148516,1.3033704987030927
0.8712871287128713,1.294944793252387
0.891089108910891,1.2877048060576581
0.9108910891089109,1.2816994433722952
0.9306930693069307,1.2769700081100712
0.9504950495049505,1.2735495203181144
0.9702970297029703,1.271462154278899
0.99009900990099,1.2707228152366146
1.00990099009901,1.2713368737321482
1.0297029702970297,1.2733000691306329
1.0495049504950495,1.2765985865996583
1.0693069306930694,1.2812093041247963
1.0891089108910892,1.2871001987553152
1.108910891089109,1.2942308947452577
1.1287128712871286,1.3025533310734099
1.1485148514851484,1.3120125223074095
1.1683168316831685,1.3225473850537883
1.188118811881188,1.3340916022508726
1.2079207920792079,1.3465744991068753
1.227722772277228,1.3599219072403106
1.2475247524752475,1.3740569971690741
1.2673267326732673,1.388901063335891
1.2871287128712872,1.4043742500048686
1.3069306930693068,1.4203962103316827
1.3267326732673268,1.436886694490797
1.3465346534653466,1.4537660658041505
1.3663366336633662,1.4709557462975633
1.3861386138613863,1.4883785950059678
1.405940594059406,1.5059592236954185
1.4257425742574257,1.5236242555309294
1.4455445544554455,1.5413025326720926
1.4653465346534653,1.558925278905248
1.4851485148514851,1.57642622329946
1.504950495049505,1.5937416905740025
1.5247524752475248,1.6108106634483046
1.5445544554455446,1.627574821758977
1.5643564356435644,1.6439785626127958
1.5841584158415842,1.6599690053261975
1.6039603960396038,1.6754959844023272
1.6237623762376237,1.6905120333292516
1.6435643564356437,1.7049723615551793
1.6633663366336633,1.7188348266131848
1.683168316831683,1.7320599030291703
1.7029702970297032,1.7446106493521845
1.7227722772277227,1.756452674392792
1.7425742574257426,1.7675541035397364
1.7623762376237624,1.7778855458444531
1.782178217821782,1.787420062412026
1.801980198019802,1.7961331365138087
1.8217821782178218,1.8040026457357943
1.8415841584158414,1.811008836396329
1.8613861386138615,1.8171343004024867
1.881188118811881,1.8223639546646986
1.900990099009901,1.8266850231510823
1.920792079207921,1.83008702163483
1.9405940594059405,1.8325617451673741
1.9603960396039604,1.8341032582962535
1.98019801980198,1.8347078880374517
2.0,1.8343742196066124
2.01980198019802,1.833103094910855
2.0396039603960396,1.830897613801488
2.0594059405940595,1.8277631380876722
2.0792079207920793,1.8237072983096576
2.099009900990099,1.8187400032681502
2.118811881188119,1.8128734523015309
2.1386138613861387,1.8061221502944838
2.1584158415841586,1.798502925388655
2.1782178217821784,1.7900349493471566
2.1980198019801978,1.7807397604981319
2.217821782178218,1.7706412891468042
2.237623762376238,1.759765885298259
2.257425742574257,1.7481423484722518
2.2772277227722775,1.7358019593143503
2.297029702970297,1.722778512611262
2.3168316831683167,1.7091083511996843
2.336633663366337,1.6948304001131156
2.3564356435643563,1.6799862001370245
2.376237623762376,1.6646199397346335
2.3960396039603964,1.648778484060699
2.4158415841584158,1.6325113994945903
2.4356435643564356,1.6158709717948267
2.455445544554456,1.5989122156029145
2.4752475247524752,1.581692872605909
2.495049504950495,1.5642733952071224
2.514851485148515,1.5467169120606656
2.5346534653465347,1.5290891713096972
2.5544554455445545,1.5114584568493377
2.5742574257425743,1.4938954724397406
2.594059405940594,1.4764731880590818
2.6138613861386135,1.4592666425568732
2.633663366336634,1.4423526965024411
2.6534653465346536,1.4258097291905336
2.673267326732673,1.4097172741419246
2.6930693069306932,1.3941555882035217
2.712871287128713,1.3792051505881824
2.7326732673267324,1.3649460899675923
2.7524752475247527,1.3514575400846514
2.7722772277227725,1.3388169272909471
2.792079207920792,1.3270991968911872
2.811881188118812,1.3163759890748667
2.8316831683168315,1.3067147793443943
2.8514851485148514,1.2981780024396867
2.8712871287128716,1.2908221824774868
2.891089108910891,1.2846970949918841
2.910891089108911,1.2798449884006984
2.9306930693069306,1.2762998927938725
2.9504950495049505,1.2740870426078732
2.9702970297029703,1.2732224366217137
2.99009900990099,1.2737125538755256
3.00990099009901,1.2755542378481375
3.0297029702970297,1.2787347539844098
3.0495049504950495,1.2832320180051422
3.0693069306930694,1.289014984983793
3.089108910891089,1.2960441825303697
3.108910891089109,1.3042723660772415
3.128712871287129,1.3136452705518844
3.148514851485148,1.3241024307984581
3.1683168316831685,1.3355780429391242
3.1881188118811883,1.3480018402517517
3.2079207920792077,1.3612999597750008
3.227722772277228,1.3753957793621274
3.2475247524752473,1.390210708909241
3.267326732673267,1.4056649236296457
3.2871287128712874,1.421678031242328
3.3069306930693068,1.4381696685714043
3.3267326732673266,1.4550600261758178
3.346534653465347,1.4722703021748145
3.366336633663366,1.4897230883949906
3.386138613861386,1.5073426933705802
3.4059405940594063,1.5250554076414276
3.4257425742574257,1.5427897172896683
3.4455445544554455,1.5604764718167412
3.4653465346534653,1.5780490123665072
3.485148514851485,1.5954432660194044
3.504950495049505,1.6125978114769477
3.5247524752475248,1.6294539209770311
3.5445544554455446,1.6459555827669368
3.564356435643564,1.6620495079426854
3.5841584158415842,1.6776851249614584
3.603960396039604,1.6928145646627217
3.6237623762376234,1.7073926382014613
3.6435643564356437,1.7213768099085858
3.6633663366336635,1.7347271667499982
3.683168316831683,1.7474063857563225
3.702970297029703,1.7593797005371856
3.722772277227723,1.7706148677746743
3.7425742574257423,1.781082134405696
3.762376237623762,1.790754206048987
3.7821782178217824,1.799606217105987
3.801980198019802,1.807615702861326
3.8217821782178216,1.8147625738256932
3.841584158415842,1.8210290924979653
3.8613861386138613,1.8263998526719976
3.881188118811881,1.8308617613741527
3.9009900990099013,1.8344040234881673
3.9207920792079207,1.8370181291028251
3.9405940594059405,1.8386978436030075
3.96039603960396,1.8394392005151123
3.98019801980198,1.8392404971120597
4.0,1.8381022927799109
4.01980198019802,1.8360274101467398
4.03960396039604,1.8330209389737198
4.0594059405940595,1.8290902428071978
4.079207920792079,1.8242449683884008
4.099009900990099,1.8184970578127515
4.118811881188119,1.8118607634229245
4.138613861386139,1.8043526654072577
4.158415841584159,1.7959916920567616
4.178217821782178,1.786799142608155
4.198019801980198,1.7767987125653206
4.217821782178218,1.766016521345496
4.237623762376238,1.7544811420368156
4.257425742574258,1.7422236329782816
4.2772277227722775,1.7292775707787484
4.297029702970297,1.7156790842749154
4.316831683168317,1.70146688878607
4.336633663366336,1.6866823198519982
4.356435643564357,1.671369365435744
4.376237623762377,1.655574695331403
4.3960396039603955,1.6393476862353287
4.415841584158416,1.6227404406138888
4.435643564356436,1.6058077971314615
4.455445544554455,1.5886073299876922
4.475247524752476,1.5711993340577786
4.4950495049504955,1.5536467922383732
4.514851485148514,1.5360153208885587
4.534653465346535,1.5183730887360103
4.554455445544555,1.5007907041204103
4.574257425742574,1.4833410650039605
4.594059405940594,1.4660991658377116
4.613861386138614,1.4491418551893551
4.633663366336633,1.4325475380803239
4.653465346534653,1.4163958173228186
4.673267326732674,1.400767068872452
4.693069306930693,1.3857419473981414
4.712871287128713,1.3714008199872452
4.732673267326733,1.357823128196226
4.752475247524752,1.3450866815358913
4.772277227722772,1.3332668889019108
4.792079207920793,1.3224359383193416
4.811881188118812,1.3126619394796175
4.8316831683168315,1.3040080476509763
4.851485148514852,1.2965315913092599
4.871287128712871,1.290283228893856
4.891089108910891,1.2853061620607602
4.910891089108912,1.2816354333405737
4.930693069306931,1.2792973349634862
4.9504950495049505,1.278308952678198
4.97029702970297,1.278677863735615
4.99009900990099,1.2804020020886744
5.00990099009901,1.2834696967067452
5.02970297029703,1.2878598812742215
5.0495049504950495,1.2935424660558812
5.069306930693069,1.3004788559659752
5.089108910891089,1.3086225933802038
5.108910891089109,1.317920100334818
5.128712871287129,1.3283114926369308
5.148514851485149,1.3397314380491196
5.1683168316831685,1.3521100319319825
5.188118811881188,1.365373666232599
5.207920792079208,1.379445871128802
5.227722772277227,1.394248112596363
5.247524752475248,1.4097005333032817
5.267326732673268,1.42572262825283
5.2871287128712865,1.442233850270101
5.306930693069307,1.459154143607096
5.326732673267327,1.4764044065527255
5.346534653465346,1.4939068859593403
5.366336633663367,1.511585508064599
5.3861386138613865,1.5293661509547887
5.405940594059405,1.5471768645578814
5.425742574257426,1.564948044252247
5.445544554455446,1.582612564109667
5.465346534653465,1.6001058755303872
5.485148514851486,1.6173660766368003
5.504950495049505,1.6343339573213511
5.524752475247524,1.6509530243348325
5.544554455445545,1.6671695102836261
5.564356435643565,1.6829323699009229
5.584158415841584,1.6981932664823507
5.603960396039604,1.7129065509400148
5.623762376237624,1.7270292355359693
5.643564356435643,1.7405209640071355
5.663366336633663,1.7533439794895005
5.683168316831684,1.7654630913866627
5.702970297029703,1.7768456421038474
5.7227722772277225,1.787461474379784
5.742574257425743,1.7972828997913777
5.762376237623762,1.8062846688761085
5.782178217821782,1.8144439432110906
5.801980198019803,1.8217402697022353
5.821782178217822,1.8281555572690562
5.841584158415841,1.833674056057285
5.861386138613861,1.838282339270922
5.881188118811881,1.84196928768424
5.900990099009901,1.844726076872482
5.920792079207921,1.8465461671839531
5.9405940594059405,1.8474252964660214
5.96039603960396,1.847361475551341
5.98019801980198,1.8463549865066575
6.0,1.8444083836453338
6.01980198019802,1.841526497303218
6.03960396039604,1.8377164403768038
6.0594059405940595,1.8329876176199322
6.079207920792079,1.8273517376910093
6.099009900990099,1.8208228279348102
6.118811881188119,1.8134172518708784
6.138613861386139,1.8051537293422464
6.158415841584159,1.7960533592531955
6.178217821782178,1.7861396447901345
6.198019801980198,1.775438520974498
6.217821782178218,1.7639783843379218
6.237623762376237,1.751790124435528
6.257425742574258,1.7389071568202954
6.2772277227722775,1.7253654569864714
6.297029702970296,1.7112035946501782
6.316831683168317,1.6964627675660253
6.336633663366337,1.6811868338772091
6.356435643564356,1.6654223417578697
6.376237623762377,1.6492185548285212
6.396039603960396,1.632627471504147
6.415841584158415,1.6157038360691336
6.435643564356436,1.5985051388631015
6.455445544554456,1.58109160251044
6.475247524752475,1.5635261506392113
6.495049504950495,1.5458743550244576
6.514851485148515,1.5282043565731585
6.534653465346534,1.510586755069099
6.554455445544554,1.49309446214926
6.574257425742575,1.4758025116339482
6.594059405940594,1.4587878211359093
6.6138613861386135,1.442128898894986
6.633663366336634,1.4259054900998058
6.653465346534653,1.4101981576462772
6.673267326732673,1.3950877934236925
6.693069306930694,1.3806550578832983
6.712871287128713,1.3669797478786492
6.732673267326732,1.3541400955862082
6.752475247524753,1.3422120046805623
6.772277227722772,1.3312682337507897
6.792079207920792,1.3213775410272421
6.811881188118813,1.3126038085895346
6.8316831683168315,1.3050051680260812
6.851485148514851,1.2986331526453443
6.871287128712871,1.2935319034188033
6.891089108910891,1.289737456520305
6.910891089108911,1.2872771393560012
6.930693069306931,1.2861690992316646
6.9504950495049505,1.286421984328297
6.97029702970297,1.2880347906911382
6.99009900990099,1.290996881892294
7.00990099009901,1.2952881804475076
7.02970297029703,1.300879522564028
7.0495049504950495,1.3077331609708351
7.069306930693069,1.3158033949504977
7.089108910891089,1.3250373026252535
7.108910891089109,1.335375548239185
7.128712871287128,1.346753236628491
7.148514851485149,1.3591007881219805
7.1683168316831685,1.3723448094793331
7.188118811881187,1.3864089397966426
7.207920792079208,1.4012146542068389
7.227722772277228,1.4166820123186048
7.247524752475247,1.4327303423663802
7.267326732673268,1.449278855753206
7.287128712871287,1.4662471899012357
7.306930693069306,1.4835558799976927
7.326732673267327,1.5011267623133897
7.346534653465347,1.5188833132999051
7.366336633663366,1.5367509296949502
7.3861386138613865,1.5546571554555628
7.405940594059406,1.5725318615763921
7.425742574257425,1.5903073848137554
7.445544554455446,1.607918631098926
7.465346534653466,1.62530314904864
7.485148514851485,1.6424011785206971
7.504950495049505,1.6591556786583537
7.524752475247524,1.6755123393519555
7.544554455445544,1.6914195795417666
7.564356435643565,1.706828535309091
7.584158415841584,1.7216930402623771
7.603960396039604,1.7359696003273706
7.623762376237624,1.7496173646968727
7.643564356435643,1.7625980943861812
7.663366336633663,1.7748761295729139
7.683168316831684,1.7864183566714478
7.702970297029703,1.7971941758992895
7.7227722772277225,1.8071754699314626
7.742574257425743,1.8163365741056006
7.762376237623762,1.8246542485315713
7.782178217821782,1.8321076523712014
7.801980198019803,1.838678320483606
7.821782178217822,1.844350142576416
7.841584158415841,1.8491093449606466
7.861386138613862,1.8529444749750055
7.881188118811881,1.8558463881218306
7.900990099009901,1.8578082379403345
7.92079207920792,1.858825468631559
7.9405940594059405,1.8588958104425022
7.96039603960396,1.8580192778126676
7.980198019801979,1.856198170284192
8.0,1.8534370761752896
8.01980198019802,1.849742879015383
8.03960396039604,1.8451247667377195
8.05940594059406,1.83959424362084
8.07920792079208,1.8331651449621182
8.099009900990099,1.8258536544548944
8.118811881188119,1.8176783242224885
8.138613861386139,1.8086600974374407
8.158415841584159,1.798822333420385
8.178217821782178,1.7881908350680478
8.198019801980198,1.776793878402037
8.217821782178218,1.7646622439564483
8.237623762376238,1.7518292496305763
8.257425742574258,1.7383307845194573
8.277227722772277,1.7242053430965978
8.297029702970297,1.7094940589562333
8.316831683168317,1.6942407371231576
8.336633663366337,1.6784918837026026
8.356435643564357,1.6622967313677275
8.376237623762377,1.6457072588647716
8.396039603960396,1.628778202354636
8.415841584158416,1.6115670560039794
8.435643564356436,1.5941340587920303
8.455445544554456,1.5765421640169002
8.475247524752476,1.5588569874784612
8.495049504950495,1.5411467298001307
8.514851485148515,1.5234820678546626
8.534653465346535,1.5059360098112156
8.554455445544555,1.4885837079674835
8.574257425742575,1.4715022233246362
8.594059405940595,1.4547702358695012
8.613861386138613,1.4384676948215853
8.633663366336634,1.4226754037609148
8.653465346534654,1.4074745366557906
8.673267326732672,1.3929460824264834
8.693069306930694,1.3791702178622351
8.712871287128714,1.3662256114697573
8.732673267326732,1.3541886641395706
8.752475247524753,1.343132696276744
8.772277227722773,1.3331270950866125
8.792079207920791,1.3242364397907147
8.811881188118813,1.3165196263603323
8.831683168316832,1.3100290165332378
8.85148514851485,1.3048096380471854
8.871287128712872,1.3008984638338805
8.891089108910892,1.298323797104463
8.91089108910891,1.297104786686295
8.930693069306932,1.29725109267444
8.950495049504951,1.298762716657749
8.97029702970297,1.30163000386136
8.990099009900991,1.30583381704324
9.00990099009901,1.311345874493429
9.029702970297029,1.318129237610621
9.04950495049505,1.326138927793982
9.06930693069307,1.3353226481724771
9.089108910891088,1.345621583208339
9.10891089108911,1.3569712484786856
9.12871287128713,1.3693023638176187
9.148514851485148,1.3825417252190155
9.16831683168317,1.3966130541088702
9.188118811881187,1.4114378064192004
9.207920792079207,1.4269359279741358
9.227722772277229,1.443026546723898
9.247524752475247,1.4596285960947508
9.267326732673267,1.4766613669985738
9.287128712871288,1.4940449887731324
9.306930693069306,1.5117008414734876
9.326732673267326,1.529551903523912
9.346534653465348,1.5475230398190116
9.366336633663366,1.5655412360029342
9.386138613861386,1.5835357849349663
9.405940594059407,1.6014384313475067
9.425742574257425,1.6191834804912015
9.445544554455445,1.6367078762060319
9.465346534653467,1.6539512534099565
9.485148514851485,1.6708559695008174
9.504950495049505,1.6873671186559227
9.524752475247526,1.7034325325103667
9.544554455445544,1.7190027702169726
9.564356435643564,1.734031100447678
9.584158415841586,1.7484734774946546
9.603960396039604,1.7622885132717079
9.623762376237623,1.7754374467023286
9.643564356435645,1.787884111708886
9.663366336633663,1.7995949047844966
9.683168316831683,1.8105387529320003
9.702970297029704,1.8206870825894164
9.722772277227723,1.8300137900244051
9.742574257425742,1.8384952135682078
9.762376237623764,1.8461101079685278
9.782178217821782,1.8528396210684503
9.801980198019802,1.8586672729609222
9.821782178217823,1.8635789377242595
9.841584158415841,1.867562827810284
9.861386138613861,1.8706094811320566
9.881188118811881,1.8727117508802082
9.900990099009901,1.8738647980848333
9.92079207920792,1.874066086932031
9.94059405940594,1.8733153828391385
9.96039603960396,1.8716147532902836
9.98019801980198,1.8689685714315667
10.0,1.8653835224237092
10.01980198019802,1.8608686125468308
10.03960396039604,1.8554351810472731
10.05940594059406,1.849096914708298
10.07920792079208,1.8418698651140588
10.099009900990099,1.833772468558329
10.118811881188119,1.8248255685243004
10.138613861386139,1.815052440627759
10.158415841584159,1.8044788198713428
10.178217821782178,1.7931329299997016
10.198019801980198,1.7810455146725046
10.217821782178218,1.768249870080708
10.237623762376238,1.7547818785189113
10.257425742574258,1.740680042289311
10.277227722772277,1.7259855171471679
10.297029702970297,1.71074214429998
10.316831683168317,1.694996479739593
10.336633663366337,1.67879781941387
10.356435643564357,1.6621982184308366
10.376237623762377,1.6452525021303332
10.396039603960396,1.6280182664573957
10.415841584158416,1.6105558646297202
10.435643564356436,1.592928376614495
10.455445544554454,1.5752015574290061
10.475247524752476,1.5574437597704665
10.495049504950495,1.5397258259878221
10.514851485148514,1.5221209439647574
10.534653465346535,1.5047044611305218
10.554455445544555,1.4875536506075697
10.574257425742573,1.4707474235052105
10.594059405940595,1.4543659816486951
10.613861386138614,1.438490405672054
10.633663366336632,1.4232021744768113
10.653465346534654,1.408582613638336
10.673267326732674,1.3947122724752905
10.693069306930692,1.3816702322041916
