Time (s),Filtered Signal
0.0,0.03901406520816198
0.03337008452774715,0.29311947109437264
0.0667401690554943,0.46140017126163574
0.10011025358324147,0.4974680090303544
0.1334803381109886,0.41313180728997695
0.16685042263873576,0.2688974403478515
0.20022050716648293,0.14100786083890693
0.23359059169423008,0.08255407538589676
0.2669606762219772,0.09902542807190143
0.30033076074972437,0.15049912004042365
0.3337008452774715,0.17788402427317357
0.36707092980521866,0.13756042912255556
0.40044101433296586,0.024889955077699016
0.433811098860713,-0.12549033136848992
0.46718118338846015,-0.2606102112140632
0.5005512679162073,-0.3373037412629272
0.5339213524439544,-0.34064815104256224
0.5672914369717016,-0.283450993260378
0.6006615214994487,-0.1903181160299237
0.6340316060271959,-0.07935416574605769
0.667401690554943,0.04518844558129662
0.7007717750826902,0.18477188789104795
0.7341418596104373,0.3301291125040552
0.7675119441381845,0.4504369231900712
0.8008820286659317,0.4991052257540619
0.8342521131936789,0.43616545235158694
0.867622197721426,0.25509041796674814
0.9009922822491732,-0.003338429517223356
0.9343623667769203,-0.2617419570363926
0.9677324513046675,-0.43910185243707595
1.0011025358324146,-0.48966436487068987
1.0344726203601617,-0.42623148188853255
1.0678427048879089,-0.3136167374045615
1.101212789415656,-0.23431551229003805
1.1345828739434032,-0.24432197908483522
1.1679529584711503,-0.34302062250783405
1.2013230429988975,-0.473419720709786
1.2346931275266446,-0.5521111544172408
1.2680632120543918,-0.512174658377899
1.301433296582139,-0.33605723999787224
1.334803381109886,-0.06223597393406558
1.3681734656376332,0.23551035704375978
1.4015435501653803,0.48319121953450894
1.4349136346931275,0.6373064406384601
1.4682837192208746,0.6971599491739111
1.5016538037486218,0.6959006136373528
1.535023888276369,0.6780039192369237
1.568393972804116,0.6757488064982355
1.6017640573318634,0.695273013327028
1.6351341418596106,0.7165803568119781
1.6685042263873577,0.7051857342138507
1.7018743109151049,0.6287256026001404
1.735244395442852,0.4709663181857731
1.7686144799705992,0.23793258751583457
1.8019845644983463,-0.04495196648084007
1.8353546490260935,-0.34175109006575505
1.8687247335538406,-0.6159425292976158
1.9020948180815878,-0.8372864238531113
1.935464902609335,-0.9845079429378661
1.968834987137082,-1.0456260046448371
2.002205071664829,-1.0186862554642602
2.0355751561925763,-0.9139704023353417
2.0689452407203235,-0.7557915989719979
2.1023153252480706,-0.580187487633671
2.1356854097758178,-0.42604801735270964
2.169055494303565,-0.32125805589753115
2.202425578831312,-0.26985547034635876
2.235795663359059,-0.24778067506979295
2.2691657478868064,-0.21171736603355346
2.3025358324145535,-0.11887299578870553
2.3359059169423007,0.05105761740974187
2.369276001470048,0.28295701833720094
2.402646085997795,0.5298747274593042
2.436016170525542,0.7323009543814736
2.4693862550532892,0.8438322878704572
2.5027563395810364,0.8503245640530094
2.5361264241087835,0.7731801142088168
2.5694965086365307,0.6561564814555358
2.602866593164278,0.5437981526087815
2.636236677692025,0.4631692032126534
2.669606762219772,0.4173127637661602
2.7029768467475193,0.3913975673915723
2.7363469312752664,0.36566135595981253
2.7697170158030135,0.3267842900104589
2.8030871003307607,0.27186842012752094
2.836457184858508,0.20453578238968387
2.869827269386255,0.1274493170352683
2.903197353914002,0.037251341169917164
2.9365674384417493,-0.07412715904208272
2.9699375229694964,-0.21220125441528742
3.0033076074972436,-0.3712312241581736
3.0366776920249907,-0.5300817296521777
3.070047776552738,-0.6565814221163782
3.103417861080485,-0.719752155203099
3.136787945608232,-0.7045765222719125
3.1701580301359793,-0.6216919974101572
3.203528114663727,-0.5059836137114616
3.236898199191474,-0.4030854946311847
3.270268283719221,-0.3490790241500568
3.3036383682469683,-0.3529994565225153
3.3370084527747155,-0.391429493341053
3.3703785373024626,-0.4189232717769824
3.4037486218302098,-0.3897647247597792
3.437118706357957,-0.28019435821845995
3.470488790885704,-0.09968117067989607
3.503858875413451,0.11432783562235117
3.5372289599411983,0.3148254446505938
3.5705990444689455,0.46666951251960975
3.6039691289966926,0.5598899159919766
3.63733921352444,0.6087513742358687
3.670709298052187,0.6382662418541605
3.704079382579934,0.6662145127931022
3.7374494671076812,0.6905696747251564
3.7708195516354284,0.6889972246993207
3.8041896361631755,0.6306901462891568
3.8375597206909227,0.4944790933249715
3.87092980521867,0.28392468961251194
3.904299889746417,0.03141213598916286
3.937669974274164,-0.21156389099416206
3.9710400588019112,-0.39412868873724055
4.004410143329658,-0.4869627276773759
4.0377802278574055,-0.49457463474855606
4.071150312385153,-0.4526243858499407
4.1045203969129,-0.41083987055619303
4.137890481440647,-0.40907819923733185
4.171260565968394,-0.4577649739336654
4.204630650496141,-0.532154813911413
4.238000735023888,-0.5832253798234263
4.2713708195516356,-0.5599192905706414
4.304740904079383,-0.43220217164008495
4.33811098860713,-0.20469679683342573
4.371481073134877,0.08408719050246331
4.404851157662624,0.3750142452731513
4.438221242190371,0.6074488234353672
4.471591326718118,0.7369596196318048
4.504961411245866,0.7467825187215552
4.538331495773613,0.6513362553366757
4.57170158030136,0.4919615944661367
4.605071664829107,0.32569405329281725
4.638441749356854,0.20866008107639167
4.671811833884601,0.1776532408884117
4.7051819184123485,0.2358952907369062
4.738552002940096,0.3496367110729872
4.771922087467843,0.45911989300508216
4.80529217199559,0.5009977491095615
4.838662256523337,0.4329751952604287
4.872032341051084,0.24947712729545338
4.905402425578831,-0.018558651585773207
4.9387725101065785,-0.3183276056753438
4.972142594634326,-0.59550257700062
5.005512679162073,-0.8097738151948399
5.03888276368982,-0.9397127707122959
5.072252848217567,-0.9787021574434638
5.105622932745314,-0.928963691599893
5.138993017273061,-0.8001581989831458
5.1723631018008085,-0.6133772907971493
5.205733186328556,-0.4050648306043382
5.239103270856303,-0.2234775596567646
5.27247335538405,-0.11458170289820203
5.305843439911797,-0.10209854803168392
5.339213524439544,-0.17229537500661948
5.372583608967291,-0.27362299491044895
5.4059536934950385,-0.3341561387854773
5.439323778022786,-0.2901730489458425
5.472693862550533,-0.11292900680002506
5.50606394707828,0.17864392492640502
5.539434031606027,0.5246423914618944
5.572804116133774,0.8465891980545545
5.606174200661521,1.0753576142768906
5.6395442851892685,1.1731760803686355
5.672914369717016,1.1418208706785038
5.706284454244763,1.0152741589586174
5.73965453877251,0.8413211149270107
5.773024623300257,0.6606864451043342
5.806394707828004,0.4929729758540174
5.839764792355751,0.33539267699182507
5.873134876883499,0.17403335283414836
5.906504961411246,0.0007939638434096152
5.939875045938993,-0.17437770926895393
5.97324513046674,-0.3241914400531887
6.006615214994487,-0.4185332906700391
6.039985299522234,-0.44479403733243156
6.073355384049981,-0.4210867779435702
6.106725468577729,-0.3922328239985086
6.140095553105476,-0.4081153662890982
6.173465637633223,-0.49514914142974487
6.20683572216097,-0.6371623710651633
6.240205806688717,-0.7779378980550791
6.273575891216464,-0.845910081134859
6.3069459757442115,-0.7889051766486443
6.340316060271959,-0.6008735694194901
6.373686144799706,-0.3267556697819532
6.407056229327454,-0.04330486150019766
6.440426313855201,0.17397089079119815
6.473796398382948,0.28126996838685486
6.507166482910695,0.2803649753056431
6.540536567438442,0.2110543392296492
6.5739066519661895,0.12801962996953195
6.607276736493937,0.0747245210339191
6.640646821021684,0.06709513862741107
6.674016905549431,0.09367207422137473
6.707386990077178,0.13009869671193003
6.740757074604925,0.15865492959595767
6.774127159132672,0.18148552115076547
6.8074972436604195,0.2200386986217439
6.840867328188167,0.30089661686775326
6.874237412715914,0.4356340906089483
6.907607497243661,0.6057688227711011
6.940977581771408,0.7616193749978494
6.974347666299155,0.8372477209167626
7.007717750826902,0.775976532082505
7.0410878353546495,0.5558244480655975
7.074457919882397,0.20377511273491353
7.107828004410144,-0.20787829963797927
7.141198088937891,-0.5826864173271306
7.174568173465638,-0.8311923075980082
7.207938257993385,-0.9004861200894047
7.241308342521132,-0.7911260586687936
7.27467842704888,-0.5552787851849181
7.308048511576627,-0.2770788831318233
7.341418596104374,-0.04273593796042137
7.374788680632121,0.08854131795809353
7.408158765159868,0.10226754811276867
7.441528849687615,0.028835436302057545
7.4748989342153624,-0.07344014476847477
7.50826901874311,-0.14522472491957208
7.541639103270857,-0.1517481073262521
7.575009187798604,-0.09624996337386785
7.608379272326351,-0.015627342340230624
7.641749356854098,0.039519005929470864
7.675119441381845,0.031180382410675136
7.7084895259095925,-0.04559316134376713
7.74185961043734,-0.15750793435761293
7.775229694965087,-0.245511075869094
7.808599779492834,-0.24936625752352945
7.841969864020581,-0.1336447011154849
7.875339948548328,0.09565099571630478
7.908710033076075,0.3901581161182446
7.9420801176038225,0.6736760954285772
7.97545020213157,0.8662063927956857
8.008820286659317,0.9088578312226215
8.042190371187063,0.7816397052013496
8.075560455714811,0.509211825392859
8.108930540242557,0.15353563742104884
8.142300624770305,-0.2040708015959511
8.175670709298052,-0.48621191276857906
8.2090407938258,-0.6410893130432367
8.242410878353546,-0.655634822174048
8.275780962881294,-0.5555388250694454
8.30915104740904,-0.3922414126972006
8.342521131936788,-0.22222795285126526
8.375891216464534,-0.08729087930238726
8.409261300992283,-0.003796169417505025
8.442631385520029,0.035492868106582726
8.476001470047777,0.04956373776214559
8.509371554575523,0.054360691069856415
8.542741639103271,0.052960499078783696
8.57611172363102,0.03549874198747342
8.609481808158765,-0.011780340151052868
8.642851892686513,-0.09394892036092417
8.67622197721426,-0.19888497754580683
8.709592061742008,-0.29824876692653257
8.742962146269754,-0.3580367417762117
8.776332230797502,-0.35324546465258216
8.809702315325248,-0.27873801063565556
8.843072399852996,-0.15066799087568075
8.876442484380743,0.0016402081880899355
8.90981256890849,0.14824736492017265
8.943182653436237,0.26890757910518276
8.976552737963985,0.3570919632223194
9.009922822491731,0.4180981273718514
9.04329290701948,0.46434307976076444
9.076662991547225,0.5104084517192807
9.110033076074973,0.5680742755761026
9.14340316060272,0.6403826982399261
9.176773245130468,0.7152992539739177
9.210143329658214,0.7624585236666674
9.243513414185962,0.7376916567295013
9.276883498713708,0.5974143327022645
9.310253583241456,0.3193223386297724
9.343623667769203,-0.07941090762236615
9.37699375229695,-0.5364178362327575
9.410363836824697,-0.956497175772935
9.443733921352445,-1.2395480072018603
9.477104005880191,-1.313973179509855
9.51047409040794,-1.1623896869986023
9.543844174935685,-0.8294391720800738
9.577214259463434,-0.40870759533056156
9.61058434399118,-0.01364955395092752
9.643954428518928,0.2572652619986055
9.677324513046674,0.3496598863344071
9.710694597574422,0.26745149337664686
9.744064682102168,0.067788360962371
9.777434766629916,-0.16165308422188754
9.810804851157663,-0.3354201782508745
9.84417493568541,-0.4011620882959721
9.877545020213157,-0.3561587483000364
9.910915104740905,-0.24185294462582932
9.944285189268651,-0.11821161661649403
9.9776552737964,-0.02993090350254312
10.011025358324146,0.018252514267284817
10.044395442851894,0.06351572176927575
10.07776552737964,0.16216747595526498
10.111135611907388,0.3537609697961372
10.144505696435134,0.6315673327313995
10.177875780962882,0.9361096315328705
10.211245865490628,1.1763978063833744
10.244615950018376,1.2688256100081443
10.277986034546123,1.17441188295738
10.31135611907387,0.9159834776993047
10.344726203601617,0.5671920186972293
10.378096288129365,0.21933741129674367
10.411466372657111,-0.057394576303175994
10.44483645718486,-0.2396783582944541
10.478206541712606,-0.35247278982571867
10.511576626240354,-0.4473301086767629
10.5449467107681,-0.5699750369962191
10.578316795295848,-0.7338925293303669
10.611686879823594,-0.912529781376577
10.645056964351342,-1.0527711185922004
10.678427048879088,-1.1018093543992509
10.711797133406836,-1.033455766483247
10.745167217934583,-0.8609200228187704
10.77853730246233,-0.6303635812150125
10.811907386990077,-0.3993224633046788
10.845277471517825,-0.21140792338639589
10.878647556045571,-0.07982169741790802
10.91201764057332,0.013158542372686152
10.945387725101066,0.10219333119964819
10.978757809628814,0.21888041188075416
11.01212789415656,0.3760876677412879
11.045497978684308,0.5633235145397157
11.078868063212054,0.7533353190059023
11.112238147739802,0.9145613686438249
11.145608232267548,1.022220540114443
11.178978316795297,1.063090098188542
11.212348401323043,1.0335214830173494
11.24571848585079,0.9341856964086087
11.279088570378537,0.7663403706972868
11.312458654906285,0.5326845768062723
11.345828739434031,0.24239842202341347
11.37919882396178,-0.08315784578619755
11.412568908489526,-0.40863930413266436
11.445938993017274,-0.6897294817335482
11.47930907754502,-0.8844098420634521
11.512679162072768,-0.9663439890727267
11.546049246600514,-0.9344583606583846
11.579419331128262,-0.8139428235385961
11.612789415656009,-0.6476077406109783
11.646159500183757,-0.4810295033988548
11.679529584711503,-0.3478416056147382
11.71289966923925,-0.26128589442728145
11.746269753766997,-0.21484764643112125
11.779639838294745,-0.19028179906649592
11.813009922822491,-0.16809256455202676
11.84638000735024,-0.13523297324883762
11.879750091877986,-0.0872787952772266
11.913120176405734,-0.025783128363217812
11.94649026093348,0.04621323912708306
11.979860345461228,0.12747137460750363
12.013230429988974,0.2191551541314095
12.046600514516722,0.3230423233244928
12.079970599044469,0.4386293175323869
12.113340683572217,0.5604821147849287
12.146710768099963,0.6768213806962049
12.180080852627711,0.7699756935752464
12.213450937155457,0.819062956304887
12.246821021683205,0.8048580846524958
12.280191106210951,0.7160612826011563
12.3135611907387,0.5551585837465743
12.346931275266446,0.3412697037860816
12.380301359794194,0.10760385674576499
12.41367144432194,-0.10708624577657833
12.447041528849688,-0.27076252355148883
12.480411613377434,-0.36922419194332984
12.513781697905182,-0.41078637458926276
12.547151782432929,-0.4216293032700567
12.580521866960677,-0.4332961391794793
12.613891951488423,-0.46785200317468917
12.647262036016171,-0.5276666431268371
12.680632120543917,-0.5947435646216481
12.714002205071665,-0.6399454961611811
12.747372289599411,-0.6376535650014312
12.78074237412716,-0.5787674899612847
12.814112458654908,-0.475790426856541
12.847482543182654,-0.3575519394497064
12.880852627710402,-0.2559945338396063
12.914222712238148,-0.1911185239922325
12.947592796765896,-0.16106719871297628
12.980962881293642,-0.14208021591237238
13.01433296582139,-0.09859406170166256
13.047703050349137,0.0008899376253992386
13.081073134876885,0.16916711429033035
13.114443219404631,0.39317428837729357
13.147813303932379,0.6369427476915839
13.181183388460125,0.852784228415143
13.214553472987873,0.9957380838948895
13.24792355751562,1.0358192444429344
13.281293642043368,0.9644131571436098
13.314663726571114,0.7939696957526181
13.348033811098862,0.5525752833786256
13.381403895626608,0.2762060635032908
13.414773980154356,0.0013789242012818665
13.448144064682102,-0.2400571864150964
13.48151414920985,-0.4235254339884812
13.514884233737597,-0.5323863778136877
13.548254318265345,-0.5580186075719592
13.581624402793091,-0.5006522218801833
13.614994487320839,-0.37139880387039587
13.648364571848585,-0.19439881968740919
13.681734656376333,-0.006693711113045237
13.71510474090408,0.1466173252831951
13.748474825431828,0.2226223995378503
13.781844909959574,0.19392269699084838
13.815214994487322,0.060005375900737686
13.848585079015068,-0.14900969959829874
13.881955163542816,-0.37957036897421376
13.915325248070562,-0.5714886889258862
13.94869533259831,-0.678123857356728
13.982065417126057,-0.6813063239270042
14.015435501653805,-0.5940630816330376
14.048805586181551,-0.44976569916781517
14.082175670709299,-0.28323929086191724
14.115545755237045,-0.11395977798067002
14.148915839764793,0.059175453834418065
14.18228592429254,0.24816506099612295
14.215656008820288,0.4566944083115322
14.249026093348034,0.6632448887323776
14.282396177875782,0.8184623228304522
14.315766262403528,0.8616451000875259
14.349136346931276,0.7503138946631144
14.382506431459023,0.4880960901867007
14.41587651598677,0.1349413747991484
14.449246600514517,-0.20857702020631327
14.482616685042265,-0.4380912384270709
14.515986769570011,-0.48724571150937673
14.54935685409776,-0.354949620085282
14.582726938625505,-0.10517749566470766
14.616097023153253,0.16039161470721403
14.649467107681,0.3438372144013562
14.682837192208748,0.3876865685089922
14.716207276736494,0.2916091850814211
14.749577361264242,0.10440192876955434
14.782947445791988,-0.10200141306362452
14.816317530319736,-0.2630333894406499
14.849687614847483,-0.34347170394775317
14.88305769937523,-0.3438977238314355
14.916427783902977,-0.2923648341178759
14.949797868430725,-0.22764115376017077
14.983167952958471,-0.18213124378517564
15.01653803748622,-0.17083594337300026
15.049908122013965,-0.18912169414005991
15.083278206541713,-0.2183458488313289
15.11664829106946,-0.23569093835637736
15.150018375597208,-0.2235379236597844
15.183388460124954,-0.17458635885863555
15.216758544652702,-0.09138762138566318
15.250128629180448,0.018080023762849923
15.283498713708196,0.14525583140956227
15.316868798235943,0.28300203363251597
15.35023888276369,0.4238069922458273
15.383608967291437,0.5560273319345299
15.416979051819185,0.6615081849786015
15.450349136346931,0.7172359594715415
15.48371922087468,0.7013601174093714
15.517089305402425,0.6013996917098363
15.550459389930174,0.42106048029555865
15.58382947445792,0.1824083773263471
15.617199558985668,-0.07808062498626941
15.650569643513414,-0.3186415516550099
15.683939728041162,-0.5034584098604463
15.717309812568908,-0.6120411167868232
15.750679897096656,-0.6434269157950544
15.784049981624403,-0.6138986247531835
15.81742006615215,-0.5494135835971475
15.850790150679897,-0.47585380505210617
15.884160235207645,-0.4107531416685088
15.917530319735391,-0.3592088310507192
15.95090040426314,-0.31480281201405896
15.984270488790886,-0.2644586175174342
16.017640573318634,-0.19502482598917426
16.05101065784638,-0.09927977954377501
16.084380742374126,0.020288735927820233
16.117750826901876,0.1507228183426957
16.151120911429622,0.27102727433946977
16.18449099595737,0.35757909769990287
16.217861080485115,0.3917497293047398
16.251231165012864,0.3679611055698457
16.28460124954061,0.2992047109622128
16.317971334068357,0.21664889156305456
16.351341418596103,0.16134710284160755
16.384711503123853,0.16933880499096157
16.4180815876516,0.2553035779821847
16.451451672179346,0.4021536969881858
16.484821756707092,0.5626847863184707
16.51819184123484,0.6745687964866603
16.551561925762588,0.683670538839701
16.584932010290334,0.5661534715932679
16.61830209481808,0.33962666247356266
16.65167217934583,0.05797239840965048
16.685042263873576,-0.2085293314162406
16.718412348401323,-0.39975408971183396
16.75178243292907,-0.487882885131449
16.78515251745682,-0.48572200354378336
16.818522601984565,-0.43762674008836655
16.85189268651231,-0.3972241982348617
16.885262771040058,-0.4023286802883513
16.918632855567807,-0.4588768490980292
16.952002940095554,-0.5412444963152642
16.9853730246233,-0.6079401680541775
17.018743109151046,-0.6238100585342242
17.052113193678796,-0.576924447025082
17.085483278206542,-0.4819120833099099
17.11885336273429,-0.36944690988139217
17.15222344726204,-0.26909356823405295
17.185593531789785,-0.1954607778994865
17.21896361631753,-0.14440637311482726
17.252333700845277,-0.09938617790044198
17.285703785373027,-0.04230185172221568
17.319073869900773,0.03826285210174631
