Frequency (Hz),Amplitude
0.0,2.055968945892666
0.019823788546255508,2.1999570548551928
0.039647577092511016,2.583758129721502
0.059471365638766524,3.1189362534617664
0.07929515418502203,3.739473818548837
0.09911894273127755,4.407578677090789
0.11894273127753305,5.102507693226683
0.13876651982378857,5.812412917861656
0.15859030837004406,6.530077610014727
0.17841409691629956,7.250793878005036
0.1982378854625551,7.971281325051357
0.2180616740088106,8.689111934870361
0.2378854625550661,9.402389911306656
0.25770925110132165,10.109565636927803
0.27753303964757714,10.80932332083828
0.29735682819383263,11.500510807445462
0.31718061674008813,12.182094410240742
0.3370044052863437,12.853129097393907
0.3568281938325991,13.512738376866258
0.37665198237885467,14.16010047341941
0.3964757709251102,14.79443868428724
0.41629955947136565,15.415014569057883
0.4361233480176212,16.02112309834661
0.4559471365638767,16.612089179087782
0.4757709251101322,17.187265161755867
0.49559471365638774,17.74602905716175
0.5154185022026433,18.287783271808674
0.5352422907488987,18.81195372581187
0.5550660792951543,19.31798925520026
0.5748898678414097,19.80536122679433
0.5947136563876653,20.273563312504166
0.6145374449339208,20.72211138324913
0.6343612334801763,21.150543492381487
0.6541850220264318,21.558419925593444
0.6740088105726874,21.945323299541556
0.6938325991189428,22.31085869535809
0.7136563876651982,22.654653816188254
0.7334801762114539,22.976359160158623
0.7533039647577093,23.27564820192487
0.7731277533039648,23.552217577298734
0.7929515418502204,23.805787266513686
0.8127753303964759,24.036100772524623
0.8325991189427313,24.242925291402493
0.8524229074889869,24.42605187242248
0.8722466960352424,24.58529556587678
0.8920704845814978,24.720495557004636
0.9118942731277534,24.831515284725093
0.931718061674009,24.918242544112346
0.9515418502202644,24.980589571764845
0.9713656387665199,25.018493113408272
0.9911894273127755,25.031914473236558
1.0110132158590308,25.020839544646282
1.0308370044052866,24.985278822161497
1.0506607929515421,24.925267394478055
1.0704845814977975,24.840864918691018
1.090308370044053,24.73215557590219
1.1101321585903086,24.59924800854543
1.1299559471365639,24.442275239917187
1.1497797356828194,24.26139457656657
1.1696035242290752,24.05678749438344
1.1894273127753305,23.82865950943871
1.209251101321586,23.577240034879072
1.2290748898678416,23.302782225475706
1.248898678414097,23.005562811781356
1.2687224669603525,22.685881926284367
1.288546255506608,22.34406292448128
1.3083700440528636,21.980452204450977
1.3281938325991192,21.595419029345678
1.3480176211453747,21.189355358264628
1.36784140969163,20.76267569231825
1.3876651982378856,20.315816944421375
1.4074889867841411,19.849238343597847
1.4273127753303965,19.36342138752472
1.4471365638766522,18.858869860937407
1.4669603524229078,18.33610994271981
1.4867841409691631,17.79569043151849
1.5066079295154187,17.238183129286217
1.5264317180616742,16.664183435345212
1.5462555066079295,16.074311221955753
1.5660792951541853,15.469212088364307
1.5859030837004409,14.849559127527167
1.6057268722466962,14.216055393801804
1.6255506607929517,13.56943733977197
1.6453744493392073,12.910479610348435
1.6651982378854626,12.240001765878203
1.6850220264317182,11.558877792696919
1.7048458149779737,10.868049717303718
1.7246696035242293,10.168547389131145
1.7444933920704848,9.461517754845667
1.7643171806167404,8.748269123244096
1.7841409691629957,8.030339807181052
1.8039647577092512,7.309607721507092
1.8237885462555068,6.588471339175995
1.8436123348017623,5.870160059862275
1.863436123348018,5.159289602989412
1.8832599118942732,4.462901846762733
1.9030837004405288,3.7924969354349676
1.9229074889867843,3.1681038450252714
1.9427312775330399,2.6260911569771617
1.9625550660792954,2.2302511550111146
1.982378854625551,2.068248298701736
2.002202643171806,2.1932151397141206
2.0220264317180616,2.56315258361304
2.041850220264317,3.0902427437674627
2.061674008810573,3.7065087265968053
2.0814977973568287,4.37255953334652
2.1013215859030843,5.066736381020045
2.1211453744493394,5.776696345474809
2.140969162995595,6.494948986678796
2.1607929515418505,7.216628107319942
2.180616740088106,7.9383571347233515
2.2004405286343616,8.657646760162402
2.220264317180617,9.372560317714843
2.2400881057268722,10.081519745674168
2.2599118942731278,10.783188631656822
2.2797356828193833,11.476399272925116
2.299559471365639,12.160105813414804
2.319383259911895,12.833353350152949
2.3392070484581504,13.49525711352842
2.3590308370044055,14.144988172979001
2.378854625550661,14.781763470871422
2.3986784140969166,15.40483878863594
2.418502202643172,16.013503737381914
2.4383259911894277,16.607078170020415
2.4581497797356833,17.1849096065491
2.4779735682819384,17.746371391008587
2.497797356828194,18.290861382872574
2.5176211453744495,18.817801042568625
2.537444933920705,19.32663480992238
2.5572687224669606,19.81682970156204
2.577092511013216,20.287875072571236
2.5969162995594717,20.73928250145323
2.6167400881057272,21.170585767448387
2.6365638766519828,21.581340896554604
2.6563876651982383,21.971126258011136
2.676211453744494,22.33954269705236
2.6960352422907494,22.686213692791757
2.715859030837005,23.010785532425388
2.73568281938326,23.312927494731927
2.7555066079295156,23.592332037236506
2.775330396475771,23.848714982489255
2.7951541850220267,24.081815699768807
2.8149779735682823,24.291397279201583
2.834801762114538,24.477246695838627
2.854625550660793,24.63917496167493
2.874449339207049,24.777017263963916
2.8942731277533045,24.89063308848231
2.91409691629956,24.979906326657073
2.9339207048458156,25.04474536568434
2.953744493392071,25.085083160960917
2.9735682819383262,25.10087729031766
2.993392070484582,25.092109989697896
3.0132158590308373,25.058788170066425
3.033039647577093,25.000943415471564
3.0528634361233484,24.91863196231788
3.072687224669604,24.811934660042876
3.092511013215859,24.680956913534057
3.1123348017621146,24.525828607775765
3.1321585903083706,24.34670401538222
3.151982378854626,24.143761687863385
3.1718061674008817,23.91720433168626
3.1916299559471373,23.667258670447385
3.2114537444933924,23.394175294774104
3.231277533039648,23.098228501930976
3.2511013215859035,22.779716127548664
3.270925110132159,22.43895937243273
3.2907488986784146,22.07630262807914
3.31057268722467,21.69211330536722
3.3303964757709252,21.28678167196242
3.350220264317181,20.860720705320688
3.3700440528634363,20.414365969933897
3.389867841409692,19.94817552972488
3.4096916299559474,19.46262990947351
3.4295154185022034,18.9582321230849
3.4493392070484585,18.43550779175557
3.469162995594714,17.895005382161344
3.4889867841409696,17.337296604420413
3.508810572687225,16.762977022843593
3.5286343612334807,16.172666950966022
3.5484581497797363,15.567012728433445
3.5682819383259914,14.94668851462607
3.588105726872247,14.31239878805411
3.6079295154185025,13.664881820400266
3.627753303964758,13.004914513819475
3.6475770925110136,12.333319173010477
3.667400881057269,11.65097306864039
3.6872246696035247,10.958822102845112
3.7070484581497802,10.257900628594061
3.726872246696036,9.549360716202692
3.7466960352422913,8.834516301054308
3.7665198237885464,8.114911456711983
3.7863436123348024,7.392429057022216
3.8061674008810575,6.669469513488235
3.8259911894273135,5.94925596561238
3.8458149779735686,5.236377466513282
3.8656387665198246,4.537799369861158
3.8854625550660797,3.864822713955553
3.905286343612335,3.236976060445046
3.925110132158591,2.6894361131051236
3.9449339207048464,2.283681365956272
3.964757709251102,2.1054154221053776
3.9845814977973575,2.2111719325417143
4.004405286343612,2.565801541614382
4.024229074889869,3.0836153583996784
4.044052863436123,3.6951603063732303
4.06387665198238,4.359357449199587
4.083700440528634,5.053452474329012
4.103524229074891,5.764462873698548
4.123348017621146,6.484523856012184
4.143171806167401,7.208542475696852
4.162995594713657,7.932998867079054
4.182819383259912,8.655309200634514
4.2026431718061685,9.373471849997777
4.222466960352423,10.085862347372036
4.242290748898679,10.791109899308212
4.262114537444934,11.48802044235967
4.28193832599119,12.1755272475286
4.301762114537445,12.852658380048965
4.321585903083701,13.518514782071893
4.3414096916299565,14.172255230291325
4.361233480176212,14.813085849787576
4.381057268722468,15.440252712245375
4.400881057268723,16.053036562221315
4.420704845814979,16.650749036757404
4.440528634361234,17.23272994884164
4.46035242290749,17.79834533886458
4.4801762114537445,18.34698608691878
4.500000000000001,18.878066938685972
4.5198237885462555,19.391025838758626
4.539647577092512,19.885323493867947
4.559471365638767,20.360443108703247
4.579295154185023,20.81589025146387
4.599118942731278,21.25119281675051
4.618942731277533,21.665901061063433
4.63876651982379,22.059587691843344
4.658590308370044,22.431847995227777
4.678414096916301,22.782299990892607
4.6982378854625555,23.110584604782975
4.718061674008811,23.416365852409065
4.737885462555067,23.699331026833196
4.757709251101322,23.95919088660756
4.777533039647578,24.19567983981841
4.797356828193833,24.40855612110309
4.817180616740089,24.59760195907903
4.837004405286344,24.76262373208811
4.856828193832599,24.90345211054018
4.876651982378855,25.019942184455516
4.896475770925111,25.111973575072213
4.9162995594713665,25.17945052961109
4.936123348017622,25.222301998488767
4.955947136563877,25.240481694443933
4.975770925110133,25.2339681332014
4.995594713656388,25.202764655446305
5.015418502202644,25.1468994300218
5.035242290748899,25.06642543840328
5.055066079295155,24.961420440643373
5.07488986784141,24.831986923128333
5.094713656387666,24.67825202864562
5.114537444933921,24.50036746943471
5.134361233480177,24.2985094240893
5.154185022026432,24.072878419402937
5.174008810572688,23.823699198511836
5.193832599118943,23.551220576998205
5.213656387665199,23.25571528899254
5.2334801762114544,22.937479825764484
5.25330396475771,22.596834269851982
5.2731277533039655,22.2341221284701
5.292951541850221,21.849710170809928
5.312775330396477,21.443988274935734
5.332599118942731,21.017369291388977
5.352422907488988,20.570288932410005
5.372246696035242,20.103205698025484
5.392070484581499,19.61660085331029
5.4118942731277535,19.110978475175255
5.43171806167401,18.586865592422964
5.451541850220265,18.044812450073906
5.47136563876652,17.485392938844182
5.491189427312777,16.909205244248934
5.511013215859031,16.316872788727068
5.530837004405288,15.709045566854055
5.550660792951542,15.086402011811856
5.570484581497798,14.449651586507244
5.5903083700440535,13.799538374016855
5.610132158590309,13.136846063719277
5.6299559471365646,12.46240491497781
5.64977973568282,11.77710156869766
5.669603524229076,11.081893035447443
5.689427312775331,10.377826934601494
5.709251101321586,9.666071304124491
5.729074889867842,8.947959439333996
5.748898678414098,8.225059007983193
5.768722466960353,7.4992816315495086
5.788546255506609,6.7730623112857735
5.808370044052864,6.049664093157066
5.82819383259912,5.333716594081805
5.848017621145375,4.632209085219501
5.867841409691631,3.956395303327905
5.887665198237886,3.3255252953994874
5.907488986784142,2.77384979669768
5.927312775330397,2.360575968802258
5.9471365638766525,2.168487544991419
5.966960352422908,2.2557400947932575
5.986784140969164,2.594130098549428
6.00660792951542,3.1016049739638083
6.026431718061675,3.707956334354078
6.04625550660793,4.370450602039791
6.066079295154186,5.065095571656507
6.085903083700441,5.778131679034248
6.105726872246697,6.501217717381316
6.125550660792952,7.2289623980099025
6.145374449339208,7.957652431534782
6.1651982378854635,8.684573766791281
6.185022026431718,9.407633787001355
6.204845814977975,10.125142150444145
6.224669603524229,10.835678748418415
6.244493392070486,11.538011417200472
6.264317180616741,12.231043111438279
6.284140969162996,12.9137771036476
6.303964757709252,13.585293542734485
6.323788546255507,14.244733361995277
6.3436123348017635,14.89128705635702
6.363436123348018,15.524186754878546
6.3832599118942746,16.142700566152673
6.403083700440529,16.74612851832797
6.422907488986785,17.333799634946395
6.44273127753304,17.905069830689794
6.462555066079296,18.459320405935465
6.482378854625551,18.995956983018957
6.502202643171807,19.514408771003357
6.5220264317180625,20.014128076316968
6.541850220264318,20.494589998194055
6.561674008810574,20.955292263276995
6.581497797356829,21.39575516489902
6.601321585903085,21.815521580734295
6.62114537444934,22.21415704854208
6.640969162995596,22.591249884245872
6.6607929515418505,22.946411329991715
6.680616740088107,23.279275722422085
6.700440528634362,23.5895006733925
6.720264317180618,23.87676725689963
6.740088105726873,24.140780197196495
6.759911894273129,24.381268054019976
6.779735682819384,24.59798340161154
6.799559471365639,24.790702998820283
6.819383259911895,24.959227948068058
6.83920704845815,25.103383841360774
6.859030837004407,25.223020891863627
6.8788546255506615,25.318014049840226
6.898678414096917,25.38826310199343
6.918502202643173,25.433692753457002
6.938325991189428,25.45425269186868
6.958149779735684,25.44991763312513
6.977973568281939,25.420687348573235
6.997797356828195,25.366586673542283
7.01762114537445,25.287665497266072
7.037444933920705,25.183998734394912
7.0572687224669615,25.05568627844921
7.077092511013216,24.902852937735403
7.096916299559473,24.725648354424763
7.116740088105728,24.52424690770315
7.136563876651983,24.298847602134543
7.156387665198239,24.04967394265666
7.176211453744494,23.77697379795482
7.19603524229075,23.481019254352
7.215859030837005,23.16210646283168
7.235682819383261,22.820555482397825
7.255506607929516,22.456710123705594
7.275330396475772,22.07093779781108
7.295154185022027,21.663629376043964
7.314977973568283,21.235199068480107
7.334801762114538,20.7860843303858
7.354625550660794,20.316745808462507
7.374449339207049,19.827667341933562
7.394273127753305,19.31935603775839
7.4140969162995605,18.792342444910346
7.433920704845816,18.24718086026112
7.453744493392072,17.68444980895213
7.473568281938327,17.104752756343775
7.493392070484583,16.508719128387888
7.513215859030838,15.897005745080818
7.533039647577093,15.270298811325105
7.552863436123348,14.629316666930762
7.572687224669605,13.974813581830373
7.59251101321586,13.307585008585663
7.612334801762115,12.628474895910637
7.6321585903083715,11.9383859641867
7.651982378854627,11.238294314879376
7.671806167400882,10.529270509382473
7.691629955947137,9.812510522754195
7.711453744493394,9.089382148972057
7.731277533039649,8.36149625965101
7.751101321585904,7.630819280690303
7.7709251101321595,6.899856370090205
7.790748898678416,6.171960393243563
7.81057268722467,5.451873505975387
7.830396475770926,4.746715118781709
7.850220264317182,4.067850037008435
7.870044052863436,3.4344793143863193
7.889867841409693,2.8802116051453646
7.909691629955948,2.4621079179127183
7.929515418502204,2.259290716515742
7.9493392070484585,2.32970606907765
7.969162995594715,2.6516020665478055
7.9889867841409705,3.147912080535023
8.008810572687224,3.7486187616149547
8.02863436123348,4.409526644388211
8.048458149779737,5.10532329367469
8.068281938325994,5.821350595857368
8.088105726872246,6.548690039406998
8.107929515418503,7.281577456346368
8.12775330396476,8.016052413417471
8.147577092511014,8.7492317025644
8.167400881057269,9.478903011003329
8.187224669603525,10.20328850195966
8.207048458149782,10.920902093419436
8.226872246696036,11.630460395188564
8.246696035242293,12.33082547616716
8.266519823788547,13.020967130125811
8.286343612334802,13.699937437970375
8.306167400881058,14.36685329018049
8.325991189427315,15.020884184936595
8.345814977973568,15.66124359745209
8.365638766519824,16.28718281302107
8.38546255506608,16.897986488886822
8.405286343612337,17.49296944779322
8.42511013215859,18.07147436092059
8.444933920704846,18.632870080650946
8.464757709251103,19.17655045296973
8.484581497797357,19.701933486890365
8.504405286343614,20.208460791411735
8.524229074889869,20.69559721389567
8.544052863436125,21.162830630465084
8.56387665198238,21.609671851114406
8.583700440528636,22.0356546110717
8.60352422907489,22.44033562649324
8.623348017621145,22.82329469745919
8.643171806167402,23.184134844923346
8.662995594713658,23.52248247107514
8.682819383259913,23.837987534725315
8.702643171806168,24.130323734995383
8.722466960352424,24.399188697893663
8.74229074889868,24.644304161387918
8.762114537444935,24.865416155400933
8.78193832599119,25.062295173810625
8.801762114537446,25.234736336066177
8.821585903083701,25.38255953646752
8.841409691629957,25.505609579513997
8.861233480176212,25.603756300031925
8.881057268722468,25.67689466704697
8.900881057268723,25.724944870592083
8.92070484581498,25.747852390839004
8.940528634361234,25.745588049120833
8.960352422907489,25.71814804057971
8.980176211453745,25.665553948332686
9.000000000000002,25.587852739205555
9.019823788546258,25.485116741243125
9.039647577092511,25.357443603369415
9.059471365638768,25.204956237750146
9.079295154185024,25.027802745604053
9.099118942731279,24.826156327431015
9.118942731277533,24.6002151788772
9.13876651982379,24.350202373753767
9.158590308370046,24.076365736076212
9.1784140969163,23.778977703414377
9.198237885462555,23.458335184355757
9.218061674008812,23.11475941351742
9.237885462555067,22.7485958083253
9.257709251101323,22.36021383276256
9.27753303964758,21.95000687452942
9.297356828193834,21.51839214364009
9.317180616740089,21.065810602514293
9.337004405286345,20.59272694025749
9.356828193832602,20.09962960726793
9.376651982378855,19.587030930853427
9.396475770925111,19.05546733858917
9.416299559471367,18.505499724280135
9.436123348017622,17.937714002433935
9.455947136563877,17.35272191230779
9.475770925110133,16.75116215364296
9.49559471365639,16.13370196578758
9.515418502202644,15.501039304047637
9.5352422907489,14.853905827971822
9.555066079295155,14.193071005528424
9.57488986784141,13.519347770168137
9.594713656387666,12.833600369599292
9.614537444933923,12.136755357231348
9.634361233480178,11.429817170099879
9.654185022026432,10.713890533136816
9.674008810572689,9.99021324749076
9.693832599118945,9.26020516145716
9.713656387665198,8.525543044954349
9.733480176211454,7.788278170746866
9.75330396475771,7.051026617312662
9.773127753303967,6.317287774730295
9.792951541850222,5.591997089354255
9.812775330396477,4.882521216922646
9.832599118942733,4.2005065252302245
9.852422907488988,3.565345041345819
9.872246696035244,3.0102947008547956
9.892070484581499,2.5904342007227266
9.911894273127754,2.3806577905885113
9.93171806167401,2.436942897654384
9.951541850220266,2.74297691042836
9.971365638766521,3.2277149815923156
9.991189427312776,3.8224484734975355
10.011013215859032,4.48190365462465
10.030837004405289,5.179455098057828
10.050660792951543,5.899455486649582
10.070484581497798,6.632315381305284
10.090308370044054,7.371822322148017
10.11013215859031,8.113711800722204
10.129955947136565,8.854889004917087
10.14977973568282,9.592990048376308
10.169603524229077,10.326125289274437
10.189427312775331,11.052723784920856
10.209251101321588,11.771435953085867
10.229074889867842,12.481070884663845
10.248898678414099,13.180554938249896
10.268722466960353,13.868903781961011
10.28854625550661,14.545203153263323
10.308370044052865,15.208595403434854
10.32819383259912,15.85826996140589
10.348017621145376,16.49345650364979
10.367841409691632,17.113420024291905
10.387665198237887,17.717457259944076
10.407488986784141,18.304894093478467
10.427312775330398,18.87508367364808
10.447136563876654,19.427405063587653
10.466960352422909,19.961262283472127
10.486784140969164,20.47608364899472
10.50660792951542,20.971321333013613
10.526431718061675,21.446451096084502
10.546255506607931,21.900972144887213
10.566079295154186,22.334407087280894
10.585903083700442,22.746301959915016
10.605726872246697,23.13622630969542
10.625550660792953,23.503773314456904
10.645374449339208,23.84855993127608
10.665198237885463,24.170227063226097
10.685022026431719,24.468439737207085
10.704845814977975,24.74288728691859
10.724669603524232,24.993283536167315
