Frequency (Hz),Amplitude
0.0,1.62441882097324
0.020066889632107024,1.6236196986023002
0.04013377926421405,1.6212231654703113
0.060200668896321065,1.6172317231029645
0.0802675585284281,1.6116495393296135
0.10033444816053512,1.6044824462457141
0.12040133779264213,1.5957379374265255
0.14046822742474915,1.58542516446094
0.1605351170568562,1.573554932898056
0.1806020066889632,1.560139697725569
0.20066889632107024,1.5451935585304732
0.22073578595317725,1.528732254528748
0.24080267558528426,1.510773159694785
0.2608695652173913,1.4913352782739155
0.2809364548494983,1.4704392410267026
0.3010033444816054,1.4481073026331135
0.3210702341137124,1.4243633407854437
0.34113712374581934,1.3992328576236945
0.3612040133779264,1.3727429843270453
0.3812709030100334,1.3449224898780157
0.4013377926421405,1.3158017952784462
0.42140468227424743,1.2854129948359942
0.4414715719063545,1.2537898865854278
0.4615384615384615,1.2209680144958963
0.4816053511705685,1.1869847258977806
0.5016722408026756,1.1518792486134208
0.5217391304347826,1.115692793701842
0.5418060200668896,1.078468691682649
0.5618729096989966,1.0402525728123662
0.5819397993311036,1.0010926057840699
0.6020066889632107,0.9610398146078145
0.6220735785953176,0.9201485011733812
0.6421404682274248,0.8784768122802099
0.6622073578595318,0.8360875066029687
0.6822742474916387,0.7930490021102407
0.7023411371237458,0.7494368226793786
0.7224080267558528,0.7053356219770914
0.7424749163879598,0.6608420563774533
0.7625418060200668,0.6160689293078313
0.7826086956521738,0.5711512756676892
0.802675585284281,0.526255463626515
0.8227424749163879,0.48159307616210445
0.8428093645484949,0.4374424827067842
0.862876254180602,0.39418289075032686
0.882943143812709,0.3523485079775508
0.903010033444816,0.31271372804386444
0.923076923076923,0.2764198591233594
0.9431438127090299,0.24513340640640632
0.963210702341137,0.22114193042738414
0.983277591973244,0.2071089244181213
1.0033444816053512,0.20515083276896362
1.0234113712374582,0.21560771785219646
1.0434782608695652,0.2368068022173797
1.0635451505016722,0.26612469039362247
1.0836120401337792,0.3011045452437041
1.1036789297658862,0.3398889415312302
1.1237458193979932,0.3811904851822524
1.1438127090301002,0.42413626289829603
1.1638795986622072,0.46812818009757784
1.1839464882943145,0.5127457024825068
1.2040133779264215,0.557683351370621
1.2240802675585283,0.6027113770316214
1.2441471571906353,0.6476509335020644
1.2642140468227423,0.6923581886847623
1.2842809364548495,0.736713967746943
1.3043478260869565,0.7806168713242262
1.3244147157190636,0.8239786149143148
1.3444816053511706,0.8667208153335372
1.3645484949832773,0.9087727379455516
1.3846153846153846,0.9500696935579188
1.4046822742474916,0.9905518822824988
1.4247491638795986,1.0301635499146191
1.4448160535117056,1.068852366129742
1.4648829431438126,1.106568962313994
1.4849498327759196,1.1432665857441693
1.5050167224080266,1.1789008395556382
1.5250836120401337,1.2134294866288806
1.5451505016722407,1.2468123015477146
1.5652173913043477,1.2790109590100518
1.5852842809364547,1.309988950076843
1.605351170568562,1.3397115198058516
1.625418060200669,1.3681456213878715
1.6454849498327757,1.3952598830575327
1.6655518394648827,1.4210245849070564
1.6856187290969897,1.4454116433729667
1.705685618729097,1.4683946016504683
1.725752508361204,1.4899486246595997
1.745819397993311,1.5100504974712992
1.765886287625418,1.5286786263215055
1.7859531772575248,1.5458130415130877
1.806020066889632,1.5614354016407812
1.826086956521739,1.5755289986813195
1.846153846153846,1.588078763577116
1.866220735785953,1.5990712720106715
1.8862876254180598,1.6084947501237827
1.9063545150501673,1.6163390799816795
1.926421404682274,1.6225958046212718
1.9464882943143813,1.6272581325552455
1.966555183946488,1.6303209416320346
1.9866220735785953,1.631780782176334
2.0066889632107023,1.6316358793569583
2.026755852842809,1.6298861347493223
2.0468227424749164,1.626533127079052
2.0668896321070234,1.6215801121523
2.0869565217391304,1.615032021997321
2.1070234113712374,1.606895463261963
2.1270903010033444,1.5971787149329932
2.1471571906354514,1.5858917254670715
2.1672240802675584,1.5730461094497417
2.1872909698996654,1.5586551439298932
2.2073578595317724,1.5427337646133856
2.2274247491638794,1.5252985621428838
2.2474916387959865,1.5063677787431247
2.267558528428094,1.4859613055749008
2.2876254180602005,1.4641006812195028
2.3076923076923075,1.4408090918134162
2.3277591973244145,1.416111373475854
2.3478260869565215,1.3900340178269148
2.367892976588629,1.3626051815919886
2.3879598662207355,1.333854701542093
2.408026755852843,1.303814116348559
2.4280936454849495,1.2725166973593998
2.4481605351170566,1.2399974908690543
2.468227424749164,1.2062933752018195
2.4882943143812706,1.1714431369318512
2.508361204013378,1.1354875719175852
2.5284280936454846,1.098469618678272
2.548494983277592,1.0604345341923695
2.568561872909699,1.0214301257577727
2.5886287625418056,0.9815070575795881
2.608695652173913,0.9407192579346669
2.6287625418060196,0.8991244631668566
2.648829431438127,0.8567849500501139
2.668896321070234,0.813768530840184
2.688963210702341,0.7701499198331747
2.709030100334448,0.7260126333374224
2.7290969899665547,0.6814516680369052
2.749163879598662,0.6365773349128706
2.769230769230769,0.5915208396580278
2.789297658862876,0.5464425511496374
2.809364548494983,0.5015444802817542
2.82943143812709,0.4570894534962157
2.849498327759197,0.4134310270528436
2.869565217391304,0.3710605539691352
2.8896321070234112,0.3306806917318719
2.9096989966555182,0.29331529358357716
2.9297658862876252,0.2604528276741262
2.9498327759197323,0.2341625580199778
2.9698996655518393,0.21697786915588982
2.9899665551839463,0.21121760004666396
3.0100334448160533,0.21782282683853338
3.0301003344481603,0.2357418510872432
3.0501672240802673,0.2626159741296085
3.0702341137123748,0.29593328314660483
3.0903010033444813,0.33366507866547557
3.1103678929765888,0.3743585063039784
3.1304347826086953,0.41701500033442257
3.1505016722408024,0.460948508381188
3.1705685618729094,0.5056782954363689
3.1906354515050164,0.5508575487695879
3.210702341137124,0.5962277121303544
3.2307692307692304,0.6415894525437948
3.250836120401338,0.6867840343041979
3.270903010033445,0.7316811825029409
3.2909698996655514,0.7761710317503712
3.311036789297659,0.8201586860970617
3.3311036789297654,0.8635604776203973
3.351170568561873,0.9063013503217504
3.3712374581939795,0.9483130029543289
3.391304347826087,0.9895325525276768
3.411371237458194,1.0299015608449065
3.4314381270903005,1.0693653180024454
3.451505016722408,1.1078723103324661
3.471571906354515,1.1453738224498922
3.491638795986622,1.181823637960239
3.511705685618729,1.217177813534398
3.531772575250836,1.25139450807024
3.551839464882943,1.2844338535720534
3.5719063545150496,1.3162578578608024
3.591973244147157,1.3468303317258667
3.612040133779264,1.3761168349407233
3.632107023411371,1.4040846368931692
3.652173913043478,1.430702688563674
3.672240802675585,1.4559416033203827
3.692307692307692,1.479773644553326
3.712374581939799,1.5021727185917844
3.732441471571906,1.5231143716721225
3.752508361204013,1.5425757899731387
3.7725752508361197,1.5605358019310005
3.7926421404682276,1.5769748821984688
3.8127090301003346,1.5918751567346259
3.832775919732441,1.605220408607668
3.852842809364548,1.616996084171334
3.872909698996655,1.6271892993388848
3.8929765886287626,1.6357888457302623
3.9130434782608696,1.6427851965115354
3.933110367892976,1.6481705117819165
3.953177257525083,1.6519386433948493
3.9732441471571907,1.654085139126959
3.9933110367892977,1.654607246132766
4.013377926421405,1.6535039136454228
4.033444816053511,1.6507757949046669
4.053511705685618,1.6464252483135022
4.073578595317726,1.640456337845665
4.093645484949833,1.6328748327470657
4.113712374581939,1.6236882065972267
4.133779264214047,1.6129056358215057
4.153846153846153,1.6005379977730696
4.173913043478261,1.5865978685358577
4.193979933110368,1.571099520637592
4.214046822742475,1.5540589209067748
4.234113712374581,1.5354937287617452
4.254180602006689,1.5154232952858033
4.274247491638796,1.493868663523182
4.294314381270903,1.4708525705314022
4.314381270903009,1.4463994518509127
4.334448160535117,1.4205354492114997
4.354515050167224,1.393288422496139
4.374581939799331,1.3646879672405636
4.394648829431437,1.3347654392791393
4.414715719063545,1.3035539885796708
4.434782608695651,1.271088604876086
4.454849498327759,1.237406178456228
4.474916387959866,1.2025455804598129
4.494983277591973,1.1665477683841783
4.5150501672240795,1.129455924319065
4.535117056856188,1.091315635934341
4.555183946488294,1.0521751337160845
4.575250836120401,1.0120856028154122
4.595317725752508,0.9711015947872367
4.615384615384615,0.9292815744327159
4.635451505016722,0.8866886514350155
4.655518394648829,0.843391567860837
4.6755852842809364,0.7994660446499758
4.695652173913043,0.7549966389810702
4.71571906354515,0.7100793397488655
4.735785953177258,0.6648252465863332
4.7558528428093645,0.6193658659489903
4.775919732441471,0.5738608606786115
4.795986622073578,0.5285095807563471
4.816053511705686,0.48356849758211445
4.8361204013377925,0.4393779192135315
4.856187290969899,0.3964032070367838
4.8762541806020065,0.35529787753509756
4.896321070234113,0.3169964401360823
4.916387959866221,0.28283581316474926
4.936454849498328,0.2546642088426693
4.956521739130435,0.23479347145243507
4.976588628762541,0.2255323199249096
4.996655518394649,0.2282302343787998
5.016722408026756,0.24249402441418136
5.036789297658863,0.2664368434894861
5.056856187290969,0.29766379100813484
5.076923076923077,0.33404496332667044
5.096989966555184,0.37396696360443576
5.117056856187291,0.4162860910239082
5.137123745819398,0.4602046881315706
5.157190635451505,0.5051609714665799
5.177257525083611,0.550750156984697
5.197324414715719,0.596672056297192
5.217391304347826,0.6426970411643105
5.237458193979933,0.6886439391368117
5.257525083612039,0.7343655295295292
5.277591973244148,0.7797388843687514
5.297658862876254,0.8246588292023129
5.317725752508361,0.869033442066699
5.337792642140468,0.9127809056479681
5.357859531772575,0.955827272887658
5.377926421404682,0.9981048593126796
5.397993311036789,1.0395510721323724
5.418060200668896,1.0801075482440812
5.438127090301003,1.1197195137536897
5.458193979933109,1.1583353043910047
5.478260869565218,1.1959060041791765
5.498327759197324,1.2323851719646066
5.518394648829431,1.267728633871297
5.538461538461538,1.3018943256599034
5.558528428093646,1.3348421731618678
5.578595317725752,1.3665340019610157
5.598662207357859,1.3969334696698297
5.618729096989966,1.4260060157396375
5.638795986622073,1.4537188249208275
5.65886287625418,1.4800408013676074
5.678929765886288,1.5049425510432728
5.698996655518394,1.5283963705841312
5.719063545150501,1.5503762411651847
5.739130434782608,1.5708578262074515
5.759197324414716,1.5898184719979416
5.7792642140468224,1.607237210474642
5.799331103678929,1.623094763571785
5.8193979933110365,1.6373735486351575
5.839464882943144,1.6500576845084856
5.8595317725752505,1.6611329979665803
5.879598662207358,1.6705870302316541
5.8996655518394645,1.6784090433596779
5.919732441471571,1.6845900263260836
5.9397993311036785,1.6891227006761094
5.959866220735786,1.6920015256365792
5.9799331103678925,1.6932227026136923
5.999999999999999,1.6927841790267433
6.020066889632107,1.690685651451516
6.040133779264214,1.6869285680698978
6.060200668896321,1.681516130445263
6.080267558528428,1.6744532946666486
6.100334448160535,1.6657467719298473
6.120401337792642,1.6554050286508353
6.1404682274247495,1.6434382862377164
6.160535117056856,1.629858520682389
6.180602006688963,1.6146794621742007
6.200668896321069,1.597916594986263
6.2207357859531776,1.5795871579434304
6.240802675585284,1.5597101458515847
6.260869565217391,1.538306312354476
6.280936454849498,1.5153981747915548
6.301003344481605,1.4910100217638684
6.321070234113712,1.465167924282921
6.341137123745819,1.437899751590094
6.361204013377926,1.4092351930053988
6.381270903010033,1.3792057875128334
6.40133779264214,1.3478449632411107
6.421404682274248,1.315188089587486
6.441471571906354,1.2812725455074865
6.461538461538461,1.2461378085217176
6.481605351170568,1.2098255703669527
6.501672240802676,1.1723798870777855
6.521739130434782,1.1338473738201778
6.54180602006689,1.0942774582908419
6.561872909698996,1.053722711359403
6.581939799331103,1.0122392804778542
6.60200668896321,0.9698874611373198
6.622073578595318,0.9267324557230128
6.642140468227424,0.8828453896740623
6.662207357859531,0.8383046852851337
6.682274247491639,0.7931979391451597
6.702341137123746,0.747624518644194
6.722408026755852,0.7016991999453333
6.742474916387959,0.6555573365006282
6.762541806020066,0.6093623091338624
6.782608695652174,0.563316421417733
6.80267558528428,0.5176770484567245
6.822742474916388,0.47278082051851084
6.842809364548494,0.42907996610793
6.862876254180601,0.38719634204689524
6.882943143812709,0.3479985204164743
6.903010033444816,0.3127000867163728
6.9230769230769225,0.2829490791444554
6.94314381270903,0.2608089444951179
6.963210702341137,0.2484430686222598
6.983277591973244,0.24739550322981382
7.0033444816053505,0.25783019723631506
7.023411371237458,0.27844183959642077
7.0434782608695645,0.3071352439722553
7.063545150501672,0.3417999436419921
7.083612040133779,0.38070550653668234
7.103678929765886,0.42256287713519164
7.123745819397993,0.4664461984526983
7.143812709030099,0.5116930433344727
7.1638795986622075,0.5578229850207758
7.183946488294314,0.6044796609228615
7.204013377926421,0.6513915913731716
7.224080267558528,0.6983460812068679
7.2441471571906355,0.7451718120441605
7.264214046822742,0.7917271230116713
7.2842809364548495,0.837892018552405
7.304347826086956,0.8835626396115565
7.324414715719063,0.928647383335497
7.34448160535117,0.9730641415963104
7.364548494983278,1.0167383099801153
7.384615384615384,1.0596013350443945
7.404682274247491,1.1015896428946226
7.424749163879598,1.1426438414907736
7.444816053511706,1.1827081219102227
7.464882943143812,1.2217298059061352
7.48494983277592,1.259659002200419
7.505016722408026,1.296448344394584
7.525083612040134,1.33205279069647
7.545150501672239,1.3664294708443263
7.565217391304348,1.3995375693247853
7.585284280936455,1.4313382366727485
7.605351170568561,1.4617945226109548
7.625418060200669,1.4908713262427582
7.645484949832775,1.5185353595978077
7.665551839464882,1.5447551216470867
7.685618729096991,1.5695008805244584
7.705685618729096,1.5927446621660943
7.725752508361204,1.6144602439454965
7.74581939799331,1.6346231521660612
7.765886287625418,1.6532106624962026
7.785953177257525,1.6702018026077823
7.806020066889631,1.6855773564186036
7.826086956521739,1.6993198694518576
7.846153846153847,1.7114136549163022
7.866220735785952,1.72184480018513
7.88628762541806,1.7306011734127331
7.906354515050166,1.7376724300799014
7.926421404682274,1.7430500193015497
7.946488294314381,1.7467271897686503
7.966555183946488,1.7486989952294114
7.986622073578595,1.7489622994446206
8.006688963210701,1.747515780580175
8.02675585284281,1.7443599350265309
8.046822742474916,1.7394970806613186
8.066889632107022,1.7329313595985028
8.08695652173913,1.724668740496119
8.107023411371236,1.7147170205255913
8.127090301003344,1.7030858271403442
8.147157190635452,1.6897866198209206
8.167224080267557,1.674832692019487
8.187290969899665,1.6582391735808315
8.207357859531772,1.6400230339815454
8.227424749163879,1.620203086807242
8.247491638795987,1.598799995983254
8.267558528428093,1.5758362843920037
8.2876254180602,1.5513363456565552
8.307692307692307,1.52532646005309
8.327759197324415,1.4978348157463
8.347826086956522,1.4688915368353272
8.367892976588628,1.438528720073862
8.387959866220736,1.4067804826126724
8.408026755852843,1.3736830237423379
8.42809364548495,1.339274704437917
8.448160535117056,1.3035961495946156
8.468227424749163,1.2666903792896382
8.488294314381271,1.2286029773465141
8.508361204013378,1.189382308106522
8.528428093645484,1.149079795904519
8.548494983277592,1.107750286706831
8.568561872909697,1.065452518287679
8.588628762541806,1.0222497350756155
8.608695652173914,0.9782104977091047
8.628762541806019,0.9334097573956722
8.648829431438127,0.8879302944262577
8.668896321070234,0.8418646633722763
8.68896321070234,0.7953178519155799
8.709030100334449,0.7484109573477302
8.729096989966555,0.7012863322188376
8.749163879598662,0.6541148753392151
8.769230769230768,0.6071064854322671
8.789297658862875,0.5605252027581757
8.809364548494983,0.5147112838137892
8.82943143812709,0.4701133516900497
8.849498327759196,0.4273344870944182
8.869565217391303,0.38719532730191797
8.889632107023411,0.3508110217153027
8.909698996655518,0.31965850657863387
8.929765886287624,0.295564728031286
8.949832775919733,0.2804886597851763
8.96989966555184,0.2760035964337361
8.989966555183946,0.2826596135339695
9.010033444816054,0.2997168537680442
9.030100334448159,0.3255077066289415
9.050167224080267,0.358082392465477
9.070234113712376,0.39567677018664893
9.09030100334448,0.4368855144712196
9.110367892976589,0.4806536219515364
9.130434782608695,0.5262050675822234
9.150501672240802,0.5729680261008049
9.17056856187291,0.6205151751607548
9.190635451505017,0.66852053859901
9.210702341137123,0.7167294929789703
9.23076923076923,0.7649381843347448
9.250836120401337,0.8129793948911267
9.270903010033445,0.8607127682668564
9.290969899665551,0.9080179779196854
9.311036789297658,0.9547898957213615
9.331103678929765,1.000935133275704
9.351170568561873,1.0463695364127705
9.37123745819398,1.0910163497350103
9.391304347826086,1.1348048580668848
9.411371237458194,1.1776693714779107
9.4314381270903,1.2195484607239275
9.451505016722408,1.2603843772351215
9.471571906354516,1.3001226105230752
9.49163879598662,1.3387115489054187
9.511705685618729,1.3761022186026464
9.531772575250837,1.412248082769054
9.551839464882942,1.4471048866938014
9.57190635451505,1.48063053880012
9.591973244147155,1.5127850195565329
9.612040133779264,1.5435303122527633
9.632107023411372,1.5728303509654713
9.652173913043477,1.600650982072527
9.672240802675585,1.6269599364586613
9.692307692307692,1.651726810155876
9.712374581939798,1.6749230516246612
9.732441471571907,1.6965219542418228
9.752508361204013,1.7164986528421988
9.77257525083612,1.734830123383658
9.792642140468226,1.7514951849811828
9.812709030100335,1.7664745036972118
9.832775919732441,1.7797505975896477
9.852842809364548,1.791307842612048
9.872909698996656,1.8011324790372378
9.89297658862876,1.8092126181396095
9.91304347826087,1.815538248925528
9.933110367892976,1.8201012447477773
9.953177257525082,1.8228953696809698
9.97324414715719,1.8239162845714731
9.993311036789297,1.8231615527093703
10.013377926421404,1.8206306451021683
10.033444816053512,1.8163249453616244
10.053511705685617,1.8102477542471542
10.073578595317725,1.8024042939428686
10.093645484949834,1.7928017121814248
10.113712374581938,1.7814490863681993
10.133779264214047,1.7683574279044552
10.153846153846153,1.753539686960782
10.17391304347826,1.7370107580138228
10.193979933110368,1.718787486532509
10.214046822742475,1.6988886772887073
10.234113712374581,1.6773351048745295
10.254180602006688,1.6541495271410456
10.274247491638796,1.629356702436574
10.294314381270903,1.6029834117267947
10.31438127090301,1.5750584869354938
10.334448160535118,1.5456128471689627
10.354515050167223,1.514679544900294
10.37458193979933,1.4822938247200326
10.394648829431437,1.4484931979443672
10.414715719063544,1.4133175372634144
10.434782608695652,1.376809196780907
10.454849498327757,1.3390131643410688
10.474916387959865,1.2999772550957434
10.494983277591974,1.259752358028947
10.515050167224079,1.2183927509009953
10.535117056856187,1.1759565041952516
10.555183946488295,1.1325060017175046
10.5752508361204,1.0881086153442783
10.595317725752508,1.0428375852691196
10.615384615384615,0.9967731767761348
10.635451505016722,0.9500042127997437
10.65551839464883,0.9026301223923427
10.675585284280936,0.854763704853024
10.695652173913043,0.8065348968329811
10.71571906354515,0.758095958681799
10.735785953177256,0.7096286856329321
10.755852842809364,0.6613545236749698
