Time (s),Filtered Signal
0.0,0.014687472794368132
0.033370165745856356,-0.5985424990029401
0.06674033149171271,-1.0480221036152684
0.10011049723756907,-1.2138766485742256
0.13348066298342542,-1.0509566623208833
0.16685082872928178,-0.5961391011038849
0.20022099447513814,0.04827954771548619
0.2335911602209945,0.7476830421671788
0.26696132596685085,1.3724203300660178
0.30033149171270723,1.8270955697785836
0.33370165745856356,2.064369376305246
0.3670718232044199,2.0826710024106485
0.4004419889502763,1.9131907476074244
0.43381215469613266,1.6040841726864863
0.467182320441989,1.2082950012480773
0.5005524861878453,0.7772132870131337
0.5339226519337017,0.3582176338939978
0.5672928176795581,-0.0076172382494339615
0.6006629834254145,-0.29004376582329017
0.6340331491712707,-0.47567216769248977
0.6674033149171271,-0.5721749920834466
0.7007734806629835,-0.6070136489164668
0.7341436464088398,-0.6192179990402366
0.7675138121546962,-0.646139095217079
0.8008839779005525,-0.7098329428132927
0.8342541436464089,-0.808460528708481
0.8676243093922653,-0.9164970737836879
0.9009944751381216,-0.9943026972055506
0.934364640883978,-1.0039577081287936
0.9677348066298344,-0.9255699002154557
1.0011049723756906,-0.7676084503805098
1.0344751381215471,-0.5666536907937884
1.0678453038674034,-0.3757939838489907
1.1012154696132597,-0.24538671366872117
1.1345856353591162,-0.20326055959251976
1.1679558011049724,-0.2422200354321467
1.201325966850829,-0.3204042871206488
1.2346961325966852,-0.3753204015093387
1.2680662983425415,-0.34690277187454904
1.301436464088398,-0.20090982435248772
1.3348066298342542,0.05678097457551159
1.3681767955801105,0.38115970281553657
1.401546961325967,0.7042615495199506
1.4349171270718233,0.9597818224298029
1.4682872928176796,1.1055272412117734
1.501657458563536,1.134199777774356
1.5350276243093923,1.0687373268376639
1.5683977900552488,0.9459593697271923
1.601767955801105,0.7976718412851818
1.6351381215469614,0.6388513585005147
1.6685082872928179,0.46793529210534407
1.7018784530386741,0.2772581210305124
1.7352486187845306,0.0662317528850598
1.768618784530387,-0.15108038689753217
1.8019889502762432,-0.3484961513447328
1.8353591160220997,-0.49864612248740053
1.868729281767956,-0.5856939934320281
1.9020994475138122,-0.6123728088587886
1.9354696132596687,-0.5973282981572586
1.968839779005525,-0.5643863168387102
2.0022099447513813,-0.5298880442750735
2.0355801104972375,-0.4951725425116185
2.0689502762430942,-0.4482353543133409
2.1023204419889505,-0.37337936260032173
2.135690607734807,-0.2632554217362242
2.169060773480663,-0.1264645534194418
2.2024309392265193,0.01360400619150942
2.235801104972376,0.1282980604994752
2.2691712707182323,0.19680188707131116
2.3025414364640886,0.21615468077211225
2.335911602209945,0.20296997797600563
2.369281767955801,0.18558160059271986
2.402651933701658,0.18995193767894208
2.436022099447514,0.22589612528766242
2.4693922651933704,0.28050037632741964
2.5027624309392267,0.32268877113586975
2.536132596685083,0.31777941019015576
2.5695027624309392,0.24579037509992904
2.602872928176796,0.11471855500506412
2.636243093922652,-0.038413338554996374
2.6696132596685085,-0.16060328948715655
2.7029834254143648,-0.20507918519817667
2.736353591160221,-0.15280923088947468
2.7697237569060777,-0.0230423046793209
2.803093922651934,0.13274136397311773
2.8364640883977903,0.25141876793369006
2.8698342541436466,0.2843360671678826
2.903204419889503,0.21717356031111085
2.936574585635359,0.07467431170482423
2.969944751381216,-0.09154684006281766
3.003314917127072,-0.22604753969997074
3.0366850828729284,-0.2925747943221607
3.0700552486187846,-0.2866474273087467
3.103425414364641,-0.23272954636481463
3.1367955801104976,-0.16864289030773638
3.170165745856354,-0.1258085826233099
3.20353591160221,-0.11520107118806107
3.2369060773480665,-0.12509449967675926
3.2702762430939227,-0.1301180950950599
3.3036464088397794,-0.10555610976825575
3.3370165745856357,-0.039172402069460086
3.370386740331492,0.06445470039313063
3.4037569060773483,0.18722652752461288
3.4371270718232045,0.3047919288793098
3.4704972375690613,0.39351399869588005
3.5038674033149175,0.4350394079927851
3.537237569060774,0.41902468796133974
3.57060773480663,0.3453685304151944
3.6039779005524863,0.22579218986907568
3.6373480662983426,0.08258676491151934
3.6707182320441993,-0.0576921506553066
3.7040883977900556,-0.17488738799307513
3.737458563535912,-0.2654258330744677
3.770828729281768,-0.34521238464545456
3.8041988950276244,-0.4410167098432681
3.837569060773481,-0.5725779694502913
3.8709392265193374,-0.7341409214539141
3.9043093922651937,-0.8862863584381984
3.93767955801105,-0.9648020712943465
3.9710497237569062,-0.9049027713859077
4.0044198895027625,-0.6709607466727696
4.037790055248619,-0.2784237827915929
4.071160220994475,0.20260982528345256
4.104530386740332,0.6652363054490416
4.1379005524861885,0.9994069399344279
4.171270718232044,1.1292930927129807
4.204640883977901,1.040225486951583
4.238011049723757,0.7844016325522388
4.271381215469614,0.46236097254845493
4.30475138121547,0.18680334167356846
4.338121546961326,0.04273919593177237
4.371491712707183,0.059684224781493156
4.404861878453039,0.20645126586393692
4.438232044198895,0.40916775140319805
4.471602209944752,0.5831128608370998
4.504972375690608,0.6637091986787317
4.538342541436465,0.6240103562497452
4.5717127071823205,0.47396941738442017
4.605082872928177,0.24617628015942244
4.638453038674034,-0.02151564748504091
4.67182320441989,-0.29682582922784045
4.7051933701657465,-0.5538917102936034
4.738563535911602,-0.7680261449191791
4.771933701657459,-0.9120972375338006
4.805303867403316,-0.9602702772806188
4.8386740331491715,-0.8986863562260228
4.872044198895028,-0.7365774298279524
4.905414364640884,-0.509539805634219
4.938784530386741,-0.2706154734016779
4.972154696132597,-0.0721005579061095
5.005524861878453,0.05306802918076987
5.03889502762431,0.10084593494111695
5.072265193370166,0.09219027415914717
5.105635359116023,0.05906298619424458
5.1390055248618784,0.028913314088855488
5.172375690607735,0.01591552830717387
5.205745856353592,0.021969983714761568
5.239116022099448,0.04403715542168679
5.272486187845304,0.08098886367072011
5.30585635359116,0.13467072335985328
5.339226519337017,0.20477793642397674
5.372596685082874,0.2819443562317353
5.4059668508287295,0.3450463261770035
5.439337016574586,0.36629516980399085
5.472707182320442,0.32287427077379127
5.506077348066299,0.20956327667919974
5.5394475138121555,0.04543776373418764
5.572817679558011,-0.12986796605816123
5.606187845303868,-0.2698450316689728
5.639558011049724,-0.33912920828336285
5.672928176795581,-0.3276297307686946
5.706298342541437,-0.2539232599755684
5.739668508287293,-0.15597038587135809
5.77303867403315,-0.07331018902647173
5.806408839779006,-0.02911200224802388
5.839779005524862,-0.020593651899561263
5.873149171270718,-0.02221359277502687
5.906519337016575,0.00021722039674533384
5.939889502762432,0.07158141153273567
5.9732596685082875,0.19430863922559619
6.006629834254144,0.34595189339341925
6.04,0.48795299192611896
6.073370165745857,0.5808052825412376
6.1067403314917135,0.598379690406293
6.140110497237569,0.5355180821734986
6.173480662983426,0.40699424931446726
6.206850828729282,0.24015922079843915
6.240220994475139,0.06576553814405463
6.273591160220995,-0.08917366430832935
6.306961325966851,-0.20509248100634006
6.340331491712708,-0.2710953168495723
6.373701657458564,-0.28538454655559164
6.40707182320442,-0.2556089547317761
6.440441988950277,-0.19834868696831665
6.473812154696133,-0.1363830789132046
6.50718232044199,-0.09332236045969819
6.5405524861878455,-0.08692054838077691
6.573922651933702,-0.12358859050418475
6.607292817679559,-0.19639645236454709
6.640662983425415,-0.2873448802495587
6.674033149171271,-0.3728707839625631
6.707403314917127,-0.4304464003699783
6.740773480662984,-0.44416079381247936
6.774143646408841,-0.40801309914239686
6.8075138121546965,-0.32661646910868875
6.840883977900553,-0.21360912133057583
6.874254143646409,-0.08827772466954308
6.907624309392266,0.028963226307905043
6.9409944751381225,0.12130164138047386
6.974364640883978,0.17924990405088725
7.007734806629835,0.2022558195941807
7.041104972375691,0.19778664740509724
7.074475138121548,0.17841375629515258
7.107845303867403,0.1580347611310314
7.14121546961326,0.14830295669703633
7.174585635359117,0.1558129378595434
7.207955801104973,0.180193742812934
7.241325966850829,0.21336492298028806
7.274696132596685,0.24061078980166492
7.308066298342542,0.2441820781524163
7.341436464088399,0.20933848283944947
7.3748066298342545,0.13125795934592596
7.408176795580111,0.019918097931740267
7.441546961325967,-0.1000479554867276
7.474917127071824,-0.19588412724302087
7.5082872928176805,-0.23809747797064487
7.541657458563536,-0.21235979972645574
7.575027624309393,-0.12647301819308632
7.608397790055249,-0.008472970571987665
7.641767955801106,0.10422984527912331
7.675138121546962,0.18032813354612762
7.708508287292818,0.20760588182976458
7.741878453038675,0.19697266670817054
7.775248618784531,0.175190039773392
7.808618784530387,0.1696250547456636
7.841988950276244,0.1926718792801878
7.8753591160221,0.23397397402677522
7.908729281767957,0.26477649802342224
7.9420994475138125,0.25249362226567307
7.975469613259669,0.17816398223395888
8.008839779005525,0.04783459517956531
8.042209944751383,-0.10800179584595096
8.075580110497238,-0.2466606812462674
8.108950276243094,-0.33112721533995193
8.14232044198895,-0.34497249650517375
8.175690607734808,-0.2977027809615616
8.209060773480664,-0.21887395204392965
8.24243093922652,-0.14452873030597585
8.275801104972377,-0.10251301715845428
8.309171270718233,-0.1029464708483692
8.342541436464089,-0.13716725894626397
8.375911602209946,-0.184499919335559
8.409281767955802,-0.223003097639886
8.442651933701658,-0.23913725332607613
8.476022099447514,-0.23231365348249425
8.509392265193371,-0.21291120555364496
8.542762430939227,-0.1953538505308829
8.576132596685083,-0.18990337307038888
8.60950276243094,-0.1970688209209216
8.642872928176796,-0.20696374710114068
8.676243093922652,-0.20345028550805225
8.709613259668508,-0.17080011092459593
8.742983425414366,-0.09984318000847443
8.776353591160222,0.008715136768594313
8.809723756906077,0.14458965636245907
8.843093922651935,0.291098848468106
8.87646408839779,0.42961959234864244
8.909834254143647,0.5435902635994719
8.943204419889504,0.620908003780333
8.97657458563536,0.6545259267251365
9.009944751381216,0.6419697730319822
9.043314917127072,0.5848800958215414
9.07668508287293,0.4892932077759288
9.110055248618785,0.3664132859198249
9.143425414364641,0.23271928217413054
9.176795580110499,0.10806490697275985
9.210165745856354,0.011259415467776842
9.24353591160221,-0.04586698157340613
9.276906077348068,-0.06354922404998146
9.310276243093924,-0.05566715685917434
9.34364640883978,-0.04632503200119674
9.377016574585635,-0.062090070184870456
9.410386740331493,-0.12257625529229889
9.443756906077349,-0.23288583677446337
9.477127071823205,-0.3806819821079365
9.510497237569062,-0.538859606063924
9.543867403314918,-0.6728432489177941
9.577237569060774,-0.7502238476057681
9.610607734806631,-0.7499772309566609
9.643977900552487,-0.6687100636660983
9.677348066298343,-0.5220500233612599
9.710718232044199,-0.34042237792765445
9.744088397790057,-0.16005043221731738
9.777458563535912,-0.011783274151259078
9.810828729281768,0.08843095774409944
9.844198895027626,0.1437424295913312
9.877569060773482,0.17335824012430487
9.910939226519337,0.2032010594492962
9.944309392265193,0.25390126817450553
9.97767955801105,0.33104667891574535
10.011049723756907,0.4218668147713348
10.044419889502763,0.4999920378307605
10.07779005524862,0.5365753698305792
10.111160220994476,0.513219495117605
10.144530386740332,0.4310433513440062
10.17790055248619,0.31152038026514917
10.211270718232045,0.18813496291531773
10.244640883977901,0.09211384669046989
10.278011049723757,0.03858688383528564
10.311381215469615,0.019879635874637393
10.34475138121547,0.009743996151158433
10.378121546961326,-0.022750419544337985
10.411491712707184,-0.09591640660083418
10.44486187845304,-0.20331553394746252
10.478232044198895,-0.3135226635133144
10.511602209944753,-0.3829957235981049
10.544972375690609,-0.3765770644974848
10.578342541436465,-0.28577621548144994
10.61171270718232,-0.13546083627936484
10.645082872928178,0.02501126061955296
10.678453038674034,0.1424916375840236
10.71182320441989,0.18285514795608496
10.745193370165747,0.14506802064245006
10.778563535911603,0.05992861001468502
10.811933701657459,-0.02563550717164376
10.845303867403315,-0.07095120307525069
10.878674033149172,-0.05993841906407163
10.912044198895028,-0.006917006776118674
10.945414364640884,0.052410183012953485
10.978784530386742,0.07999187703246383
11.012154696132598,0.05503916565632137
11.045524861878453,-0.015277737042237534
11.078895027624311,-0.09906733242801553
11.112265193370167,-0.15512182816037481
11.145635359116023,-0.15289945241746422
11.179005524861878,-0.08743435920100419
11.212375690607736,0.017828528488409844
11.245745856353592,0.1213091604170263
11.279116022099448,0.1814449552243364
11.312486187845305,0.17400674825388404
11.345856353591161,0.10075289631535954
11.379226519337017,-0.013813206743395593
11.412596685082875,-0.13497322414906193
11.44596685082873,-0.23281924093550888
11.479337016574586,-0.29240109937175734
11.512707182320442,-0.3147342215916461
11.5460773480663,-0.3094767368991036
11.579447513812156,-0.2844474004706252
11.612817679558011,-0.23855983791198004
11.646187845303869,-0.16250764298203288
11.679558011049725,-0.04688758622074266
11.71292817679558,0.10706914959923744
11.746298342541436,0.280854823294637
11.779668508287294,0.4408982502682505
11.81303867403315,0.5496012979681092
11.846408839779006,0.5801190743593115
11.879779005524863,0.5274070891296387
11.91314917127072,0.409800043116003
11.946519337016575,0.26037896554780876
11.979889502762433,0.11280499668100968
12.013259668508288,-0.010960161729453967
12.046629834254144,-0.10510659926710045
12.08,-0.17541226206473137
12.113370165745858,-0.22963629568270258
12.146740331491714,-0.26937588058120737
12.18011049723757,-0.28840389798177996
12.213480662983427,-0.2780610146379358
12.246850828729283,-0.23569546560003105
12.280220994475139,-0.17023230070661835
12.313591160220996,-0.1007948974853875
12.346961325966852,-0.04865566804737002
12.380331491712708,-0.026936276777954363
12.413701657458564,-0.0339163889702027
12.447071823204421,-0.053779162355351
12.480441988950277,-0.06445037492479314
12.513812154696133,-0.048369381867571816
12.54718232044199,-0.0006699316690150324
12.580552486187846,0.06910341059329869
12.613922651933702,0.1421055173237715
12.64729281767956,0.19911647014731354
12.680662983425416,0.22871827554736282
12.714033149171271,0.23096926377524957
12.747403314917127,0.21532000247663918
12.780773480662985,0.19432453194960544
12.81414364640884,0.17650515603479375
12.847513812154697,0.16183900839224605
12.880883977900554,0.14188670594025515
12.91425414364641,0.1043613405487632
12.947624309392266,0.03996159142453852
12.980994475138122,-0.051626193780963336
13.01436464088398,-0.15923583783729978
13.047734806629835,-0.26245976734540144
13.081104972375691,-0.3379788170882176
13.114475138121549,-0.367751397618613
13.147845303867404,-0.3460071475069587
13.18121546961326,-0.28223227849785615
13.214585635359118,-0.19867755555378638
13.247955801104974,-0.12300451317486207
13.28132596685083,-0.07870892404197259
13.314696132596685,-0.07696951425894934
13.348066298342543,-0.11301385427417754
13.381436464088399,-0.16822283847649092
13.414806629834255,-0.21693652260156623
13.448176795580112,-0.23529974616333443
13.481546961325968,-0.2090370659390931
13.514917127071824,-0.13767499081089513
13.548287292817681,-0.033983723097633284
13.581657458563537,0.08112241342004933
13.615027624309393,0.1865441337147918
13.648397790055249,0.26895719368159204
13.681767955801106,0.32745972838118664
13.715138121546962,0.37241892553596595
13.748508287292818,0.4183033666768789
13.781878453038676,0.473312686813573
13.815248618784532,0.5308916276310428
13.848618784530387,0.5682027536528085
13.881988950276245,0.5537982972345322
13.9153591160221,0.4621400788063478
13.948729281767957,0.28856875212369343
13.982099447513813,0.057156448758556036
14.01546961325967,-0.18342362357097172
14.048839779005526,-0.3753993095504174
14.082209944751382,-0.4726142521752127
14.11558011049724,-0.4575583907013359
14.148950276243095,-0.3473404671809807
14.182320441988951,-0.18624346010766255
14.215690607734807,-0.028479109788373612
14.249060773480664,0.08121523710709691
14.28243093922652,0.12119934380633668
14.315801104972376,0.09610497882927169
14.349171270718234,0.029852896888851062
14.38254143646409,-0.04703920257789063
14.415911602209945,-0.10982297756447804
14.449281767955803,-0.14679219518537723
14.482651933701659,-0.15971581841239196
14.516022099447515,-0.15879824143642313
14.54939226519337,-0.1554245718453097
14.582762430939228,-0.15615086444934914
14.616132596685084,-0.1602349791198913
14.64950276243094,-0.16120436787160253
14.682872928176797,-0.15126715594860313
14.716243093922653,-0.1263249699593681
14.749613259668509,-0.08920614817520213
14.782983425414367,-0.049517614181681865
14.816353591160222,-0.01996256480940898
14.849723756906078,-0.01057506627854425
14.883093922651934,-0.02341241290915588
14.916464088397792,-0.05027184029078984
14.949834254143648,-0.07484893807968152
14.983204419889503,-0.07887918427083013
15.016574585635361,-0.050002003700947935
15.049944751381217,0.011874956907346128
15.083314917127073,0.09262306509865831
15.116685082872928,0.16769863740599997
15.150055248618786,0.21072315336338213
15.183425414364642,0.20365718493567836
15.216795580110498,0.1443836425594461
15.250165745856355,0.04838292650186161
15.283535911602211,-0.05630783568223613
15.316906077348067,-0.13869076907247582
15.350276243093925,-0.17488968028933957
15.38364640883978,-0.15474897501635523
15.417016574585636,-0.08291139827367111
15.450386740331492,0.02502491999579068
15.48375690607735,0.148713569922698
15.517127071823205,0.26869132793045514
15.550497237569061,0.36964664249393564
15.583867403314919,0.4413376679172432
15.617237569060775,0.4784302602132823
15.65060773480663,0.4805000978242246
15.683977900552488,0.4523271997545979
15.717348066298344,0.40340399253900805
15.7507182320442,0.3453747904311591
15.784088397790056,0.28731066689765067
15.817458563535913,0.23062936623343552
15.85082872928177,0.16673055910111473
15.884198895027625,0.07984161920994785
15.917569060773483,-0.04498222523477854
15.950939226519338,-0.21204472484022877
15.984309392265194,-0.40866614774672
16.01767955801105,-0.6065638934776731
16.051049723756908,-0.7712945245668604
16.084419889502765,-0.8754027922353375
16.11779005524862,-0.9084103587523943
16.151160220994477,-0.8782776613212305
16.18453038674033,-0.8038063643209746
16.21790055248619,-0.7027184823735442
16.251270718232046,-0.5825763939711338
16.2846408839779,-0.43976873236069186
16.318011049723758,-0.26668761607383196
16.351381215469615,-0.062137845555932325
16.38475138121547,0.1619053169426258
16.418121546961327,0.3816834982305405
16.451491712707185,0.5705282573933441
16.48486187845304,0.7099007283756428
16.518232044198896,0.7959958761529002
16.551602209944754,0.8381012087585024
16.584972375690608,0.8499288389378656
16.618342541436466,0.8393080684597306
16.651712707182323,0.8025179538993458
16.685082872928177,0.7267591296904374
16.718453038674035,0.5994895772195582
16.751823204419892,0.41929103194713363
16.785193370165747,0.20186039422659133
16.818563535911604,-0.022732969935568434
16.851933701657458,-0.2205825972281866
16.885303867403316,-0.36694375103618254
16.918674033149173,-0.4548983862772784
16.952044198895027,-0.49524097875009304
16.985414364640885,-0.5080265284981197
17.018784530386743,-0.5108452655559232
17.052154696132597,-0.5105375775832702
17.085524861878454,-0.5027465864319113
17.118895027624312,-0.47881911062140875
17.152265193370166,-0.43508442872829084
17.185635359116024,-0.37818129180108645
17.21900552486188,-0.32264228310973486
