Frequency (Hz),Amplitude
0.0,1.4827183030830957
0.019801980198019802,1.4820131398529297
0.039603960396039604,1.479898435135975
0.0594059405940594,1.4763765439720182
0.07920792079207921,1.4714513918423715
0.09900990099009901,1.4651284753561988
0.1188118811881188,1.4574148633409005
0.13861386138613863,1.4483191984712003
0.15841584158415842,1.4378516996174013
0.1782178217821782,1.4260241651453067
0.19801980198019803,1.412849977460108
0.21782178217821782,1.398344109157089
0.2376237623762376,1.3825231312254138
0.25742574257425743,1.3654052238518954
0.27722772277227725,1.3470101904936735
0.297029702970297,1.3273594760381078
0.31683168316831684,1.306476190052577
0.33663366336633666,1.2843851363560361
0.3564356435643564,1.2611128504306504
0.37623762376237624,1.236687646552677
0.39603960396039606,1.2111396769787321
0.4158415841584158,1.1845010061063632
0.43564356435643564,1.1568057032752532
0.45544554455445546,1.1280899588405224
0.4752475247524752,1.0983922294036974
0.495049504950495,1.0677534197269778
0.5148514851485149,1.0362171110161449
0.5346534653465347,1.0038298481196133
0.5544554455445545,0.9706415020099957
0.5742574257425742,0.9367057290439841
0.594059405940594,0.9020805554284679
0.613861386138614,0.866829124746761
0.6336633663366337,0.8310206592804753
0.6534653465346534,0.7947317035398759
0.6732673267326733,0.7580477427254838
0.6930693069306931,0.7210653222500467
0.7128712871287128,0.6838948401053919
0.7326732673267327,0.6466642454243765
0.7524752475247525,0.6095239573726461
0.7722772277227723,0.572653418885422
0.7920792079207921,0.536269810621721
0.8118811881188118,0.5006395379126832
0.8316831683168316,0.46609307564200586
0.8514851485148516,0.43304339863141456
0.8712871287128713,0.40200709549425623
0.891089108910891,0.37362458454461955
0.9108910891089109,0.34867063903478296
0.9306930693069307,0.32803856459322095
0.9504950495049505,0.3126746398966396
0.9702970297029703,0.3034454319570733
0.99009900990099,0.30095422365435853
1.00990099009901,0.30537656885002235
1.0297029702970297,0.3164067304216101
1.0495049504950495,0.3333494755800833
1.0693069306930694,0.3552994126369224
1.0891089108910892,0.38131508650236506
1.108910891089109,0.41053253954347574
1.1287128712871286,0.44221460484004294
1.1485148514851484,0.4757572334974
1.1683168316831685,0.5106749815464464
1.188118811881188,0.5465799525284727
1.2079207920792079,0.5831612360892975
1.227722772277228,0.6201674636409503
1.2475247524752475,0.6573929530053516
1.2673267326732673,0.6946670622780602
1.2871287128712872,0.7318461399288865
1.3069306930693068,0.7688074770055456
1.3267326732673268,0.8054447670239914
1.3465346534653466,0.8416646889189091
1.3663366336633662,0.877384323614632
1.3861386138613863,0.9125291899264418
1.405940594059406,0.9470317422305646
1.4257425742574257,0.9808302142101314
1.4455445544554455,1.0138677235549944
1.4653465346534653,1.0460915747271191
1.4851485148514851,1.077452713077116
1.504950495049505,1.1079052953953583
1.5247524752475248,1.137406350625674
1.5445544554455446,1.1659155108376968
1.5643564356435644,1.1933947972736418
1.5841584158415842,1.2198084498060977
1.6039603960396038,1.2451227907868252
1.6237623762376237,1.2693061162648978
1.6435643564356437,1.2923286090730954
1.6633663366336633,1.3141622694459447
1.683168316831683,1.334780859731068
1.7029702970297032,1.3541598604519247
1.7227722772277227,1.3722764355242258
1.7425742574257426,1.3891094048558401
1.7623762376237624,1.4046392228978841
1.782178217821782,1.4188479619837666
1.801980198019802,1.431719299508321
1.8217821782178218,1.4432385081728327
1.8415841584158414,1.4533924486628345
1.8613861386138615,1.4621695642408785
1.881188118811881,1.469559876831928
1.900990099009901,1.4755549842584055
1.920792079207921,1.480148058349057
1.9405940594059405,1.4833338437031187
1.9603960396039604,1.485108656941344
1.98019801980198,1.4854703863196959
2.0,1.484418491621881
2.01980198019802,1.4819540042844548
2.0396039603960396,1.4780795277445289
2.0594059405940595,1.4727992380356965
2.0792079207920793,1.4661188846949644
2.099009900990099,1.4580457920817587
2.118811881188119,1.4485888612525164
2.1386138613861387,1.437758572581174
2.1584158415841586,1.425566989369147
2.1782178217821784,1.4120277627503346
2.1980198019801978,1.3971561382695674
2.217821782178218,1.3809689645996839
2.237623762376238,1.363484704967352
2.257425742574257,1.3447234519849698
2.2772277227722775,1.324706946743011
2.297029702970297,1.3034586032102362
2.3168316831683167,1.2810035392306385
2.336633663366337,1.257368615708132
2.3564356435643563,1.2325824859513783
2.376237623762376,1.2066756576354647
2.3960396039603964,1.1796805704559896
2.4158415841584158,1.1516316933471251
2.4356435643564356,1.1225656461653153
2.455445544554456,1.0925213520827195
2.4752475247524752,1.0615402286951228
2.495049504950495,1.0296664281737578
2.514851485148515,0.996947139881863
2.5346534653465347,0.9634329730141149
2.5544554455445545,0.9291784423936986
2.5742574257425743,0.894242588125045
2.594059405940594,0.8586897701223091
2.6138613861386135,0.8225906926942357
2.633663366336634,0.7860237338724964
2.6534653465346536,0.7490766810985903
2.673267326732673,0.7118490120208679
2.6930693069306932,0.6744549100592475
2.712871287128713,0.6370272731690619
2.7326732673267324,0.5997230644240185
2.7524752475247527,0.5627304644134978
2.7722772277227725,0.5262784057942262
2.792079207920792,0.49064915626600747
2.811881188118812,0.45619455190693065
2.8316831683168315,0.4233560000111172
2.8514851485148514,0.39268692277380535
2.8712871287128716,0.3648729719832835
2.891089108910891,0.34073906233103163
2.910891089108911,0.3212234331958643
2.9306930693069306,0.30729329594752025
2.9504950495049505,0.2997888793447502
2.9702970297029703,0.29922683508057446
2.99009900990099,0.3056501697556661
3.00990099009901,0.3186149628212976
3.0297029702970297,0.3373226315604073
3.0495049504950495,0.3608158823766456
3.0693069306930694,0.3881451049437135
3.089108910891089,0.41846443258301347
3.108910891089109,0.4510656367312679
3.128712871287129,0.48537499092881387
3.148514851485148,0.5209343145646567
3.1683168316831685,0.5573784886288431
3.1881188118811883,0.5944149275855443
3.2079207920792077,0.6318067295888385
3.227722772277228,0.6693595409111772
3.2475247524752473,0.7069115750266075
3.267326732673267,0.7443261170015012
3.2871287128712874,0.7814859153580772
3.3069306930693068,0.8182889821872152
3.3267326732673266,0.8546454362860155
3.346534653465347,0.8904751178342211
3.366336633663366,0.9257057751368895
3.386138613861386,0.9602716774651996
3.4059405940594063,0.9941125471289082
3.4257425742574257,1.0271727322864217
3.4455445544554455,1.0594005625503733
3.4653465346534653,1.0907478443596403
3.485148514851485,1.1211694639509973
3.504950495049505,1.1506230737161045
3.5247524752475248,1.1790688435867471
3.5445544554455446,1.2064692634326548
3.564356435643564,1.2327889856960281
3.5841584158415842,1.2579946999209854
3.603960396039604,1.282055032677336
3.6237623762376234,1.3049404677803933
3.6435643564356437,1.3266232827835578
3.6633663366336635,1.3470774985500755
3.683168316831683,1.3662788393548275
3.702970297029703,1.3842047014706431
3.722772277227723,1.40083412859002
3.7425742574257423,1.4161477927466692
3.762376237623762,1.430127979651441
3.7821782178217824,1.442758577557294
3.801980198019802,1.454025068930102
3.8217821782178216,1.4639145243334946
3.841584158415842,1.4724155980439293
3.8613861386138613,1.4795185250014893
3.881188118811881,1.4852151187765232
3.9009900990099013,1.4894987702954336
3.9207920792079207,1.4923644471231985
3.9405940594059405,1.4938086931476828
3.96039603960396,1.493829628552992
3.98019801980198,1.4924269500080127
4.0,1.4896019310324526
4.01980198019802,1.4853574225380342
4.03960396039604,1.4796978535776353
4.0594059405940595,1.4726292323714563
4.079207920792079,1.4641591477179767
4.099009900990099,1.4542967709395076
4.118811881188119,1.4430528585595683
4.138613861386139,1.4304397559633022
4.158415841584159,1.4164714023551257
4.178217821782178,1.4011633374022316
4.198019801980198,1.384532710041683
4.217821782178218,1.3665982900365445
4.237623762376238,1.3473804829980693
4.257425742574258,1.3269013497528628
4.2772277227722775,1.305184631134777
4.297029702970297,1.2822557795319567
4.316831683168317,1.2581419988347828
4.336633663366336,1.2328722948292057
4.356435643564357,1.2064775385879702
4.376237623762377,1.1789905460633612
4.3960396039603955,1.150446177925082
4.415841584158416,1.1208814647779826
4.435643564356436,1.0903357643210798
4.455445544554455,1.0588509588878237
4.475247524752476,1.026471704298429
4.4950495049504955,0.9932457442814085
4.514851485148514,0.9592243091953193
4.534653465346535,0.924462623841744
4.554455445544555,0.8890205574259179
4.574257425742574,0.8529634600681801
4.594059405940594,0.8163632459368517
4.613861386138614,0.7792998048068223
4.633663366336633,0.7418628540788557
4.653465346534653,0.7041543853299513
4.673267326732674,0.6662919176020456
4.693069306930693,0.6284128489365737
4.712871287128713,0.5906803027255924
4.732673267326733,0.5532909965898029
4.752475247524752,0.5164858046683323
4.772277227722772,0.48056378695306323
4.792079207920793,0.4459003778342485
4.811881188118812,0.412969821443198
4.8316831683168315,0.38237011594351433
4.851485148514852,0.3548445047071579
4.871287128712871,0.331285693822678
4.891089108910891,0.3126984639200302
4.910891089108912,0.3000917144744886
4.930693069306931,0.2942916732504499
4.9504950495049505,0.29572672528779953
4.97029702970297,0.30429336849940103
4.99009900990099,0.3193905741429359
5.00990099009901,0.3400989104620481
5.02970297029703,0.36539531455370156
5.0495049504950495,0.3943115536306802
5.069306930693069,0.426012158584404
5.089108910891089,0.4598124227455794
5.108910891089109,0.49516534816339824
5.128712871287129,0.5316377944122392
5.148514851485149,0.568886159181694
5.1683168316831685,0.6066355556122427
5.188118811881188,0.6446633171984333
5.207920792079208,0.6827864178560077
5.227722772277227,0.720852049334281
5.247524752475248,0.7587306130657095
5.267326732673268,0.7963105115275888
5.2871287128712865,0.8334942655723164
5.306930693069307,0.8701956054943157
5.326732673267327,0.9063372781239762
5.346534653465346,0.9418493826313268
5.366336633663367,0.9766680989964381
5.3861386138613865,1.010734710077406
5.405940594059405,1.0439948447848655
5.425742574257426,1.0763978889962207
5.445544554455446,1.107896524652171
5.465346534653465,1.1384463675015701
5.485148514851486,1.16800568128003
5.504950495049505,1.196535151488776
5.524752475247524,1.223997705923597
5.544554455445545,1.2503583720738685
5.564356435643565,1.2755841637418321
5.584158415841584,1.2996439909187611
5.603960396039604,1.3225085882391547
5.623762376237624,1.3441504583188224
5.643564356435643,1.3645438270428887
5.663366336633663,1.3836646084603446
5.683168316831684,1.401490377403796
5.702970297029703,1.4180003483165626
5.7227722772277225,1.4331753590572238
5.742574257425743,1.4469978586814611
5.762376237623762,1.4594518983852731
5.782178217821782,1.4705231249425776
5.801980198019803,1.4801987760916477
5.821782178217822,1.4884676774243395
5.841584158415841,1.4953202404147319
5.861386138613861,1.5007484612928974
5.881188118811881,1.5047459205284026
5.900990099009901,1.507307782738581
5.920792079207921,1.5084307968811776
5.9405940594059405,1.5081132966306974
5.96039603960396,1.506355200874566
5.98019801980198,1.5031580142996592
6.0,1.498524828073737
6.01980198019802,1.492460320660238
6.03960396039604,1.4849707588402197
6.0594059405940595,1.4760639990531903
6.079207920792079,1.4657494892100429
6.099009900990099,1.4540382711783397
6.118811881188119,1.4409429841940324
6.138613861386139,1.426477869516814
6.158415841584159,1.410658776721085
6.178217821782178,1.3935031721044762
6.198019801980198,1.3750301498049071
6.217821782178218,1.3552604463507916
6.237623762376237,1.3342164595339236
6.257425742574258,1.3119222726998363
6.2772277227722775,1.2884036858073644
6.297029702970296,1.2636882549333264
6.316831683168317,1.2378053423098736
6.336633663366337,1.210786179507781
6.356435643564356,1.182663947055884
6.376237623762377,1.1534738746631765
6.396039603960396,1.1232533673533807
6.415841584158415,1.0920421643235174
6.435643564356436,1.0598825393250393
6.455445544554456,1.0268195540146428
6.475247524752475,0.9929013792793524
6.495049504950495,0.9581797043551138
6.514851485148515,0.9227102601245987
6.534653465346534,0.8865534920034756
6.554455445544554,0.8497754303152972
6.574257425742575,0.812448823461257
6.594059405940594,0.774654623586063
6.6138613861386135,0.7364839487669318
6.633663366336634,0.6980406941125189
6.653465346534653,0.6594450320600799
6.673267326732673,0.6208381364409816
6.693069306930694,0.5823885925428515
6.712871287128713,0.5443011193607307
6.732673267326732,0.506828417407453
6.752475247524753,0.47028710657962713
6.772277227722772,0.43507865880874064
6.792079207920792,0.4017155267194766
6.811881188118813,0.37085039573762324
6.8316831683168315,0.34330103251165656
6.851485148514851,0.3200528792761989
6.871287128712871,0.3022080113097822
6.891089108910891,0.2908452531023357
6.910891089108911,0.28678957789534004
6.930693069306931,0.2903700362863605
6.9504950495049505,0.30130740892791796
6.97029702970297,0.3188113794619113
6.99009900990099,0.3418175509246496
7.00990099009901,0.36922269310085326
7.02970297029703,0.400032196697954
7.0495049504950495,0.43341684185330676
7.069306930693069,0.46871316706639804
7.089108910891089,0.5053996690468349
7.108910891089109,0.5430676443168763
7.128712871287128,0.5813947955949083
7.148514851485149,0.6201239588313099
7.1683168316831685,0.6590468580697018
7.188118811881187,0.6979920121384997
7.207920792079208,0.7368158267811163
7.227722772277228,0.7753960479029288
7.247524752475247,0.8136269380405668
7.267326732673268,0.8514157039924933
7.287128712871287,0.88867983350292
7.306930693069306,0.9253450951723711
7.326732673267327,0.9613440252202334
7.346534653465347,0.9966147742249061
7.366336633663366,1.0311002221111394
7.3861386138613865,1.0647472946288505
7.405940594059406,1.0975064323835344
7.425742574257425,1.1293311762580562
7.445544554455446,1.160177842294294
7.465346534653466,1.1900052658151667
7.485148514851485,1.2187745994869223
7.504950495049505,1.2464491536540296
7.524752475247524,1.2729942699824244
7.544554455445544,1.2983772214737235
7.564356435643565,1.3225671334441251
7.584158415841584,1.3455349212266248
7.603960396039604,1.3672532412478746
7.623762376237624,1.3876964528198863
7.643564356435643,1.4068405885216355
7.663366336633663,1.4246633314642578
7.683168316831684,1.4411439980627034
7.702970297029703,1.4562635251977354
7.7227722772277225,1.4700044608602487
7.742574257425743,1.4823509575370637
7.762376237623762,1.493288767732516
7.782178217821782,1.5028052411303223
7.801980198019803,1.5108893229909006
7.821782178217822,1.5175315534544247
7.841584158415841,1.5227240674831835
7.861386138613862,1.5264605952303754
7.881188118811881,1.5287364626691344
7.900990099009901,1.5295485923563308
7.92079207920792,1.5288955042427173
7.9405940594059405,1.5267773164749936
7.96039603960396,1.5231957461679404
7.980198019801979,1.5181541101563847
8.0,1.5116573257694892
8.01980198019802,1.5037119117031341
8.03960396039604,1.4943259891029526
8.05940594059406,1.4835092830107477
8.07920792079208,1.4712731243724642
8.099009900990099,1.4576304528588653
8.118811881188119,1.4425958208118181
8.138613861386139,1.426185398702742
8.158415841584159,1.4084169825788726
8.178217821782178,1.389310004081039
8.198019801980198,1.3688855437498282
8.217821782178218,1.3471663485015442
8.237623762376238,1.3241768543613266
8.257425742574258,1.299943215798989
8.277227722772277,1.2744933433404877
8.297029702970297,1.24785695154491
8.316831683168317,1.2200656199718865
8.336633663366337,1.1911528704558307
8.356435643564357,1.1611542649030389
8.376237623762377,1.1301075290074576
8.396039603960396,1.0980527088382832
8.415841584158416,1.0650323693263866
8.435643564356436,1.0310918464576626
8.455445544554456,0.9962795687440553
8.475247524752476,0.9606474686741574
8.495049504950495,0.9242515119039558
8.514851485148515,0.8871523817401784
8.534653465346535,0.8494163701673203
8.554455445544555,0.8111165459871836
8.574257425742575,0.7723342980806835
8.594059405940595,0.733161391014601
8.613861386138613,0.6937027264580891
8.633663366336634,0.6540800845308482
8.653465346534654,0.6144372341066431
8.673267326732672,0.5749469618055767
8.693069306930694,0.5358207851888197
8.712871287128714,0.4973223801806047
8.732673267326732,0.4597860071295583
8.752475247524753,0.4236412607729743
8.772277227722773,0.3894447440793265
8.792079207920791,0.35791649896035543
8.811881188118813,0.3299718341770841
8.831683168316832,0.3067248297175926
8.85148514851485,0.28942051244991457
8.871287128712872,0.27924882709321874
8.891089108910892,0.2770476220610356
8.91089108910891,0.28302095253295834
8.930693069306932,0.29666213837566074
8.950495049504951,0.316941772900549
8.97029702970297,0.34261911880867646
8.990099009900991,0.3724968709365977
9.00990099009901,0.40555003495557923
9.029702970297029,0.4409556201925549
9.04950495049505,0.47807251387534366
9.06930693069307,0.5164059101423707
9.089108910891088,0.555572579777465
9.10891089108911,0.5952723777757535
9.12871287128713,0.6352665494095336
9.148514851485148,0.675361766398361
9.16831683168317,0.7153985442203988
9.188118811881187,0.7552428665864472
9.207920792079207,0.7947801135466069
9.227722772277229,0.8339106339179756
9.247524752475247,0.8725464923281757
9.267326732673267,0.9106090593493213
9.287128712871288,0.9480272110272724
9.306930693069306,0.9847359725258756
9.326732673267326,1.0206754882907345
9.346534653465348,1.0557902344331835
9.366336633663366,1.0900284123964785
9.386138613861386,1.1233414794663623
9.405940594059407,1.1556837834313465
9.425742574257425,1.1870122771245732
9.445544554455445,1.2172862946772114
9.465346534653467,1.2464673757636613
9.485148514851485,1.2745191273944696
9.504950495049505,1.3014071152435813
9.524752475247526,1.3270987783150494
9.544554455445544,1.3515633621253804
9.564356435643564,1.3747718666194113
9.584158415841586,1.3966970058348265
9.603960396039604,1.4173131769449152
9.623762376237623,1.4365964367863002
9.643564356435645,1.4545244843511107
9.663366336633663,1.4710766480164972
9.683168316831683,1.4862338765166752
9.702970297029704,1.4999787328482506
9.722772277227723,1.5122953904481446
9.742574257425742,1.52316963110422
9.762376237623764,1.5325888441567739
9.782178217821782,1.5405420266299577
9.801980198019802,1.5470197839995439
9.821782178217823,1.5520143313597485
9.841584158415841,1.5555194948003193
9.861386138613861,1.5575307128466829
9.881188118811881,1.558045037853063
9.900990099009901,1.5570611372718157
9.92079207920792,1.554579294753405
9.94059405940594,1.5506014110611623
9.96039603960396,1.5451310048143347
9.98019801980198,1.5381732131028703
10.0,1.5297347920489985
10.01980198019802,1.5198241174247233
10.03960396039604,1.5084511854724196
10.05940594059406,1.4956276141188964
10.07920792079208,1.4813666448235254
10.099009900990099,1.4656831453601065
10.118811881188119,1.4485936139029465
10.138613861386139,1.4301161848730666
10.158415841584159,1.4102706371051525
10.178217821782178,1.3890784050246032
10.198019801980198,1.3665625936844359
10.217821782178218,1.342747998712291
10.237623762376238,1.3176611324712981
10.257425742574258,1.291330258060206
10.277227722772277,1.2637854331901386
10.297029702970297,1.2350585665063951
10.316831683168317,1.205183489612984
10.336633663366337,1.174196048959754
10.356435643564357,1.1421342229410043
10.376237623762377,1.1090382711347864
10.396039603960396,1.0749509247298474
10.415841584158416,1.0399176300493422
10.435643564356436,1.0039868609838267
10.455445544554454,0.9672105215181797
10.475247524752476,0.9296444670017644
10.495049504950495,0.8913491832839286
10.514851485148514,0.8523906776746476
10.534653465346535,0.8128416569174005
10.554455445544555,0.7727830980144847
10.574257425742573,0.7323063623874295
10.594059405940595,0.6915160693260908
10.613861386138614,0.6505340410961281
10.633663366336632,0.609504773957392
