Frequency (Hz),Amplitude
0.0,0.2198980391532207
0.019801980198019802,0.22095780762930806
0.039603960396039604,0.22410288074179044
0.0594059405940594,0.22923524895957573
0.07920792079207921,0.2362057362055338
0.09900990099009901,0.2448309377614734
0.1188118811881188,0.2549104446615274
0.13861386138613863,0.26624136045026586
0.15841584158415842,0.2786287383317648
0.1782178217821782,0.2918919334609881
0.19801980198019803,0.3058676316252135
0.21782178217821782,0.3204105432152749
0.2376237623762376,0.33539265791102074
0.25742574257425743,0.3507017380008695
0.27722772277227725,0.36623950496563146
0.297029702970297,0.38191979453841574
0.31683168316831684,0.3976668293044996
0.33663366336633666,0.41341367707148663
0.3564356435643564,0.4291009153738989
0.37623762376237624,0.4446754964340082
0.39603960396039606,0.4600897943409713
0.4158415841584158,0.4753008114906761
0.43564356435643564,0.49026952087345166
0.45544554455445546,0.504960322457587
0.4752475247524752,0.5193405944583149
0.495049504950495,0.5333803230347945
0.5148514851485149,0.5470517965819321
0.5346534653465347,0.5603293531299904
0.5544554455445545,0.5731891713859705
0.5742574257425742,0.585609097651701
0.594059405940594,0.5975685022649736
0.613861386138614,0.6090481603695371
0.6336633663366337,0.6200301527674165
0.6534653465346534,0.630497783378835
0.6732673267326733,0.640435510462034
0.6930693069306931,0.6498288892555151
0.7128712871287128,0.6586645241198682
0.7326732673267327,0.666930028594266
0.7524752475247525,0.6746139920585162
0.7722772277227723,0.6817059519173786
0.7920792079207921,0.6881963704091355
0.8118811881188118,0.6940766152934
0.8316831683168316,0.6993389437994588
0.8514851485148516,0.7039764893217935
0.8712871287128713,0.7079832504374649
0.891089108910891,0.7113540818943453
0.9108910891089109,0.7140846872821375
0.9306930693069307,0.7161716131524395
0.9504950495049505,0.7176122444010411
0.9702970297029703,0.7184048007672464
0.99009900990099,0.718548334342247
1.00990099009901,0.7180427280127212
1.0297029702970297,0.7168886947978751
1.0495049504950495,0.7150877780689916
1.0693069306930694,0.7126423526711562
1.0891089108910892,0.7095556269978724
1.108910891089109,0.7058316461017908
1.1287128712871286,0.7014752959599465
1.1485148514851484,0.6964923090499182
1.1683168316831685,0.6908892714366051
1.188118811881188,0.6846736316181594
1.2079207920792079,0.6778537114362002
1.227722772277228,0.6704387194216024
1.2475247524752475,0.6624387670252082
1.2673267326732673,0.6538648882756964
1.2871287128712872,0.644729063518045
1.3069306930693068,0.6350442480200049
1.3267326732673268,0.6248244063962809
1.3465346534653466,0.6140845539969619
1.3663366336633662,0.6028408066475691
1.3861386138613863,0.5911104404219617
1.405940594059406,0.5789119634904659
1.4257425742574257,0.5662652025293403
1.4455445544554455,0.5531914067237934
1.4653465346534653,0.539713373069401
1.4851485148514851,0.5258555975047481
1.504950495049505,0.511644457425098
1.5247524752475248,0.49710843237142954
1.5445544554455446,0.48227837120203004
1.5643564356435644,0.46718781587329794
1.5841584158415842,0.45187339410936966
1.6039603960396038,0.43637529572113515
1.6237623762376237,0.42073785007451486
1.6435643564356437,0.40501022500905115
1.6633663366336633,0.38924726994573705
1.683168316831683,0.37351052717316324
1.7029702970297032,0.35786943386703496
1.7227722772277227,0.34240273070114174
1.7425742574257426,0.3272000767094894
1.7623762376237624,0.3123638377671152
1.782178217821782,0.2980109581513445
1.801980198019802,0.284274728926111
1.8217821782178218,0.27130612109847246
1.8415841584158414,0.2592741511089381
1.8613861386138615,0.24836451109146068
1.881188118811881,0.23877549755895178
1.900990099009901,0.23071025952820737
1.920792079207921,0.22436478339331267
1.9405940594059405,0.2199120347535163
1.9603960396039604,0.2174842351062262
1.98019801980198,0.21715682371762876
2.0,0.21893827550353814
2.01980198019802,0.22276882989288574
2.0396039603960396,0.2285285387575979
2.0594059405940595,0.2360521755807613
2.0792079207920793,0.2451469455066394
2.099009900990099,0.2556091380059913
2.118811881188119,0.26723728543069325
2.1386138613861387,0.27984103172634617
2.1584158415841586,0.2932460920886283
2.1782178217821784,0.3072962304652003
2.1980198019801978,0.32185325491807004
2.217821782178218,0.3367958626653918
2.237623762376238,0.3520179303146599
2.257425742574257,0.3674266307031642
2.2772277227722775,0.38294059656696555
2.297029702970297,0.3984882428640898
2.3168316831683167,0.41400629265459665
2.336633663366337,0.42943851329382804
2.3564356435643563,0.44473464995257495
2.376237623762376,0.45984953476956053
2.3960396039603964,0.4747423474510421
2.4158415841584158,0.4893760038889017
2.4356435643564356,0.5037166516292677
2.455445544554456,0.5177332538143391
2.4752475247524752,0.5313972460284009
2.495049504950495,0.5446822530610058
2.514851485148515,0.5575638548598169
2.5346534653465347,0.5700193928655772
2.5544554455445545,0.5820278095231183
2.5742574257425743,0.593569515082354
2.594059405940594,0.6046262768832935
2.6138613861386135,0.6151811271987099
2.633663366336634,0.625218286422898
2.6534653465346536,0.634723098975217
2.673267326732673,0.643681979758305
2.6930693069306932,0.6520823693939142
2.712871287128713,0.6599126967713473
2.7326732673267324,0.6671623476980815
2.7524752475247527,0.6738216386508825
2.7722772277227725,0.6798817947968556
2.792079207920792,0.6853349315954358
2.811881188118812,0.690174039409288
2.8316831683168315,0.6943929706497114
2.8514851485148514,0.6979864290639666
2.8712871287128716,0.7009499608409343
2.891089108910891,0.7032799472703581
2.910891089108911,0.704973598741679
2.9306930693069306,0.7060289499124864
2.9504950495049505,0.7064448559159369
2.9702970297029703,0.7062209895116528
2.99009900990099,0.7053578391173188
3.00990099009901,0.7038567076888809
3.0297029702970297,0.7017197124472063
3.0495049504950495,0.6989497854787254
3.0693069306930694,0.6955506752684327
3.089108910891089,0.6915269492555507
3.108910891089109,0.6868839975374254
3.128712871287129,0.68162803788552
3.148514851485148,0.6757661222809694
3.1683168316831685,0.6693061452269907
3.1881188118811883,0.662256854153183
3.2079207920792077,0.6546278622946136
3.227722772277228,0.6464296645090337
3.2475247524752473,0.6376736565914898
3.267326732673267,0.6283721587609488
3.2871287128712874,0.6185384441328912
3.3069306930693068,0.6081867731611005
3.3267326732673266,0.5973324352380501
3.346534653465347,0.5859917988958265
3.366336633663366,0.5741823723592572
3.386138613861386,0.5619228765843438
3.4059405940594063,0.5492333333853197
3.4257425742574257,0.5361351718344107
3.4455445544554455,0.5226513568361388
3.4653465346534653,0.5088065446643466
3.485148514851485,0.4946272713428162
3.504950495049505,0.4801421810920022
3.5247524752475248,0.4653823037007164
3.5445544554455446,0.450381391655836
3.564356435643564,0.43517633020475766
3.5841584158415842,0.41980763622814543
3.603960396039604,0.40432006478287635
3.6237623762376234,0.3887633452078863
3.6435643564356437,0.3731930712717963
3.6633663366336635,0.3576717710101229
3.683168316831683,0.34227017988463965
3.702970297029703,0.327068732639984
3.722772277227723,0.31215926969885066
3.7425742574257423,0.29764691531204146
3.762376237623762,0.2836520157765249
3.7821782178217824,0.2703119128736103
3.801980198019802,0.257782157291092
3.8217821782178216,0.2462365378590309
3.841584158415842,0.23586504698085975
3.8613861386138613,0.22686871878521994
3.881188118811881,0.21945035561001403
3.9009900990099013,0.21380075812063237
3.9207920792079207,0.21008136632827915
3.9405940594059405,0.20840600296141476
3.96039603960396,0.2088259013571074
3.98019801980198,0.21132228552150686
4.0,0.2158088708270198
4.01980198019802,0.22214349002788072
4.03960396039604,0.23014531677531427
4.0594059405940595,0.23961321290611332
4.079207920792079,0.2503416207577196
4.099009900990099,0.26213219350066225
4.118811881188119,0.274800970588454
4.138613861386139,0.28818186176263494
4.158415841584159,0.302127519671505
4.178217821782178,0.31650860163485345
4.198019801980198,0.3312121823434509
4.217821782178218,0.34613982709715424
4.237623762376238,0.3612056316822627
4.257425742574258,0.3763343925505016
4.2772277227722775,0.3914599805407615
4.297029702970297,0.4065239385459878
4.316831683168317,0.42147429529885916
4.336633663366336,0.4362645742188548
4.356435643564357,0.45085297160857835
4.376237623762377,0.46520167839926474
4.3960396039603955,0.47927632175222457
4.415841584158416,0.4930455057875025
4.435643564356436,0.5064804338241803
4.455445544554455,0.5195545974309997
4.475247524752476,0.5322435201577433
4.4950495049504955,0.5445245460099946
4.514851485148514,0.5563766645595623
4.534653465346535,0.5677803660888826
4.554455445544555,0.578717521397489
4.574257425742574,0.5891712818972095
4.594059405940594,0.5991259964314869
4.613861386138614,0.6085671419085458
4.633663366336633,0.6174812653673173
4.653465346534653,0.625855935523713
4.673267326732674,0.6336797021926475
4.693069306930693,0.640942062263711
4.712871287128713,0.6476334311392449
4.732673267326733,0.6537451187319987
4.752475247524752,0.6592693092744369
4.772277227722772,0.6641990443196509
4.792079207920793,0.6685282084195198
4.811881188118812,0.6722515170540893
4.8316831683168315,0.6753645064601485
4.851485148514852,0.6778635250694938
4.871287128712871,0.6797457263209019
4.891089108910891,0.6810090626558362
4.910891089108912,0.6816522805482154
4.930693069306931,0.6816749164546019
4.9504950495049505,0.6810772936036076
4.97029702970297,0.6798605195734772
4.99009900990099,0.6780264846356213
5.00990099009901,0.6755778608699153
5.02970297029703,0.672518102085872
5.0495049504950495,0.6688514446129509
5.069306930693069,0.6645829090545935
5.089108910891089,0.6597183031341147
5.108910891089109,0.6542642257987893
5.128712871287129,0.6482280727907483
5.148514851485149,0.6416180439431121
5.1683168316831685,0.6344431525169877
5.188118811881188,0.62671323696307
5.207920792079208,0.6184389755724532
5.227722772277227,0.6096319045780001
5.247524752475248,0.6003044403850227
5.267326732673268,0.5904699067517382
5.2871287128712865,0.5801425679135354
5.306930693069307,0.5693376688571936
5.326732673267327,0.5580714842121801
5.346534653465346,0.5463613775483486
5.366336633663367,0.5342258732673838
5.3861386138613865,0.5216847437699682
5.405940594059405,0.5087591151940166
5.425742574257426,0.49547159578340766
5.445544554455446,0.4818464318958365
5.465346534653465,0.46790969783792724
5.485148514851486,0.45368952717588806
5.504950495049505,0.4392163949663456
5.524752475247524,0.4245234625418145
5.544554455445545,0.40964699911150865
5.564356435643565,0.3946268975104244
5.584158415841584,0.37950730487552725
5.603960396039604,0.36433739261309417
5.623762376237624,0.3491722932049164
5.643564356435643,0.33407423309082174
5.663366336633663,0.3191138890164339
5.683168316831684,0.3043719862315441
5.702970297029703,0.2899411346979002
5.7227722772277225,0.2759278544383511
5.742574257425743,0.2624546594585948
5.762376237623762,0.2496619339028095
5.782178217821782,0.23770912857800142
5.801980198019803,0.2267745314586516
5.821782178217822,0.21705256942235113
5.841584158415841,0.2087474174211266
5.861386138613861,0.20206188224008492
5.881188118811881,0.1971814083008647
5.900990099009901,0.19425476018349996
5.920792079207921,0.19337504368967293
5.9405940594059405,0.1945660809954096
5.96039603960396,0.1977784644749318
5.98019801980198,0.20289666308166887
6.0,0.2097548114685281
6.01980198019802,0.21815640078433837
6.03960396039604,0.22789305366928714
6.0594059405940595,0.23875928044983663
6.079207920792079,0.2505622107440019
6.099009900990099,0.26312679441480136
6.118811881188119,0.27629763012882963
6.138613861386139,0.2899386334670465
6.158415841584159,0.30393151840668015
6.178217821782178,0.3181737622415591
6.198019801980198,0.33257646336909963
6.217821782178218,0.3470623142537137
6.237623762376237,0.361563791914954
6.257425742574258,0.3760215980177586
6.2772277227722775,0.3903833431048606
6.297029702970296,0.40460245187233856
6.316831683168317,0.4186372600421151
6.336633663366337,0.43245027299146377
6.356435643564356,0.44600755873031744
6.376237623762377,0.45927825133649985
6.396039603960396,0.47223414465920516
6.415841584158415,0.484849359549343
6.435643564356436,0.4971000708972593
6.455445544554456,0.5089642833152009
6.475247524752475,0.5204216464188459
6.495049504950495,0.5314533023915353
6.514851485148515,0.5420417599157278
6.534653465346534,0.5521707896857199
6.554455445544554,0.5618253376235263
6.574257425742575,0.5709914526495048
6.594059405940594,0.5796562264454574
6.6138613861386135,0.5878077431196632
6.633663366336634,0.595435037063777
6.653465346534653,0.6025280575986856
6.673267326732673,0.6090776392557642
6.693069306930694,0.6150754767426687
6.712871287128713,0.6205141038080761
6.732673267326732,0.6253868753557589
6.752475247524753,0.6296879522698405
6.772277227722772,0.6334122885057747
6.792079207920792,0.6365556200786678
6.811881188118813,0.6391144556451686
6.8316831683168315,0.6410860684299092
6.851485148514851,0.6424684892942318
6.871287128712871,0.6432605007853146
6.891089108910891,0.643461632039325
6.910891089108911,0.6430721544438293
6.930693069306931,0.6420930779935926
6.9504950495049505,0.6405261483007558
6.97029702970297,0.6383738442462545
6.99009900990099,0.6356393762845971
7.00990099009901,0.6323266854400447
7.02970297029703,0.6284404430590358
7.0495049504950495,0.6239860514125827
7.069306930693069,0.6189696452739896
7.089108910891089,0.6133980946328927
7.108910891089109,0.6072790087471607
7.128712871287128,0.6006207417813472
7.148514851485149,0.5934324003357491
7.1683168316831685,0.585723853235898
7.188118811881187,0.5775057440309634
7.207920792079208,0.5687895067446681
7.227722772277228,0.5595873855376152
7.247524752475247,0.549912459081008
7.267326732673268,0.5397786706147202
7.287128712871287,0.5292008648762636
7.306930693069306,0.5181948333515298
7.326732673267327,0.5067773696270118
7.346534653465347,0.49496633703340925
7.366336633663366,0.48278075128383857
7.3861386138613865,0.4702408814539363
7.405940594059406,0.4573683734607162
7.425742574257425,0.44418640121572955
7.445544554455446,0.430719851909786
7.465346534653466,0.4169955534962273
7.485148514851485,0.40304255445382337
7.504950495049505,0.38889246841178055
7.524752475247524,0.37457989928860463
7.544554455445544,0.36014296628849785
7.564356435643565,0.3456239523951568
7.584158415841584,0.3310701047221061
7.603960396039604,0.31653461970868096
7.623762376237624,0.3020778495490849
7.643564356435643,0.28776876612350877
7.663366336633663,0.27368671080038465
7.683168316831684,0.2599234352965496
7.702970297029703,0.2465853879337569
7.7227722772277225,0.2337961023503636
7.742574257425743,0.22169837731005948
7.762376237623762,0.21045567284358535
7.782178217821782,0.20025178800269575
7.801980198019803,0.19128749584960042
7.821782178217822,0.18377259600126136
7.841584158415841,0.17791218783234888
7.861386138613862,0.1738873157613497
7.881188118811881,0.17183257971505767
7.900990099009901,0.17181597495957893
7.92079207920792,0.1738272830656203
7.9405940594059405,0.17777924895374334
7.96039603960396,0.18352114999545144
7.980198019801979,0.19085996903235378
8.0,0.19958279545906962
8.01980198019802,0.2094755204475919
8.03960396039604,0.2203356543682813
8.05940594059406,0.2319794176988355
8.07920792079208,0.24424443910330362
8.099009900990099,0.2569896188016547
8.118811881188119,0.2700934447196905
8.138613861386139,0.2834516463812707
8.158415841584159,0.2969747181471919
8.178217821782178,0.3105855918177751
8.198019801980198,0.3242175809613754
8.217821782178218,0.3378126300002915
8.237623762376238,0.35131985551352385
8.257425742574258,0.36469434731200856
8.277227722772277,0.3778961908866938
8.297029702970297,0.3908896738208787
8.316831683168317,0.4036426427661438
8.336633663366337,0.4161259825302914
8.356435643564357,0.42831319370120924
8.376237623762377,0.4401800495931286
8.396039603960396,0.4517043170133746
8.415841584158416,0.4628655284133239
8.435643564356436,0.47364479547493726
8.455445544554456,0.4840246561806208
8.475247524752476,0.49398894900675755
8.495049504950495,0.5035227091467905
8.514851485148515,0.5126120826745149
8.534653465346535,0.5212442553561619
8.554455445544555,0.5294073934539206
8.574257425742575,0.5370905943688683
8.594059405940595,0.5442838453748287
8.613861386138613,0.5509779890178549
8.633663366336634,0.5571646940160797
8.653465346534654,0.5628364307042378
8.673267326732672,0.5679864502371983
8.693069306930694,0.5726087669049524
8.712871287128714,0.5766981430246411
8.732673267326732,0.5802500759680808
8.752475247524753,0.5832607869598847
8.772277227722773,0.58572721134525
8.792079207920791,0.5876469900800182
8.811881188118813,0.5890184622407256
8.831683168316832,0.5898406583911908
8.85148514851485,0.5901132946755365
8.871287128712872,0.589836767537085
8.891089108910892,0.5890121489887135
8.91089108910891,0.587641182384527
8.930693069306932,0.5857262786651488
8.950495049504951,0.5832705130707762
8.97029702970297,0.580277622337658
8.990099009900991,0.5767520024157847
9.00990099009901,0.5726987067687884
9.029702970297029,0.568123445342217
9.04950495049505,0.5630325843140805
9.06930693069307,0.5574331467732209
9.089108910891088,0.5513328145072443
9.10891089108911,0.5447399311242999
9.12871287128713,0.537663506783225
9.148514851485148,0.5301132248668037
9.16831683168317,0.5220994510056366
9.188118811881187,0.5136332449485583
9.207920792079207,0.5047263758839422
9.227722772277229,0.4953913419499379
9.247524752475247,0.4856413948373596
9.267326732673267,0.47549057059535005
9.287128712871288,0.46495372800862406
9.306930693069306,0.4540465962401395
9.326732673267326,0.4427858338443861
9.346534653465348,0.4311891017778213
9.366336633663366,0.4192751536974941
9.386138613861386,0.40706394768813803
9.405940594059407,0.3945767846465086
9.425742574257425,0.3818364799500239
9.445544554455445,0.3688675768343797
9.465346534653467,0.35569661221471144
9.485148514851485,0.34235244864414416
9.504950495049505,0.328866689871064
9.524752475247526,0.3152742021979844
9.544554455445544,0.30161376969520315
9.564356435643564,0.2879289182976345
9.584158415841586,0.2742689516306445
9.603960396039604,0.2606902491294293
9.623762376237623,0.24725788236273252
9.643564356435645,0.23404760361894184
9.663366336633663,0.22114824232471114
9.683168316831683,0.20866449255731592
9.702970297029704,0.1967199599654422
9.722772277227723,0.18546011611523794
9.742574257425742,0.1750544328743092
9.762376237623764,0.16569641526386744
9.782178217821782,0.15759960642566917
9.801980198019802,0.15098724968736205
9.821782178217823,0.14607387456914298
9.841584158415841,0.14303946209245874
9.861386138613861,0.14200103294964417
9.881188118811881,0.1429904218736349
9.900990099009901,0.14594703451547353
9.92079207920792,0.15072883694940187
9.94059405940594,0.15713692648145894
9.96039603960396,0.1649444012648128
9.98019801980198,0.17392124774880188
10.0,0.18385123825544591
10.01980198019802,0.19454082019210966
10.03960396039604,0.20582201142300943
10.05940594059406,0.21755164475890643
10.07920792079208,0.22960880707811154
10.099009900990099,0.24189165658649148
10.118811881188119,0.25431426694144194
10.138613861386139,0.26680379719381714
10.158415841584159,0.27929808690412317
10.178217821782178,0.29174367479062174
10.198019801980198,0.30409419548605365
10.217821782178218,0.3163090953894002
10.237623762376238,0.32835260942813393
10.257425742574258,0.340192947296572
10.277227722772277,0.35180164615095283
10.297029702970297,0.36315305487691135
10.316831683168317,0.37422392214240463
10.336633663366337,0.3849930663256147
10.356435643564357,0.3954411101316027
10.376237623762377,0.4055502664446955
10.396039603960396,0.41530416488525734
10.415841584158416,0.42468771081362067
10.435643564356436,0.4336869702908576
10.455445544554454,0.4422890758780833
10.475247524752476,0.45048214922354785
10.495049504950495,0.458255237218533
10.514851485148514,0.4655982591539206
10.534653465346535,0.47250196281974255
10.554455445544555,0.47895788789228494
