Time (s),Filtered Signal
0.0,0.009466108525524644
0.03337004405286344,0.8103887823331346
0.06674008810572687,1.5003729465798783
0.10011013215859031,1.9832193599395136
0.13348017621145375,2.192830241934426
0.16685022026431717,2.1094968207626126
0.20022026431718062,1.7702980085858049
0.23359030837004408,1.2659803083771526
0.2669603524229075,0.7202911364623418
0.3003303964757709,0.25538742720621344
0.33370044052863435,-0.045252668750950395
0.3670704845814978,-0.16163546597634965
0.40044052863436125,-0.13869931188473414
0.43381057268722467,-0.06297736573714541
0.46718061674008815,-0.024168120469845553
0.5005506607929515,-0.07830663655201907
0.533920704845815,-0.22837951267523246
0.5672907488986785,-0.42976482485226697
0.6006607929515418,-0.616039572097867
0.6340308370044053,-0.7314987124941925
0.6674008810572687,-0.7546907990619237
0.7007709251101322,-0.7029915447863205
0.7341409691629956,-0.6182617896366149
0.767511013215859,-0.5426323767494499
0.8008810572687225,-0.497155069032845
0.834251101321586,-0.4732638180261852
0.8676211453744493,-0.43977600623197804
0.9009911894273128,-0.3604788070888896
0.9343612334801763,-0.21293999738160507
0.9677312775330397,0.00019274538602601755
1.001101321585903,0.25142765378730814
1.0344713656387665,0.49832577987151955
1.06784140969163,0.6972352422505699
1.1012114537444935,0.8147166265880512
1.134581497797357,0.8333359471614882
1.1679515418502202,0.7523346880795501
1.2013215859030837,0.5860626887458313
1.2346916299559472,0.36262126250206905
1.2680616740088106,0.1225111186023588
1.3014317180616741,-0.08552610356420547
1.3348017621145374,-0.21437771650795487
1.3681718061674009,-0.2337861154360588
1.4015418502202643,-0.1456581015774132
1.4349118942731278,0.00898896434845011
1.4682819383259913,0.15840769651796496
1.5016519823788548,0.22435321104742054
1.535022026431718,0.15420217962255067
1.5683920704845815,-0.05286209539197019
1.601762114537445,-0.3388294888844946
1.6351321585903085,-0.6046590039132487
1.668502202643172,-0.7473162934754973
1.7018722466960352,-0.7011720219347983
1.7352422907488987,-0.4662236683871643
1.7686123348017622,-0.11092289589843507
1.8019823788546256,0.25191512899318197
1.8353524229074891,0.5064910182356334
1.8687224669603526,0.5761792563592529
1.9020925110132159,0.4499539847373993
1.9354625550660793,0.1831970984454411
1.9688325991189428,-0.12651812216072086
2.002202643171806,-0.37798681191536065
2.0355726872246698,-0.5030843171604551
2.068942731277533,-0.486929526182774
2.1023127753303967,-0.3646808678672531
2.13568281938326,-0.19875734026306602
2.1690528634361232,-0.048548737944537367
2.202422907488987,0.0532352003848512
2.23579295154185,0.10809715336816837
2.269162995594714,0.1422513138699531
2.302533039647577,0.1871145416390495
2.3359030837004404,0.26042670536939516
2.369273127753304,0.3567649255072655
2.4026431718061674,0.45049827757880895
2.436013215859031,0.5079772213019408
2.4693832599118943,0.5021168542222741
2.5027533039647576,0.42286482478660586
2.5361233480176213,0.28033146377853196
2.5694933920704845,0.10113436144494538
2.6028634361233483,-0.0793622298670273
2.6362334801762115,-0.2262029565168552
2.6696035242290748,-0.3136091799216953
2.7029735682819385,-0.3320385816564756
2.7363436123348017,-0.2918233374182429
2.7697136563876654,-0.22130222920865789
2.8030837004405287,-0.15825021105792522
2.8364537444933924,-0.13596472265760648
2.8698237885462556,-0.16861423379083607
2.903193832599119,-0.24245047605808118
2.9365638766519826,-0.3184467378952365
2.969933920704846,-0.3474434955053424
3.0033039647577096,-0.29258728238262566
3.036674008810573,-0.14895602369275915
3.070044052863436,0.05002559390678373
3.1034140969162998,0.24433023821291364
3.136784140969163,0.37313779350359333
3.1701541850220267,0.4026927268150669
3.20352422907489,0.3421227561281012
3.2368942731277532,0.23868801724736685
3.270264317180617,0.1544637527902342
3.30363436123348,0.13620324927396257
3.337004405286344,0.19357551784189306
3.370374449339207,0.29622704885732376
3.4037444933920704,0.39001183727986555
3.437114537444934,0.42303115720789086
3.4704845814977974,0.3680350432910301
3.503854625550661,0.23099668852001595
3.5372246696035243,0.043851719297378015
3.5705947136563876,-0.15239127663386848
3.6039647577092513,-0.32416099843610313
3.6373348017621145,-0.4536243145726724
3.6707048458149782,-0.5371068842317689
3.7040748898678415,-0.5779604472343701
3.737444933920705,-0.580429228415611
3.7708149779735685,-0.5486678443365597
3.8041850220264317,-0.49023481769557337
3.8375550660792954,-0.4196349758487101
3.8709251101321587,-0.3572246284893369
3.9042951541850224,-0.32197880837194365
3.9376651982378856,-0.3210864496201382
3.971035242290749,-0.3422913058739756
4.004405286343612,-0.35448056077550844
4.037775330396476,-0.3182455597290723
4.0711453744493395,-0.20285073033580392
4.104515418502203,-0.0020520695951530736
4.137885462555066,0.2591671007490127
4.171255506607929,0.5310991308290846
4.2046255506607935,0.7569995881677869
4.237995594713657,0.8944018123886686
4.27136563876652,0.9305664581503588
4.304735682819383,0.8852119910568793
4.3381057268722465,0.7995260503542693
4.371475770925111,0.7166325988905564
4.404845814977974,0.6623167323973109
4.438215859030837,0.6344051404909907
4.4715859030837,0.6051731523918668
4.504955947136564,0.535406915888035
4.538325991189428,0.3937848092837124
4.571696035242291,0.17311220707766736
4.605066079295154,-0.10352784805120854
4.638436123348018,-0.38918568516577506
4.671806167400881,-0.6290995044580913
4.705176211453745,-0.779566123364538
4.738546255506608,-0.8220868972748234
4.7719162995594715,-0.7678234367416501
4.805286343612335,-0.6517188528968326
4.838656387665198,-0.5195073718567182
4.872026431718062,-0.41271162893783797
4.905396475770925,-0.3564341050011537
4.938766519823789,-0.353147248984058
4.972136563876652,-0.3837768961264389
5.005506607929515,-0.4156097309314668
5.038876651982379,-0.4148637510949068
5.072246696035243,-0.3601254086129615
5.105616740088106,-0.2518343488577314
5.138986784140969,-0.11355427003048854
5.172356828193832,0.016536504401566374
5.2057268722466965,0.10133070089427823
5.23909691629956,0.12130092104982886
5.272466960352423,0.0843089712412108
5.305837004405286,0.023653424123833186
5.3392070484581495,-0.015486934926064608
5.372577092511014,0.004467670606027851
5.405947136563877,0.09684451819611874
5.43931718061674,0.2446135143239623
5.4726872246696034,0.40774947065591344
5.506057268722468,0.5405810605268645
5.539427312775331,0.6107946953451489
5.572797356828194,0.6110618531544397
5.606167400881057,0.5582582616566404
5.639537444933921,0.4818342018708703
5.672907488986785,0.4083404412922949
5.706277533039648,0.35032624322620937
5.739647577092511,0.3043787821018314
5.7730176211453745,0.25743481662363865
5.806387665198238,0.19626163335840963
5.839757709251102,0.11446153843896963
5.873127753303965,0.014155621374542442
5.9064977973568284,-0.09671984973879873
5.939867841409692,-0.20834116014186121
5.973237885462555,-0.31133920643640106
6.006607929515419,-0.396863475081413
6.039977973568282,-0.45577781373717635
6.073348017621146,-0.4790594366038386
6.106718061674009,-0.4604299745977825
6.140088105726872,-0.40033781150267106
6.173458149779736,-0.30891879016731116
6.2068281938325995,-0.2054752297263684
6.240198237885463,-0.11351795511957617
6.273568281938326,-0.0527803503441519
6.306938325991189,-0.0315309403843463
6.3403083700440535,-0.04282520486281765
6.373678414096917,-0.0667564814435164
6.40704845814978,-0.07806961635439735
6.440418502202643,-0.05606835156749053
6.4737885462555065,0.007249979313648737
6.507158590308371,0.10408328468163659
6.540528634361234,0.21383983690137953
6.573898678414097,0.3108831161625818
6.60726872246696,0.3737640994254611
6.640638766519824,0.39217847374632636
6.674008810572688,0.3688688121751206
6.707378854625551,0.31584810242190564
6.740748898678414,0.24688426265997443
6.774118942731278,0.17009702029054494
6.807488986784141,0.08474169227565222
6.840859030837005,-0.015694847983856466
6.874229074889868,-0.13546807340513115
6.9075991189427315,-0.26829264050276613
6.940969162995595,-0.39442332280395564
6.974339207048458,-0.48624763243019004
7.007709251101322,-0.52063055920695
7.041079295154185,-0.4916823592281495
7.074449339207049,-0.4163448484479689
7.107819383259912,-0.3284342055536097
7.141189427312775,-0.26306447531802196
7.174559471365639,-0.23919827260972656
7.207929515418503,-0.24987223130005212
7.241299559471366,-0.2659883799308643
7.274669603524229,-0.2521743512855948
7.308039647577092,-0.18618558666954388
7.3414096916299565,-0.07084900890467326
7.37477973568282,0.06854603721718204
7.408149779735683,0.2000700747712655
7.441519823788546,0.30468068174437163
7.47488986784141,0.38715061926246763
7.508259911894274,0.47090044578035734
7.541629955947137,0.5792204332389249
7.575,0.7145041221369606
7.608370044052863,0.8494075454392892
7.641740088105728,0.9372671942581717
7.675110132158591,0.9372426802432245
7.708480176211454,0.8397293827598661
7.741850220264317,0.6760310981551017
7.775220264317181,0.5045795846319779
7.808590308370045,0.37958415747092267
7.841960352422908,0.31894378007321766
7.875330396475771,0.2899706079502868
7.9087004405286345,0.22265132869370324
7.942070484581498,0.04551848556804436
7.975440528634362,-0.2733142083672591
8.008810572687224,-0.7010167216102349
8.042180616740088,-1.1446224054460254
8.075550660792953,-1.4847284471655753
8.108920704845815,-1.623445509112993
8.142290748898679,-1.5246557863215888
8.175660792951541,-1.2281643173104533
8.209030837004406,-0.8316427328994694
8.24240088105727,-0.4493641428769967
8.275770925110132,-0.16729728962914275
8.309140969162996,-0.015034893735873803
8.342511013215859,0.034094885400395965
8.375881057268723,0.03779743079946682
8.409251101321587,0.04967785448491296
8.44262114537445,0.09299335791660605
8.475991189427313,0.1555329600763823
8.509361233480176,0.20533296776964083
8.54273127753304,0.21573341592781806
8.576101321585904,0.18450224289395523
8.609471365638766,0.13678316476042854
8.64284140969163,0.11171791642991884
8.676211453744493,0.14157316514039095
8.709581497797357,0.23526894766788994
8.742951541850221,0.374474395477345
8.776321585903084,0.5228771158331738
8.809691629955948,0.642447522260081
8.84306167400881,0.7079721566383432
8.876431718061674,0.7134574826112651
8.909801762114538,0.6691522151693674
8.9431718061674,0.5927229204343505
8.976541850220265,0.500148627839272
9.009911894273127,0.40070528362973723
9.043281938325991,0.29731374839257835
9.076651982378856,0.19053150618604273
9.110022026431718,0.08301725712313991
9.143392070484582,-0.01832263104070426
9.176762114537445,-0.10368940285153412
9.210132158590309,-0.1644894379565018
9.243502202643173,-0.19794171988696244
9.276872246696035,-0.2095824198992924
9.3102422907489,-0.2120515181349804
9.343612334801762,-0.22057132546787941
9.376982378854626,-0.24749947066790226
9.41035242290749,-0.2989397589269529
9.443722466960352,-0.37499017102413557
9.477092511013216,-0.472539461715694
9.510462555066079,-0.587453924955982
9.543832599118943,-0.713258360514711
9.577202643171807,-0.8362197370520997
9.61057268722467,-0.9303677229030398
9.643942731277534,-0.9578077286780943
9.677312775330396,-0.8779473149353473
9.71068281938326,-0.664384621942386
9.744052863436124,-0.32274585863565847
9.777422907488987,0.09997849486097991
9.81079295154185,0.5218936219037664
9.844162995594713,0.8490839596647851
9.877533039647577,1.007387348530743
9.910903083700441,0.9701170272046962
9.944273127753304,0.7693109175825886
9.977643171806168,0.4847515811975522
10.01101321585903,0.21474268994287968
10.044383259911895,0.040706025108557906
10.077753303964759,0.00018960541696575522
10.111123348017621,0.07877982116129997
10.144493392070485,0.22280545464042412
10.177863436123348,0.36571900958818276
10.211233480176212,0.4557283246584913
10.244603524229076,0.4728215593724982
10.277973568281938,0.42915745194096255
10.311343612334802,0.35487068541339983
10.344713656387665,0.27781914648395695
10.378083700440529,0.20782928250475882
10.411453744493393,0.1329616208089659
10.444823788546255,0.028945086989515253
10.47819383259912,-0.12364800771868462
10.511563876651982,-0.32362160115609107
10.544933920704846,-0.5431073320263896
10.57830396475771,-0.7347857008989481
10.611674008810573,-0.849480423581756
10.645044052863437,-0.8562360386140255
10.678414096916299,-0.7557432014245181
10.711784140969163,-0.5809590354258902
10.745154185022027,-0.3845094144458151
10.77852422907489,-0.21830560858073472
10.811894273127754,-0.11415089586922923
10.845264317180618,-0.07350935204862473
10.87863436123348,-0.07038906822572139
10.912004405286345,-0.06542067036912597
10.945374449339207,-0.024401805857971096
10.978744493392071,0.06699658474520089
11.012114537444935,0.19841504228964063
11.045484581497798,0.3410891791417229
11.078854625550662,0.4613859476741124
11.112224669603524,0.5348337616775158
11.145594713656388,0.5543341706091955
11.178964757709252,0.529616868146086
11.212334801762115,0.47948196238758156
11.245704845814979,0.421673048470129
11.279074889867841,0.36574392535243305
11.312444933920705,0.31195651413808234
11.34581497797357,0.2555698227606035
11.379185022026432,0.1930078655138802
11.412555066079296,0.12584953999421353
11.445925110132158,0.06039500579957012
11.479295154185023,0.0034271438020538445
11.512665198237887,-0.04298235845439124
11.546035242290749,-0.08426263540717553
11.579405286343613,-0.13165921614857043
11.612775330396476,-0.19635062057396233
11.64614537444934,-0.28192703767667904
11.679515418502204,-0.3789885423567946
11.712885462555066,-0.46513338281130856
11.74625550660793,-0.511506108443851
11.779625550660793,-0.4941273305999264
11.812995594713657,-0.40566594626580577
11.846365638766521,-0.26236780729602305
11.879735682819383,-0.10218628344982353
11.913105726872248,0.02651207102063922
11.94647577092511,0.0822054626206262
11.979845814977974,0.04689612721119757
12.013215859030838,-0.06485040537599393
12.0465859030837,-0.2089704038240271
12.079955947136565,-0.326697849503607
12.113325991189427,-0.3656851190343972
12.146696035242291,-0.2991206173429482
12.180066079295155,-0.13515018299804146
12.213436123348018,0.08705186377243482
12.246806167400882,0.3125138799830103
12.280176211453744,0.4901740433436017
12.313546255506608,0.5886475890713347
12.346916299559473,0.6020482734936903
12.380286343612335,0.5450695462739366
12.413656387665199,0.4417855585932653
12.447026431718061,0.31505926198941936
12.480396475770926,0.18178494258156014
12.51376651982379,0.0546543148000533
12.547136563876652,-0.05332696977984662
12.580506607929516,-0.12692094034765808
12.613876651982379,-0.1524690109434429
12.647246696035243,-0.12604812246427893
12.680616740088107,-0.060680489678283
12.71398678414097,0.013389876866306397
12.747356828193833,0.05806723941831257
12.780726872246696,0.043499000093740345
12.81409691629956,-0.036807154742949134
12.847466960352424,-0.1603955716124522
12.880837004405286,-0.2841965835275119
12.91420704845815,-0.3638329340728095
12.947577092511013,-0.37443253821764383
12.980947136563877,-0.3218059774661881
13.014317180616741,-0.237538937759748
13.047687224669604,-0.16036425140679267
13.081057268722468,-0.11410552184950495
13.11442731277533,-0.09469682133007791
13.147797356828194,-0.07372786572010011
13.181167400881058,-0.016491686118659272
13.21453744493392,0.09581240714959646
13.247907488986785,0.2523769020047563
13.281277533039647,0.41528429755595314
13.314647577092511,0.5366931791398696
13.348017621145376,0.581130068429562
13.381387665198238,0.5409487729477673
13.414757709251102,0.43746069132098786
13.448127753303964,0.30852355722910996
13.481497797356829,0.19044115720359342
13.514867841409693,0.10391275339558992
13.548237885462555,0.04998669868370472
13.58160792951542,0.01550636671440074
13.614977973568282,-0.01734530201067089
13.648348017621146,-0.06338298064338883
13.68171806167401,-0.1313502151164113
13.715088105726872,-0.22401583180441742
13.748458149779736,-0.338213177740084
13.781828193832599,-0.4632628085849135
13.815198237885463,-0.5795895292315061
13.848568281938327,-0.6612160930759257
13.88193832599119,-0.68407784953449
13.915308370044054,-0.6375656592759767
13.948678414096916,-0.5327439200595905
13.98204845814978,-0.4008076786247061
14.015418502202644,-0.28036495805683664
14.048788546255507,-0.19921455378834607
14.08215859030837,-0.16065758459051904
14.115528634361233,-0.1426570007220735
14.148898678414097,-0.11090637046613917
14.182268722466961,-0.03845825135049818
14.215638766519824,0.0796081979746222
14.249008810572688,0.22507437483133264
14.28237885462555,0.36924581896324643
14.315748898678414,0.4909900440552382
14.349118942731279,0.588333419696355
14.382488986784141,0.6758655779593526
14.415859030837005,0.7693469648744764
14.449229074889868,0.8675094529530801
14.482599118942732,0.9436204686064064
14.515969162995596,0.9540405107970734
14.549339207048458,0.8606868300974702
14.582709251101322,0.6551875347342554
14.616079295154185,0.37029113996434126
14.649449339207049,0.07052455800079102
14.682819383259913,-0.17432091971866137
14.716189427312775,-0.31933191403201966
14.74955947136564,-0.36235398932956764
14.782929515418502,-0.3404775122129509
14.816299559471366,-0.3078601974672655
14.84966960352423,-0.307599382207353
14.883039647577093,-0.35277741733885914
14.916409691629957,-0.4256544112220443
14.94977973568282,-0.49334283533730494
14.983149779735683,-0.5295301370257687
15.016519823788547,-0.5296213822664796
15.04988986784141,-0.5115450660101919
15.083259911894274,-0.5029470943286866
15.116629955947138,-0.5226947875239866
15.15,-0.5670411992531466
15.183370044052865,-0.6078803499517182
15.216740088105727,-0.6042447135347485
15.250110132158591,-0.5216993390641286
15.283480176211455,-0.3504225342660717
15.316850220264318,-0.11313650350498487
15.350220264317182,0.1414588770812748
15.383590308370044,0.35737746906529566
15.416960352422908,0.4938956866169028
15.450330396475772,0.5415323128062686
15.483700440528635,0.5238861241875736
15.517070484581499,0.48442008093690236
15.550440528634361,0.4645249140845824
15.583810572687225,0.48338811566000106
15.61718061674009,0.5292224405600217
15.650550660792952,0.5658113147140506
15.683920704845816,0.5509753970081951
15.717290748898678,0.45807513929748495
15.750660792951543,0.2905414083129734
15.784030837004407,0.08292657644874549
15.817400881057269,-0.11180510943846282
15.850770925110133,-0.2430305068045615
15.884140969162996,-0.2823487876273924
15.91751101321586,-0.23440178888513344
15.950881057268724,-0.13447847030947097
15.984251101321586,-0.03420912422503059
16.01762114537445,0.018705625518316324
16.050991189427315,-0.0013143497724745208
16.084361233480177,-0.0885966884198761
16.11773127753304,-0.20944023703631123
16.151101321585905,-0.3161288884618485
16.184471365638768,-0.3659455633944004
16.21784140969163,-0.33744803970295706
16.251211453744492,-0.23747252603440355
16.284581497797358,-0.09632993613657606
16.31795154185022,0.04619316486736912
16.351321585903083,0.15744078084536597
16.38469162995595,0.2235850111591944
16.41806167400881,0.25146998665916176
16.451431718061674,0.2604929819845195
16.48480176211454,0.2692009275085896
16.518171806167402,0.2837346878188379
16.551541850220264,0.2941768555598384
16.584911894273127,0.28071201125315626
16.618281938325993,0.2262704306156968
16.651651982378855,0.1286501437664652
16.685022026431717,0.0050443269558602104
16.718392070484583,-0.11426900649212558
16.751762114537446,-0.20040615973741854
16.785132158590308,-0.24099668325863627
16.818502202643174,-0.2474252877898898
16.851872246696036,-0.2494320805190502
16.8852422907489,-0.27902341146324217
16.91861233480176,-0.35171844588997325
16.951982378854627,-0.45512924615885675
16.98535242290749,-0.551469678082019
17.01872246696035,-0.5935257227146323
17.052092511013218,-0.5466624095778229
17.08546255506608,-0.40627619532943476
17.118832599118942,-0.20228904981803708
17.152202643171808,0.011488507080874824
17.18557268722467,0.17829526596612927
17.218942731277533,0.26039889006109146
17.2523127753304,0.25277733790826296
17.28568281938326,0.18308258974386207
