Time (s),Filtered Signal
0.0,0.01653631731501828
0.033370535714285714,-0.04854819881474119
0.06674107142857143,-0.06637285635821352
0.10011160714285713,-0.006518416042949904
0.13348214285714285,0.13423516762373286
0.16685267857142858,0.33151330623104636
0.20022321428571427,0.5422996056794908
0.23359375,0.7190627255389406
0.2669642857142857,0.823765648171798
0.30033482142857143,0.8376294328438667
0.33370535714285715,0.7647567662709523
0.36707589285714287,0.6296649140447641
0.40044642857142854,0.46983929725022894
0.43381696428571426,0.3249554099427256
0.4671875,0.22510338963026472
0.5005580357142857,0.18127887720848881
0.5339285714285714,0.1817586401095187
0.5672991071428571,0.19668407880969085
0.6006696428571429,0.19004003631865624
0.6340401785714286,0.1345440908995049
0.6674107142857143,0.02295373908516667
0.70078125,-0.12943970707788036
0.7341517857142857,-0.2921244735090093
0.7675223214285715,-0.43253150665916595
0.8008928571428571,-0.5283153324865629
0.8342633928571428,-0.5730626785607489
0.8676339285714285,-0.5738765542446116
0.9010044642857142,-0.5438929447315621
0.934375,-0.4950788808645972
0.9677455357142857,-0.43547963281425206
1.0011160714285714,-0.3715181220496656
1.0344866071428571,-0.3124072852001788
1.0678571428571428,-0.27230321537018215
1.1012276785714286,-0.26715524261111584
1.1345982142857143,-0.30646938636649085
1.16796875,-0.3837209296362704
1.2013392857142857,-0.4711254512764593
1.2347098214285714,-0.5236001784599935
1.2680803571428572,-0.49287467482239694
1.3014508928571429,-0.3473214984230089
1.3348214285714286,-0.08894746881501779
1.3681919642857143,0.24120316226591504
1.4015625,0.573424352039844
1.4349330357142858,0.832349841996087
1.4683035714285715,0.9631464205752234
1.5016741071428572,0.9497181576266526
1.535044642857143,0.8174965773513374
1.5684151785714286,0.6205744302608794
1.6017857142857141,0.41977408712090797
1.6351562499999999,0.2614550672656323
1.6685267857142856,0.1653350112795584
1.7018973214285713,0.12460218976567425
1.735267857142857,0.11585052264540133
1.7686383928571427,0.1125877780693303
1.8020089285714285,0.09576437561335305
1.8353794642857142,0.05765128284681989
1.86875,-0.00041904135052263976
1.9021205357142856,-0.07288282505497282
1.9354910714285714,-0.15344920369832868
1.968861607142857,-0.23556842647804413
2.002232142857143,-0.3110788179693679
2.0356026785714287,-0.3697908652312003
2.0689732142857142,-0.40188480441125896
2.10234375,-0.4023947893164085
2.1357142857142857,-0.3747147971885141
2.169084821428571,-0.32990879139454915
2.202455357142857,-0.28107398882233203
2.2358258928571426,-0.23555753083778735
2.2691964285714286,-0.18992501373335782
2.302566964285714,-0.13151214960124263
2.3359375,-0.04659245419003928
2.3693080357142855,0.06900082372305541
2.4026785714285714,0.20291258771598294
2.436049107142857,0.32754304401803075
2.469419642857143,0.4099284325709766
2.5027901785714284,0.42595799431462417
2.5361607142857143,0.3720586756168225
2.56953125,0.2683080441130969
2.6029017857142858,0.15087985498306353
2.6362723214285713,0.05689803512290848
2.669642857142857,0.008608826460193442
2.7030133928571427,0.004303493287344348
2.7363839285714286,0.02029205031316187
2.769754464285714,0.02297349837899498
2.803125,-0.014689126348547762
2.8364955357142856,-0.09986873287440931
2.8698660714285715,-0.21559978980507669
2.903236607142857,-0.3271337914718716
2.936607142857143,-0.3959371021168648
2.9699776785714285,-0.3953822790427522
3.0033482142857144,-0.3217862109841385
3.03671875,-0.19645861183946745
3.070089285714286,-0.057990989271290386
3.1034598214285714,0.05210045233939219
3.1368303571428573,0.1045177104869062
3.170200892857143,0.09191226268199014
3.2035714285714283,0.029461142603040252
3.2369419642857142,-0.05323940781587033
3.2703124999999997,-0.12461951962330914
3.3036830357142857,-0.16205650347290906
3.337053571428571,-0.15690214904305352
3.370424107142857,-0.11272427508451065
3.4037946428571426,-0.039309298110971044
3.4371651785714286,0.05340556150559518
3.470535714285714,0.15810844206506153
3.50390625,0.26874048222001984
3.5372767857142855,0.3767974133289141
3.5706473214285714,0.46853540483012546
3.604017857142857,0.5257916254586127
3.637388392857143,0.5310500496210553
3.6707589285714284,0.47486767060110596
3.7041294642857143,0.36213193218063977
3.7375,0.2137119901051961
3.7708705357142858,0.061901261082951235
3.8042410714285713,-0.05922998758422875
3.837611607142857,-0.12512229699451632
3.8709821428571427,-0.12931286343156673
3.9043526785714286,-0.08588113454295396
3.937723214285714,-0.024616859952734473
3.97109375,0.019448321228837495
4.004464285714286,0.01833955448359795
4.0378348214285715,-0.03922973505264689
4.0712053571428575,-0.14434368055174496
4.1045758928571425,-0.2716046909493245
4.1379464285714285,-0.3885191045665193
4.171316964285714,-0.46692474959147817
4.2046875,-0.4921475264743609
4.238058035714285,-0.466538838192777
4.271428571428571,-0.40637458517311104
4.304799107142857,-0.33386989799245925
4.338169642857142,-0.2680207241501481
4.371540178571428,-0.21817286012853448
4.404910714285714,-0.18260938799465354
4.43828125,-0.15197178484105975
4.471651785714285,-0.11528066583411851
4.505022321428571,-0.0655724400987394
4.538392857142857,-0.0027985025140900466
4.571763392857143,0.0668863912108525
4.605133928571428,0.1347042261652556
4.638504464285714,0.19380207233601504
4.671875,0.2425433065444548
4.705245535714286,0.28493768007359505
4.738616071428571,0.3279475877853587
4.771986607142857,0.3769023451090467
4.805357142857143,0.4312116336080522
4.838727678571429,0.4825415098031287
4.872098214285714,0.516614345948572
4.90546875,0.5182416419344765
4.938839285714286,0.4777055328711141
4.972209821428572,0.3957637465887108
5.005580357142857,0.2847974009228996
5.038950892857143,0.16505600656270333
5.072321428571429,0.05716093751586444
5.105691964285715,-0.025955048418847392
5.1390625,-0.08381065762473726
5.172433035714286,-0.12726998518326696
5.2058035714285715,-0.1718458174810295
5.2391741071428575,-0.22867640161403968
5.2725446428571425,-0.2978720785119446
5.3059151785714285,-0.367856979086588
5.339285714285714,-0.42118413205821176
5.3726562499999995,-0.4437392326699639
5.406026785714285,-0.43226940401166924
5.439397321428571,-0.39597345121708205
5.472767857142857,-0.35113107333166454
5.506138392857142,-0.31169616895430036
5.539508928571428,-0.2812365487548404
5.572879464285714,-0.2511119502033412
5.60625,-0.20644973748332396
5.639620535714285,-0.13698501696365004
5.672991071428571,-0.04662449786400523
5.706361607142857,0.04438704378957899
5.739732142857143,0.10724812033404578
5.773102678571428,0.11940524720264527
5.806473214285714,0.07898668284874612
5.83984375,0.010657498173386886
5.873214285714286,-0.04162375152294353
5.906584821428571,-0.03290253449259795
5.939955357142857,0.06152103693204363
5.973325892857143,0.2321930901821817
6.006696428571429,0.43620262875150434
6.040066964285714,0.612806554755096
6.0734375,0.7070928593232986
6.106808035714286,0.6909998825606253
6.140178571428572,0.5725431434678523
6.173549107142857,0.3900159765021253
6.206919642857143,0.19503808318992644
6.240290178571429,0.03297564025781236
6.273660714285715,-0.07070913828004753
6.30703125,-0.11377007182138005
6.340401785714286,-0.11141387772443258
6.3737723214285715,-0.08666872793016434
6.407142857142857,-0.06240498150643067
6.4405133928571425,-0.05767024503469468
6.4738839285714285,-0.08725624629198231
6.507254464285714,-0.16129640937830586
6.5406249999999995,-0.2824005318186903
6.573995535714285,-0.4406795430343599
6.607366071428571,-0.6099797048864193
6.640736607142857,-0.7496121034839293
6.674107142857142,-0.8138487488962072
6.707477678571428,-0.7672695341929958
6.740848214285714,-0.5999775384003238
6.77421875,-0.3353081276242215
6.807589285714285,-0.02520738632440382
6.840959821428571,0.2660062419570839
6.874330357142857,0.4830674268140068
6.907700892857143,0.5971789630905228
6.941071428571428,0.6120255607360404
6.974441964285714,0.5565259933849982
7.0078125,0.4688284856660931
7.041183035714286,0.3799146306403081
7.074553571428571,0.30455996052786577
7.107924107142857,0.24276529044187614
7.141294642857143,0.18877528681267824
7.174665178571429,0.1408325170344498
7.208035714285714,0.10507970923444475
7.24140625,0.09122527158102045
7.274776785714286,0.10310202454610737
7.308147321428572,0.1307250471632476
7.341517857142857,0.14984520205563218
7.374888392857143,0.1307232378703899
7.408258928571429,0.05243380729692239
7.441629464285715,-0.08449176778754593
7.475,-0.25397134643182007
7.508370535714286,-0.4117982483670052
7.5417410714285715,-0.5120616815554797
7.575111607142857,-0.5256861548421516
7.6084821428571425,-0.45306265416003366
7.6418526785714285,-0.3252082123382318
7.675223214285714,-0.1927004453286654
7.7085937499999995,-0.10659939818743926
7.741964285714285,-0.09866640329417739
7.775334821428571,-0.16836802255256317
7.808705357142857,-0.28156801225659717
7.842075892857142,-0.381558150072802
7.875446428571428,-0.4086911495495648
7.908816964285714,-0.32181512538600693
7.9421875,-0.11398100675061959
7.975558035714285,0.18318314844925138
8.008928571428571,0.5080205028069547
8.042299107142856,0.7872233893633698
8.075669642857143,0.957475416658976
8.109040178571428,0.9829866309869142
8.142410714285715,0.8636208266925893
8.17578125,0.6321055656908089
8.209151785714285,0.34255455483422
8.242522321428572,0.05483665930336396
8.275892857142857,-0.18026498792984355
8.309263392857142,-0.3313213155384566
8.342633928571429,-0.39019225653416034
8.376004464285714,-0.3699424039405626
8.409375,-0.2984705021176193
8.442745535714286,-0.21001404150224395
8.47611607142857,-0.13638328080848958
8.509486607142858,-0.09938334378774724
8.542857142857143,-0.10582521559246465
8.576227678571428,-0.146560762531471
8.609598214285715,-0.20041798856325324
8.64296875,-0.24238737047190814
8.676339285714285,-0.2534129127743469
8.709709821428572,-0.22785804433828194
8.743080357142857,-0.1752210000654411
8.776450892857143,-0.11509829795859937
8.809821428571428,-0.06766164268350862
8.843191964285714,-0.04425179615642579
8.8765625,-0.04266776667817778
8.909933035714285,-0.0492045611525271
8.94330357142857,-0.04587895463647041
8.976674107142857,-0.01875223321475937
9.010044642857142,0.036701924950598985
9.04341517857143,0.11489997591146643
9.076785714285714,0.20301320883558477
9.11015625,0.2849079092715924
9.143526785714286,0.34435111087103404
9.176897321428571,0.3673873383736727
9.210267857142856,0.3448834552640645
9.243638392857143,0.27576999260991714
9.277008928571428,0.16995015561205878
9.310379464285715,0.0486432068741299
9.34375,-0.05966986153196542
9.377120535714285,-0.12744774307552917
9.410491071428572,-0.13762878514816707
9.443861607142857,-0.09034278111087284
9.477232142857142,-0.003494559065271488
9.510602678571429,0.09329537627678522
9.543973214285714,0.16870370616493927
9.57734375,0.19919265525026147
9.610714285714286,0.1741804966614389
9.64408482142857,0.0958196928197402
9.677455357142858,-0.024681151633696066
9.710825892857143,-0.17089130697750823
9.744196428571428,-0.3229321257101464
9.777566964285715,-0.45758624172505796
9.8109375,-0.5492615542980178
9.844308035714285,-0.5742829247631849
9.877678571428572,-0.518597296840265
9.911049107142857,-0.38577077767679213
9.944419642857143,-0.20039573604413322
9.977790178571428,-0.0032601377799687256
10.011160714285714,0.1614072300868015
10.04453125,0.2617230544627752
10.077901785714285,0.289669939760586
10.11127232142857,0.26256051134733566
10.144642857142857,0.21353154334298433
10.178013392857142,0.17575341410503315
10.21138392857143,0.16816862642384797
10.244754464285714,0.18945404892570325
10.278125,0.22225574673662676
10.311495535714286,0.2443229679421276
10.344866071428571,0.24005552605713726
10.378236607142856,0.20673747908177076
10.411607142857143,0.15350945132423677
10.444977678571428,0.0953266374087131
10.478348214285715,0.046184317051595244
10.51171875,0.01492164309806358
10.545089285714285,0.004221196803395949
10.578459821428572,0.011263009434786092
10.611830357142857,0.028331598465577736
10.645200892857142,0.043191959514271475
10.678571428571429,0.04059572342641888
10.711941964285714,0.006288286059993461
10.745312499999999,-0.06687625138730437
10.778683035714286,-0.17336858078337672
10.81205357142857,-0.29354025991983607
10.845424107142858,-0.39841210836204566
10.878794642857143,-0.4595596595966951
10.912165178571428,-0.4598627329113255
10.945535714285715,-0.3999413120076388
10.97890625,-0.2970613635133048
11.012276785714285,-0.17714002810206653
11.045647321428572,-0.06402027917583142
11.079017857142857,0.028602568058131335
11.112388392857143,0.09897878441220531
11.145758928571428,0.15284379053387218
11.179129464285714,0.1961137317264954
11.2125,0.22941015842367127
11.245870535714285,0.24760693147986446
11.27924107142857,0.24433969245964116
11.312611607142857,0.21832119274699735
11.345982142857142,0.1771622145059297
11.37935267857143,0.13587859732264043
11.412723214285714,0.11051722650847215
11.44609375,0.1104139341888499
11.479464285714286,0.13357855272061142
11.512834821428571,0.16789488767766098
11.546205357142856,0.1973048590861727
11.579575892857143,0.20915240623335937
11.612946428571428,0.19834068257644172
11.646316964285715,0.16625786917325916
11.6796875,0.1160452078836007
11.713058035714285,0.048299434508232666
11.746428571428572,-0.0390380480078773
11.779799107142857,-0.14594607314986222
11.813169642857142,-0.26392025324551843
11.846540178571429,-0.37299609882296003
11.879910714285714,-0.44576836303994605
11.913281249999999,-0.45774751202886543
11.946651785714286,-0.39909168108166415
11.98002232142857,-0.2812134758054815
12.013392857142858,-0.13413944151255108
12.046763392857143,0.004544700082827282
12.080133928571428,0.10378293422349959
12.113504464285715,0.14934439948464082
12.146875,0.1458616026770021
12.180245535714285,0.11073471689340066
12.213616071428572,0.06409070984819527
12.246986607142857,0.020354600682107284
12.280357142857143,-0.014760536254168564
12.313727678571428,-0.04156488250257439
12.347098214285714,-0.06090038109982981
12.38046875,-0.06990608755065028
12.413839285714285,-0.06185379369200508
12.44720982142857,-0.030123604855634437
12.480580357142857,0.026216199385618446
12.513950892857142,0.09876755908145493
12.54732142857143,0.1705577411633334
12.580691964285714,0.22120446195350274
12.6140625,0.23417616761211454
12.647433035714286,0.2029112617112501
12.680803571428571,0.13336244068267583
12.714174107142856,0.04231514183829464
12.747544642857143,-0.047550626227790854
12.780915178571428,-0.11411165450258005
12.814285714285713,-0.1419878029863897
12.84765625,-0.12690999119706192
12.881026785714285,-0.076996016046378
12.914397321428572,-0.010234169394224998
12.947767857142857,0.051402668282234366
12.981138392857142,0.08936433703501663
13.014508928571429,0.09464150955252223
13.047879464285714,0.07004194422404562
13.081249999999999,0.027684287533269923
13.114620535714286,-0.016963675735395485
13.14799107142857,-0.05144994201192643
13.181361607142858,-0.06990791792925095
13.214732142857143,-0.07230714543677812
13.248102678571428,-0.060524040991141344
13.281473214285715,-0.03443665974334045
13.31484375,0.008715591629185795
13.348214285714285,0.07071068332999442
13.381584821428572,0.1466835212416593
13.414955357142857,0.22169038338245606
13.448325892857143,0.27306502659744714
13.481696428571428,0.27886248524990365
13.515066964285714,0.22872089607702378
13.5484375,0.13124569095058308
13.581808035714285,0.013037243048009295
13.61517857142857,-0.09155525376081475
13.648549107142857,-0.15589330224285838
13.681919642857142,-0.17425726053545992
13.71529017857143,-0.16551412043302646
13.748660714285714,-0.1641003737936949
13.78203125,-0.20162737571686024
13.815401785714286,-0.2879777642869701
13.848772321428571,-0.40218201435248413
13.882142857142856,-0.4992141510709794
13.915513392857143,-0.5307050098397134
13.948883928571428,-0.4696137567883521
13.982254464285713,-0.32577786317980967
14.015625,-0.1433199323076055
14.048995535714285,0.019610884241271664
14.082366071428572,0.11853415956394701
14.115736607142857,0.14322338300605175
14.149107142857142,0.12039921929817964
14.182477678571429,0.09748261727354629
14.215848214285714,0.11647559076931152
14.249218749999999,0.19190237730847423
14.282589285714286,0.3039520363301423
14.31595982142857,0.4094837069319515
14.349330357142858,0.4642888299398466
14.382700892857143,0.44485147068755543
14.416071428571428,0.35907075208711203
14.449441964285715,0.24170920433148071
14.4828125,0.13796626262875084
14.516183035714285,0.08366240031675239
14.549553571428572,0.09104221009438841
14.582924107142857,0.14565560290813676
14.616294642857143,0.2143716738001512
14.649665178571428,0.25989943852574116
14.683035714285714,0.2550848662631685
14.71640625,0.19130112108010927
14.749776785714285,0.07865421337238004
14.78314732142857,-0.06033136748786623
14.816517857142857,-0.19940649187107765
14.849888392857142,-0.3156252492532265
14.88325892857143,-0.39286460274755663
14.916629464285714,-0.4225843749834795
14.95,-0.4037710801775119
14.983370535714286,-0.34321918079331065
15.016741071428571,-0.2555029121769464
15.050111607142856,-0.1609116783745561
15.083482142857143,-0.08038556300558448
15.116852678571428,-0.028713803624368192
15.150223214285713,-0.009286557998011799
15.18359375,-0.013769172002394482
15.216964285714285,-0.027690335898877778
15.250334821428572,-0.03935059826853783
15.283705357142857,-0.04696320851930101
15.317075892857142,-0.059379729727888096
15.350446428571429,-0.0892207290451682
15.383816964285714,-0.14185421867830103
15.417187499999999,-0.20667013468734535
15.450558035714286,-0.25652048331485
15.48392857142857,-0.25711916100104276
15.517299107142858,-0.18276841168324048
15.550669642857143,-0.03097904211309826
15.584040178571428,0.1715011960409324
15.617410714285715,0.3749540071724433
15.65078125,0.5232814530638101
15.684151785714285,0.574225625987392
15.717522321428572,0.5149187620292921
15.750892857142857,0.36648585378098464
15.784263392857143,0.17593199739759605
15.817633928571428,-0.0014102684129730669
15.851004464285714,-0.12192238540338368
15.884375,-0.1682828717431896
15.917745535714285,-0.15279022889220226
15.95111607142857,-0.10830319185791808
15.984486607142857,-0.07113773318349693
16.017857142857142,-0.06403128506542455
16.05122767857143,-0.0872744356672624
16.084598214285712,-0.12195363232098687
16.11796875,-0.14290763042257862
16.151339285714286,-0.13390095339316765
16.18470982142857,-0.09655615565144246
16.218080357142856,-0.048325563862650786
16.251450892857143,-0.011078084160101734
16.28482142857143,0.0028453895108423275
16.318191964285713,-0.0010745451138046882
16.3515625,-0.0017899322529205178
16.384933035714287,0.025604447157461796
16.41830357142857,0.09510690545204406
16.451674107142857,0.2000802762462488
16.485044642857144,0.3138523818079045
16.518415178571427,0.400340413375619
16.551785714285714,0.42919647652261766
16.58515625,0.38799140168777796
16.618526785714284,0.2860170052461902
16.65189732142857,0.14891410140450442
16.685267857142858,0.007798739455614221
16.71863839285714,-0.11146332771905115
16.752008928571428,-0.19438752718022195
16.785379464285715,-0.23820538797582458
16.81875,-0.24835281382735588
16.852120535714285,-0.2343296634181272
16.88549107142857,-0.20714605619139642
16.91886160714286,-0.17841388014535128
16.95223214285714,-0.1595647385992289
16.98560267857143,-0.1597816229262132
17.018973214285715,-0.18277585426766385
17.05234375,-0.22420638603579457
17.085714285714285,-0.27193651055847967
17.119084821428572,-0.30998524866849786
17.152455357142856,-0.3247467668910776
17.185825892857142,-0.3103573677149202
17.21919642857143,-0.27024028338877315
17.252566964285712,-0.21393573964681925
17.2859375,-0.15109757708850569
17.319308035714286,-0.08623843760276151
17.35267857142857,-0.0173248895433448
17.386049107142856,0.061017828096866206
17.419419642857143,0.15164042850279327
17.45279017857143,0.24976657654521248
17.486160714285713,0.3416293632109753
17.51953125,0.4079284985902867
17.552901785714287,0.43092077345467805
17.58627232142857,0.40228500893649044
