Frequency (Hz),Amplitude
0.0,3.203086329754411
0.019801980198019802,3.2015101483566566
0.039603960396039604,3.196783160371642
0.0594059405940594,3.1889100329420397
0.07920792079207921,3.177898539701003
0.09900990099009901,3.16375955337421
0.1188118811881188,3.1465070354403997
0.13861386138613863,3.1261580228687254
0.15841584158415842,3.1027326119566503
0.1782178217821782,3.07625393929814
0.19801980198019803,3.04674815991854
0.21782178217821782,3.0142444226196714
0.2376237623762376,2.978774842586759
0.25742574257425743,2.9403744713178988
0.27722772277227725,2.8990812639476635
0.297029702970297,2.8549360440486673
0.31683168316831684,2.8079824660101655
0.33663366336633666,2.7582669751108546
0.3564356435643564,2.7058387654254896
0.37623762376237624,2.6507497357331395
0.39603960396039606,2.5930544436303355
0.4158415841584158,2.532810058098222
0.43564356435643564,2.4700763108320993
0.45544554455445546,2.4049154467201066
0.4752475247524752,2.3373921739619403
0.495049504950495,2.2675736144590455
0.5148514851485149,2.1955292553000847
0.5346534653465347,2.121330902431013
0.5544554455445545,2.045052637972369
0.5742574257425742,1.9667707831768984
0.594059405940594,1.886563869787747
0.613861386138614,1.8045126236835027
0.6336633663366337,1.7206999663803673
0.6534653465346534,1.6352110425271442
0.6732673267326733,1.5481332855224146
0.6930693069306931,1.4595565397445438
0.7128712871287128,1.3695732682838144
0.7326732673267327,1.278278892561148
0.7524752475247525,1.1857723406237213
0.7722772277227723,1.092156935731863
0.7920792079207921,0.9975418599618205
0.8118811881188118,0.9020446311609572
0.8316831683168316,0.8057954572936251
0.8514851485148516,0.7089452847148264
0.8712871287128713,0.6116816701193164
0.891089108910891,0.5142628212279922
0.9108910891089109,0.4170991273390405
0.9306930693069307,0.3209799078819827
0.9504950495049505,0.22785051802916667
0.9702970297029703,0.14435100703685336
0.99009900990099,0.09957677158857346
1.00990099009901,0.1385453282282543
1.0297029702970297,0.22054357955640133
1.0495049504950495,0.3132643244367339
1.0693069306930694,0.4092506028559437
1.0891089108910892,0.5063811504784392
1.108910891089109,0.6038151063728303
1.1287128712871286,0.701122981844669
1.1485148514851484,0.798038204319647
1.1683168316831685,0.8943690619619644
1.188118811881188,0.9899623221667077
1.2079207920792079,1.0846864010996644
1.227722772277228,1.1784228807961574
1.2475247524752475,1.2710619411433712
1.2673267326732673,1.3624997707700097
1.2871287128712872,1.4526370413129064
1.3069306930693068,1.5413779828334897
1.3267326732673268,1.6286298138718904
1.3465346534653466,1.7143023883961128
1.3663366336633662,1.7983079795238617
1.3861386138613863,1.8805611517479326
1.405940594059406,1.960978691672919
1.4257425742574257,2.039479578106992
1.4455445544554455,2.1159849789667957
1.4653465346534653,2.1904182665973804
1.4851485148514851,2.262705045766435
1.504950495049505,2.3327731903336084
1.5247524752475248,2.400552885758264
1.5445544554455446,2.465976675400044
1.5643564356435644,2.528979509112916
1.5841584158415842,2.589498793017266
1.6039603960396038,2.64747443960752
1.6237623762376237,2.702848917550094
1.6435643564356437,2.755567300670477
1.6633663366336633,2.8055773157351562
1.683168316831683,2.8528293887139893
1.7029702970297032,2.8972766892694084
1.7227722772277227,2.938875173265547
1.7425742574257426,2.97758362312667
1.7623762376237624,3.0133636859027546
1.782178217821782,3.046179908923199
1.801980198019802,3.0759997729379758
1.8217821782178218,3.1027937226607585
1.8415841584158414,3.1265351946414013
1.8613861386138615,3.147200642405773
1.881188118811881,3.1647695588103892
1.900990099009901,3.17922449556735
1.920792079207921,3.1905510799023697
1.9405940594059405,3.1987380283153075
1.9603960396039604,3.203777157418653
1.98019801980198,3.2056633918350643
2.0,3.2043947691405683
2.01980198019802,3.199972441845066
2.0396039603960396,3.192400676407031
2.0594059405940595,3.181686849284342
2.0792079207920793,3.167841440028083
2.099009900990099,3.1508780214316507
2.118811881188119,3.1308132467526493
2.1386138613861387,3.107666834030801
2.1584158415841586,3.0814615475311715
2.1782178217821784,3.0522231763484813
2.1980198019801978,3.019980510215551
2.217821782178218,2.984765312567032
2.237623762376238,2.9466122909186576
2.257425742574257,2.9055590646330254
2.2772277227722775,2.8616461301555165
2.297029702970297,2.81491682381861
2.3168316831683167,2.765417282331659
2.336633663366337,2.7131964010949385
2.3564356435643563,2.6583057905053993
2.376237623762376,2.6007997304565618
2.3960396039603964,2.5407351232810442
2.4158415841584158,2.4781714454427965
2.4356435643564356,2.4131706983644383
2.455445544554456,2.345797358878435
2.4752475247524752,2.276118329930444
2.495049504950495,2.204202892354013
2.514851485148515,2.130122658798906
2.5346534653465347,2.0539515312648726
2.5544554455445545,1.9757656642173778
2.5742574257425743,1.8956434360188341
2.594059405940594,1.8136654325199866
2.6138613861386135,1.7299144483133224
2.633663366336634,1.6444755136727647
2.6534653465346536,1.5574359591218945
2.673267326732673,1.4688855358016317
2.6930693069306932,1.3789166199672254
2.712871287128713,1.287624546992544
2.7326732673267324,1.1951081498027103
2.7524752475247527,1.1014706297508388
2.7722772277227725,1.0068209874319216
2.792079207920792,0.9112764364980215
2.811881188118812,0.814966630291897
2.8316831683168315,0.7180414355049308
2.8514851485148514,0.6206861665482742
2.8712871287128716,0.5231539938266381
2.891089108910891,0.42584272482829283
2.910891089108911,0.32950513981219226
2.9306930693069306,0.23595423569069324
2.9504950495049505,0.15118056041565292
2.9702970297029703,0.10123881658939665
2.99009900990099,0.13382151271400725
3.00990099009901,0.21402112206901328
3.0297029702970297,0.30632156672091193
3.0495049504950495,0.40225062111053705
3.0693069306930694,0.49945793886584694
3.089108910891089,0.5970331589144847
3.108910891089109,0.6945200709745872
3.128712871287129,0.791639927812537
3.148514851485148,0.8881947129103163
3.1683168316831685,0.9840275737191815
3.1881188118811883,1.0790046559338677
3.2079207920792077,1.1730060006147625
3.227722772277228,1.2659206640748126
3.2475247524752473,1.3576439610512079
3.267326732673267,1.448075843867652
3.2871287128712874,1.5371199214584443
3.3069306930693068,1.624682854710955
3.3267326732673266,1.710673981369689
3.346534653465347,1.7950050853894113
3.366336633663366,1.8775902595961387
3.386138613861386,1.95834582995304
3.4059405940594063,2.0371903212247124
3.4257425742574257,2.114044450835452
3.4455445544554455,2.1888311420953244
3.4653465346534653,2.2614755507705975
3.485148514851485,2.331905100808694
3.504950495049505,2.4000495262502235
3.5247524752475248,2.465840917191141
3.5445544554455446,2.529213768230983
3.564356435643564,2.5901050282451106
3.5841584158415842,2.648454150604476
3.603960396039604,2.7042031431724456
3.6237623762376234,2.7572966175587195
3.6435643564356437,2.807681837221741
3.6633663366336635,2.8553087640941173
3.683168316831683,2.9001301034690425
3.702970297029703,2.942101346933912
3.722772277227723,2.98118081317521
3.7425742574257423,3.0173296865082566
3.762376237623762,3.0505120530090815
3.7821782178217824,3.0806949341449092
3.801980198019802,3.107848317815366
3.8217821782178216,3.1319451867294754
3.841584158415842,3.1529615440549534
3.8613861386138613,3.170876436285386
3.881188118811881,3.1856719732796286
3.9009900990099013,3.1973333454348554
3.9207920792079207,3.2058488379616565
3.9405940594059405,3.2112098422355833
3.96039603960396,3.2134108642054318
3.98019801980198,3.212449529843925
4.0,3.208326587631855
4.01980198019802,3.201045908071782
4.03960396039604,3.1906144802326097
4.0594059405940595,3.177042405331519
4.079207920792079,3.1603428873648185
4.099009900990099,3.1405322208050217
4.118811881188119,3.1176297753869466
4.138613861386139,3.091657978011866
4.158415841584159,3.0626422918053167
4.178217821782178,3.0306111923716
4.198019801980198,2.995596141296024
4.217821782178218,2.9576315569555183
4.237623762376238,2.9167547827087836
4.257425742574258,2.873006052550186
4.2772277227722775,2.8264284543265514
4.297029702970297,2.777067890634704
4.316831683168317,2.724973037540272
4.336633663366336,2.6701953012867388
4.356435643564357,2.6127887731997905
4.376237623762377,2.55281018303817
4.3960396039603955,2.4903188511021774
4.415841584158416,2.4253766394898366
4.435643564356436,2.3580479029956622
4.455445544554455,2.288399440288044
4.475247524752476,2.216500446194054
4.4950495049504955,2.142422466186172
4.514851485148514,2.0662393545381548
4.534653465346535,1.9880272381454027
4.554455445544555,1.9078644887672267
4.574257425742574,1.8258317075639714
4.594059405940594,1.7420117274645328
4.613861386138614,1.6564896414251813
4.633663366336633,1.5693528685560933
4.653465346534653,1.4806912763043503
4.673267326732674,1.390597386990072
4.693069306930693,1.2991667139113299
4.712871287128713,1.2064983014660446
4.732673267326733,1.1126955960978548
4.752475247524752,1.0178678725897363
4.772277227722772,0.9221326314626936
4.792079207920793,0.8256197788221161
4.811881188118812,0.7284792738308075
4.8316831683168315,0.6308960180030189
4.851485148514852,0.533121263232011
4.871287128712871,0.4355461886250523
4.891089108910891,0.3389003041220072
4.910891089108912,0.244901403620979
4.930693069306931,0.15903250357279577
4.9504950495049505,0.10458899874693663
4.97029702970297,0.1303101225883157
4.99009900990099,0.20832210478520594
5.00990099009901,0.30015308699584414
5.02970297029703,0.39608469601900476
5.0495049504950495,0.49347095097615673
5.069306930693069,0.5913095843063276
5.089108910891089,0.689108282493275
5.108910891089109,0.7865715051973408
5.128712871287129,0.8834923650870451
5.148514851485149,0.9797088216515835
5.1683168316831685,1.0750837142091456
5.188118811881188,1.1694948117905068
5.207920792079208,1.2628295011985224
5.227722772277227,1.3549817953425416
5.247524752475248,1.445850577709863
5.267326732673268,1.5353385406431517
5.2871287128712865,1.6233515304476116
5.306930693069307,1.7097981400537212
5.326732673267327,1.794589457131621
5.346534653465346,1.8776389124573543
5.366336633663367,1.9588621943904727
5.3861386138613865,2.0381772077481024
5.405940594059405,2.1155040629123696
5.425742574257426,2.190765085720927
5.445544554455446,2.263884841702037
5.465346534653465,2.3347901701825755
5.485148514851486,2.403410225107123
5.504950495049505,2.4696765202944833
5.524752475247524,2.5335229774701404
5.544554455445545,2.594885975842184
5.564356435643565,2.6537044022923895
5.584158415841584,2.7099197014737726
5.603960396039604,2.7634759252657575
5.623762376237624,2.81431978115632
5.643564356435643,2.8624006792089336
5.663366336633663,2.9076707773390025
5.683168316831684,2.95008502467579
5.702970297029703,2.9896012028256616
5.7227722772277225,3.026179964883619
5.742574257425743,3.0597848720651575
5.762376237623762,3.090382427850361
5.782178217821782,3.1179421095488427
5.801980198019803,3.1424363972076383
5.821782178217822,3.163840799795649
5.841584158415841,3.182133878608511
5.861386138613861,3.19729726784587
5.881188118811881,3.2093156923211765
5.900990099009901,3.2181769822709017
5.920792079207921,3.2238720852362386
5.9405940594059405,3.2263950749965997
5.96039603960396,3.225743157539594
5.98019801980198,3.221916674057692
6.0,3.214919100967081
6.01980198019802,3.204757046949265
6.03960396039604,3.191440247021537
6.0594059405940595,3.1749815536475476
6.079207920792079,3.15539692490497
6.099009900990099,3.1327054097329468
6.118811881188119,3.1069291302884503
6.138613861386139,3.078093261447426
6.158415841584159,3.046226007494027
6.178217821782178,3.0113585760497603
6.198019801980198,2.973525149304077
6.217821782178218,2.9327628526188376
6.237623762376237,2.889111720592453
6.257425742574258,2.842614660685167
6.2772277227722775,2.793317414525971
6.297029702970296,2.741268517045253
6.316831683168317,2.686519253606766
6.336633663366337,2.6291236153495583
6.356435643564356,2.569138252998428
6.376237623762377,2.506622429463382
6.396039603960396,2.4416379716299024
6.415841584158415,2.3742492218503077
6.435643564356436,2.30452298979181
6.455445544554456,2.23252850549582
6.475247524752475,2.1583373747763797
6.495049504950495,2.0820235384690444
6.514851485148515,2.0036632375841115
6.534653465346534,1.9233349872000036
6.554455445544554,1.841119563075332
6.574257425742575,1.7571000066591012
6.594059405940594,1.671361656757057
6.6138613861386135,1.5839922201031114
6.633663366336634,1.4950818994025457
6.653465346534653,1.4047236076694356
6.673267326732673,1.3130133148002456
6.693069306930694,1.2200506018149517
6.712871287128713,1.1259395508309253
6.732673267326732,1.0307901966680693
6.752475247524753,0.9347209565391658
6.772277227722772,0.8378628462458529
6.792079207920792,0.7403671512639342
6.811881188118813,0.6424202597253982
6.8316831683168315,0.5442746773008
6.851485148514851,0.4463208329390631
6.871287128712871,0.349277530992635
6.891089108910891,0.2548006517702751
6.910891089108911,0.16798723100384036
6.930693069306931,0.10970564551220988
6.9504950495049505,0.12822234531049218
6.97029702970297,0.20353450959165853
6.99009900990099,0.2947879183994023
7.00990099009901,0.39075532583489103
7.02970297029703,0.4884092135613643
7.0495049504950495,0.5866261013804313
7.069306930693069,0.6848653595677412
7.089108910891089,0.7828087000851612
7.108910891089109,0.8802370954236
7.128712871287128,0.9769813463572544
7.148514851485149,1.0728997033456957
7.1683168316831685,1.167866772948473
7.188118811881187,1.261767618726404
7.207920792079208,1.3544944480470988
7.227722772277228,1.4459446709388
7.247524752475247,1.536019726400057
7.267326732673268,1.624624357430663
7.287128712871287,1.7116661584530304
7.306930693069306,1.797055293445265
7.326732673267327,1.8807043240003303
7.346534653465347,1.9625281098011735
7.366336633663366,2.042443757702421
7.3861386138613865,2.120370603919024
7.405940594059406,2.19623021899806
7.425742574257425,2.269946428551999
7.445544554455446,2.341445344884845
7.465346534653466,2.4106554060741163
7.485148514851485,2.4775074200413285
7.504950495049505,2.5419346118109
7.524752475247524,2.603872672624511
7.544554455445544,2.6632598099088343
7.564356435643565,2.7200367973330275
7.584158415841584,2.774147024365731
7.603960396039604,2.8255365448696272
7.623762376237624,2.874154124367069
7.643564356435643,2.919951285682706
7.663366336633663,2.9628823527243537
7.683168316831684,3.0029044922062065
7.702970297029703,3.0399777531520336
7.7227722772277225,3.0740651040427607
7.742574257425743,3.1051324674942786
7.762376237623762,3.1331487523689145
7.782178217821782,3.15808588323848
7.801980198019803,3.1799188271290983
7.821782178217822,3.198625617488517
7.841584158415841,3.214187375325534
7.861386138613862,3.2265883274796034
7.881188118811881,3.2358158219853452
7.900990099009901,3.2418603405039526
7.92079207920792,3.2447155077991123
7.9405940594059405,3.2443780982412327
7.96039603960396,3.240848039329194
7.980198019801979,3.2341284122242806
8.0,3.224225449296578
8.01980198019802,3.211148528689189
8.03960396039604,3.1949101659116015
8.05940594059406,3.175526002478964
8.07920792079208,3.153014791620271
8.099009900990099,3.1273983810850234
8.118811881188119,3.098701693084748
8.138613861386139,3.066952701413944
8.158415841584159,3.0321824058035234
8.178217821782178,2.9944248035700385
8.198019801980198,2.953716858635687
8.217821782178218,2.9100984680077464
8.237623762376238,2.863612425822827
8.257425742574258,2.8143043850813316
8.277227722772277,2.7622228172223084
8.297029702970297,2.7074189697199715
8.316831683168317,2.649946821922545
8.336633663366337,2.5898630394042286
8.356435643564357,2.5272269271667374
8.376237623762377,2.462100382112604
8.396039603960396,2.394547845326679
8.415841584158416,2.3246362548556547
8.435643564356436,2.252434999884495
8.455445544554456,2.178015877496736
8.475247524752476,2.1014530536080356
8.495049504950495,2.022823030232218
8.514851485148515,1.9422046220583542
8.534653465346535,1.8596789465138026
8.554455445544555,1.7753294332653298
8.574257425742575,1.6892418618003193
8.594059405940595,1.6015044398847318
8.613861386138613,1.512207942256983
8.633663366336634,1.421445939543626
8.653465346534654,1.3293151650709965
8.673267326732672,1.2359160976200547
8.693069306930694,1.1413538921829827
8.712871287128714,1.0457398907487345
8.732673267326732,0.9491941388889065
8.752475247524753,0.8518497300776446
8.772277227722773,0.7538606626024118
8.792079207920791,0.6554169213621402
8.811881188118813,0.556775720893896
8.831683168316832,0.45833294544465264
8.85148514851485,0.36080933733118764
8.871287128712872,0.26583006273861237
8.891089108910892,0.17821124560052612
8.91089108910891,0.11673291740154858
8.930693069306932,0.12785987904848156
8.950495049504951,0.19980592988429852
8.97029702970297,0.29028549002349735
8.990099009900991,0.3862802128790675
9.00990099009901,0.48426842962020317
9.029702970297029,0.5829658966460077
9.04950495049505,0.6817671433583032
9.06930693069307,0.7803231179864358
9.089108910891088,0.8783982896136249
9.10891089108911,0.9758136996034004
9.12871287128713,1.072421339930731
9.148514851485148,1.1680915134259986
9.16831683168317,1.2627061369078385
9.188118811881187,1.356154989230051
9.207920792079207,1.4483335158260882
9.227722772277229,1.5391415010346319
9.247524752475247,1.6284822464045858
9.267326732673267,1.7162620554407757
9.287128712871288,1.802389910043098
9.306930693069306,1.8867772702082022
9.326732673267326,1.9693379548584358
9.346534653465348,2.0499880771072183
9.366336633663366,2.1286460166178633
9.386138613861386,2.20523241752483
9.405940594059407,2.2796702040881325
9.425742574257425,2.351884608661395
9.445544554455445,2.421803208154236
9.465346534653467,2.4893559662518396
9.485148514851485,2.5544752793986145
9.504950495049505,2.617096025072538
9.524752475247526,2.677155611245213
9.544554455445544,2.734594026187071
9.564356435643564,2.78935388796987
9.584158415841586,2.841380493160307
9.603960396039604,2.890621864304656
9.623762376237623,2.9370287958839825
9.643564356435645,2.980554898480613
9.663366336633663,3.021156640943636
9.683168316831683,3.0587933903781224
9.702970297029704,3.0934274498119834
9.722772277227723,3.125024093417776
9.742574257425742,3.153551599186016
9.762376237623764,3.1789812789621
9.782178217821782,3.201287505772421
9.801980198019802,3.2204477383763077
9.821782178217823,3.236442542990263
9.841584158415841,3.249255612139535
9.861386138613861,3.258873780599813
9.881188118811881,3.26528703839869
9.900990099009901,3.2684885408532174
9.92079207920792,3.268474615625794
9.94059405940594,3.2652447667867466
9.96039603960396,3.2588016758773883
9.98019801980198,3.2491511999732015
10.0,3.2363023667524735
10.01980198019802,3.220267366581396
10.03960396039604,3.2010615416328143
10.05940594059406,3.178703372062203
10.07920792079208,3.1532144592711164
10.099009900990099,3.124619506296135
10.118811881188119,3.0929462953693148
10.138613861386139,3.058225662705753
10.158415841584159,3.0204914705844086
10.178217821782178,2.9797805768009904
10.198019801980198,2.936132801586405
10.217821782178218,2.889590892102018
10.237623762376238,2.840200484644722
10.257425742574258,2.7880100647214445
10.277227722772277,2.7330709251862793
10.297029702970297,2.6754371226757963
10.316831683168317,2.615165432632501
10.336633663366337,2.55231530327709
10.356435643564357,2.486948808982831
10.376237623762377,2.4191306036286306
10.396039603960396,2.3489278746729663
10.415841584158416,2.276410298916124
10.435643564356436,2.201650001228382
10.455445544554454,2.124721517954838
10.475247524752476,2.0457017673198354
10.495049504950495,1.964670030033145
10.514851485148514,1.8817079445817269
10.534653465346535,1.79689952359204
10.554455445544555,1.710331200519125
10.574257425742573,1.6220919203452149
10.594059405940595,1.532273294945052
10.613861386138614,1.4409698550395147
10.633663366336632,1.3482794493534003
10.653465346534654,1.2543038735831606
10.673267326732674,1.159149868445754
10.693069306930692,1.0629307304830697
10.712871287128714,0.9657689805533367
