Time (s),Filtered Signal
0.0,0.019316079411311974
0.0334075723830735,-0.10321199385809589
0.066815144766147,-0.21321450268310144
0.1002227171492205,-0.29839021521708187
0.133630289532294,-0.349256720017164
0.1670378619153675,-0.36033567881019846
0.200445434298441,-0.3309123795746292
0.23385300668151449,-0.2652603663055636
0.267260579064588,-0.17230419152717014
0.3006681514476615,-0.06470554654609724
0.334075723830735,0.0426855314480916
0.3674832962138085,0.13503873347923745
0.400890868596882,0.20021176312187183
0.4342984409799555,0.2313306494219301
0.46770601336302897,0.22848583476188206
0.5011135857461025,0.1988153201660561
0.534521158129176,0.15466776673846555
0.5679287305122495,0.11015610629356784
0.601336302895323,0.07697647179422129
0.6347438752783965,0.06067313169873427
0.66815144766147,0.058502603316308764
0.7015590200445435,0.05973304741902573
0.734966592427617,0.0486763714825758
0.7683741648106905,0.01001075042995711
0.801781737193764,-0.06494139042008473
0.8351893095768375,-0.17310357559624237
0.868596881959911,-0.29800479828697035
0.9020044543429845,-0.41301498964376093
0.9354120267260579,-0.4889624128420339
0.9688195991091315,-0.5035340716877225
1.002227171492205,-0.44871498679205984
1.0356347438752784,-0.3331058554427954
1.069042316258352,-0.17809479404779235
1.1024498886414256,-0.009518599326113077
1.135857461024499,0.15162210725817107
1.1692650334075725,0.29545389570001684
1.202672605790646,0.42386283017530085
1.2360801781737194,0.5451830593304323
1.269487750556793,0.6652187756145008
1.3028953229398665,0.7786425138940359
1.33630289532294,0.8650622584291092
1.3697104677060135,0.8925485350107142
1.403118040089087,0.8285059432618631
1.4365256124721606,0.6543756656205492
1.469933184855234,0.37811616660352926
1.5033407572383075,0.0381271926013396
1.536748329621381,-0.3049826281283612
1.5701559020044544,-0.5872223040931972
1.603563474387528,-0.7636201852705043
1.6369710467706016,-0.8243365750835133
1.670378619153675,-0.7964773005672111
1.7037861915367485,-0.7298899382098154
1.737193763919822,-0.6730306339047575
1.7706013363028954,-0.6501550989140253
1.804008908685969,-0.6506567912446355
1.8374164810690425,-0.6354499484649344
1.8708240534521159,-0.5570321627076327
1.9042316258351895,-0.38358414545402336
1.937639198218263,-0.1161559417713251
1.9710467706013366,0.2081940641624573
2.00445434298441,0.5278421132028536
2.0378619153674835,0.7770398316168201
2.071269487750557,0.9066788946790072
2.1046770601336307,0.897583324035547
2.138084632516704,0.7625739495210186
2.1714922048997773,0.5386401196747506
2.204899777282851,0.2741978796139704
2.2383073496659245,0.016975199596705202
2.271714922048998,-0.19426325322832041
2.3051224944320716,-0.3341898937594421
2.338530066815145,-0.39336679814625414
2.3719376391982183,-0.3796041710102789
2.405345211581292,-0.3168883944269218
2.4387527839643655,-0.23945256921663188
2.472160356347439,-0.18042844597739796
2.5055679287305126,-0.158549186131648
2.538975501113586,-0.16948124372748902
2.5723830734966593,-0.18752855454489376
2.605790645879733,-0.178316562190311
2.6391982182628064,-0.11658322468557968
2.67260579064588,0.00031337045806451475
2.7060133630289536,0.15054759304863782
2.739420935412027,0.2985113200167164
2.7728285077951007,0.4118731728157811
2.806236080178174,0.47554651552590993
2.8396436525612474,0.4953394974249957
2.873051224944321,0.49022853414554185
2.9064587973273945,0.47845627165053894
2.939866369710468,0.46545508327589696
2.9732739420935417,0.43977934675999597
3.006681514476615,0.37844521319124647
3.0400890868596884,0.2584163891951394
3.073496659242762,0.06885770752129046
3.1069042316258355,-0.18045326866748812
3.140311804008909,-0.4570179298492387
3.1737193763919826,-0.7104874268638552
3.207126948775056,-0.8841530689777912
3.2405345211581293,-0.9313719363066232
3.273942093541203,-0.8327788503190027
3.3073496659242765,-0.6075496536913904
3.34075723830735,-0.3119172758682883
3.3741648106904236,-0.022511397828602422
3.407572383073497,0.19032824064626006
3.4409799554565703,0.28767349749566445
3.474387527839644,0.2733250369303788
3.5077951002227175,0.18566023864744785
3.541202672605791,0.07486942556334669
3.5746102449888646,-0.021291744663275543
3.608017817371938,-0.08935008311695017
3.6414253897550113,-0.13335148079536147
3.674832962138085,-0.15513823457299256
3.7082405345211584,-0.13630949333312836
3.7416481069042318,-0.03685725245492266
3.7750556792873056,0.18376865764709166
3.808463251670379,0.5315606662227181
3.8418708240534527,0.9483922533031464
3.875278396436526,1.308952566320411
3.9086859688195994,1.4546205022026544
3.942093541202673,1.2563231130026642
3.9755011135857465,0.6808927666831387
4.00890868596882,-0.17154068093806835
4.042316258351893,-1.082536406273493
4.075723830734967,-1.7836779823859075
4.109131403118041,-2.0537665718287395
4.142538975501114,-1.8047694138443975
4.1759465478841875,-1.1190130887740724
4.209354120267261,-0.22034031655829284
4.242761692650334,0.6093309061440443
4.276169265033408,1.1327623012092332
4.309576837416482,1.2365278593162676
4.342984409799555,0.9557777719045015
4.3763919821826285,0.43971895267864575
4.409799554565702,-0.12070943789070035
4.443207126948775,-0.5674715459116221
4.476614699331849,-0.8210289111940569
4.510022271714923,-0.8837596594332354
4.543429844097996,-0.8095335932679466
4.5768374164810695,-0.6614803922305288
4.610244988864143,-0.48056902516515504
4.643652561247216,-0.2771893484420772
4.67706013363029,-0.043692655477320104
4.710467706013364,0.22443107247888885
4.743875278396437,0.5129853563270476
4.77728285077951,0.7874734064638117
4.810690423162584,1.004604365901444
4.844097995545657,1.1289326863020142
4.877505567928731,1.1451854929976586
4.910913140311805,1.060755682248305
4.944320712694878,0.898951937783821
4.977728285077951,0.6881072428189571
5.011135857461025,0.4525378464989311
5.044543429844098,0.20909876109729858
5.077951002227172,-0.030374285770763874
5.111358574610246,-0.25334489694279605
5.144766146993319,-0.44168366840667744
5.178173719376392,-0.5715604000750515
5.211581291759466,-0.6201290713568721
5.244988864142539,-0.5774243218427021
5.278396436525613,-0.4578726786935162
5.311804008908687,-0.3037528124680406
5.34521158129176,-0.1750634201150761
5.378619153674833,-0.12673700979953612
5.412026726057907,-0.18210235056722945
5.445434298440981,-0.3162236351592874
5.478841870824054,-0.46046424850988166
5.512249443207128,-0.530208408935568
5.545657015590201,-0.46536228196436363
5.579064587973274,-0.2647007930117132
5.612472160356348,0.004324993262767365
5.645879732739422,0.22831176791683075
5.679287305122495,0.2955440522637144
5.712694877505569,0.14783208879429652
5.746102449888642,-0.18790921267221566
5.779510022271715,-0.6046414764959572
5.812917594654789,-0.956259253190319
5.846325167037863,-1.1167137229518171
5.879732739420936,-1.0299126965688845
5.91314031180401,-0.7274460407641098
5.946547884187083,-0.30746604952962003
5.979955456570156,0.11230936408972586
6.01336302895323,0.44246058150855755
6.046770601336304,0.6478282512510105
6.080178173719377,0.7433426722206053
6.1135857461024505,0.7688829902767353
6.146993318485524,0.7619561649623928
6.180400890868597,0.7439495181248623
6.213808463251671,0.7235273606888625
6.247216035634745,0.7083431566905181
6.280623608017818,0.7117937092377784
6.3140311804008915,0.7473091855073962
6.347438752783965,0.8139297091110941
6.380846325167038,0.8853500921478065
6.414253897550112,0.9139283761877988
6.447661469933186,0.8513951884022213
6.481069042316259,0.6757075927026338
6.5144766146993325,0.4073947602611106
6.547884187082406,0.10370159880751657
6.581291759465479,-0.16783441456653975
6.614699331848553,-0.36172735785866755
6.648106904231627,-0.4742110715267093
6.6815144766147,-0.5393790261277426
6.7149220489977735,-0.6051435274333847
6.748329621380847,-0.703790168936023
6.78173719376392,-0.833779619772519
6.815144766146994,-0.9616106214625683
6.848552338530068,-1.0407404307492871
6.881959910913141,-1.0359829244790137
6.915367483296214,-0.9405954681878855
6.948775055679288,-0.7786801564194589
6.982182628062361,-0.5935074622806403
7.015590200445435,-0.42862930761280904
7.048997772828509,-0.310877493429097
7.082405345211582,-0.24251289202335685
7.115812917594655,-0.20521059933023028
7.149220489977729,-0.17304346241933286
7.182628062360802,-0.12723521179672093
7.216035634743876,-0.06431625520287652
7.24944320712695,0.007329994731075782
7.282850779510023,0.08065147013617852
7.316258351893096,0.16405829162242516
7.34966592427617,0.28530278798864706
7.383073496659243,0.4785659973330703
7.416481069042317,0.7583269095246116
7.449888641425391,1.0936495758387221
7.4832962138084635,1.400039649406725
7.516703786191537,1.5595697667505164
7.550111358574611,1.4657711059720036
7.583518930957685,1.0750765938369118
7.616926503340758,0.43985195835006197
7.650334075723832,-0.29596903767487487
7.683741648106905,-0.9410095295467826
7.717149220489978,-1.3236543956281082
7.750556792873052,-1.3540848136907087
7.783964365256126,-1.054817384631197
7.817371937639199,-0.5476986915650743
7.850779510022273,-0.004543957100875814
7.884187082405346,0.416531709500516
7.917594654788419,0.6229659979753012
7.951002227171493,0.6090947480176714
7.984409799554567,0.442715411308651
8.01781737193764,0.22702384781828353
8.051224944320714,0.05646375719995979
8.084632516703786,-0.015393839015306008
8.118040089086861,0.014212739108986657
8.151447661469934,0.1085192043729069
8.184855233853007,0.21391324891914243
8.218262806236082,0.2814719422102624
8.251670378619155,0.27878370127809643
8.285077951002227,0.19109662398327326
8.318485523385302,0.01734215685735893
8.351893095768375,-0.2317830033676015
8.385300668151448,-0.5303613607097213
8.418708240534523,-0.8316661919179449
8.452115812917596,-1.068327474042447
8.485523385300668,-1.165201057047545
8.518930957683743,-1.0649578000440674
8.552338530066816,-0.7570235277519995
8.585746102449889,-0.29456391286650524
8.619153674832964,0.21338363032052157
8.652561247216036,0.6363559596640821
8.68596881959911,0.8705956901528713
8.719376391982184,0.8785483943284086
8.752783964365257,0.6998362609038666
8.78619153674833,0.4279603817786493
8.819599109131405,0.1651318085798541
8.853006681514477,-0.021000236898037372
8.88641425389755,-0.11726903066105705
8.919821826280625,-0.1544877770861503
8.953229398663698,-0.17681502587741255
8.98663697104677,-0.21109941480474936
9.020044543429846,-0.2533911869766382
9.053452115812918,-0.27717401554524185
9.086859688195991,-0.25423552434407276
9.120267260579066,-0.17292770051053152
9.153674832962139,-0.0428257254517396
9.187082405345212,0.11447854463166672
9.220489977728286,0.2792649680216808
9.25389755011136,0.44108582703130855
9.287305122494432,0.5946416374279638
9.320712694877507,0.7284776539288459
9.35412026726058,0.8167385243520547
9.387527839643653,0.8226090225859761
9.420935412026727,0.7141625370631008
9.4543429844098,0.484481321093157
9.487750556792873,0.16391867478165953
9.521158129175948,-0.18417940376720662
9.55456570155902,-0.4841434963095753
9.587973273942094,-0.6758477902053975
9.621380846325168,-0.7364565757515268
9.654788418708241,-0.6857738373211666
9.688195991091314,-0.5733885364945878
9.721603563474389,-0.45500333435335594
9.755011135857462,-0.3702126965068721
9.788418708240535,-0.3320329848805611
9.82182628062361,-0.33111887927547484
9.855233853006682,-0.3493030911483957
9.888641425389755,-0.3726521478950093
9.92204899777283,-0.39592583522239505
9.955456570155903,-0.41678246365152727
9.988864142538976,-0.4252571115843277
10.02227171492205,-0.39766234154786967
10.055679287305123,-0.30188884022132406
10.089086859688196,-0.11410775299436918
10.12249443207127,0.1610972438404305
10.155902004454344,0.4793396979628188
10.189309576837417,0.763278712900179
10.222717149220491,0.9283341809630539
10.256124721603564,0.917381371005694
10.289532293986637,0.7283773706184642
10.322939866369712,0.4209208211799281
10.356347438752785,0.09724843199229717
10.389755011135858,-0.13484206758085782
10.423162583518932,-0.20138039048367704
10.456570155902005,-0.08751484854067924
10.489977728285078,0.16090496980481947
10.523385300668153,0.45845373213338136
10.556792873051226,0.7134803961304396
10.590200445434299,0.8589177555779464
10.623608017817373,0.8684232810762756
10.657015590200446,0.753899117676601
10.69042316258352,0.5499434632768804
10.723830734966594,0.29636933704622365
10.757238307349667,0.028361439668514885
10.790645879732741,-0.22360721160177113
10.824053452115814,-0.42995102226728743
10.857461024498887,-0.5627804341321759
10.890868596881962,-0.6053645800129126
10.924276169265035,-0.5660034766243034
10.957683741648108,-0.4862468041985645
10.991091314031182,-0.4343635869291015
11.024498886414255,-0.482336710521928
11.057906458797328,-0.6740312984327578
11.091314031180403,-0.9982949190101267
11.124721603563476,-1.3804401075635533
11.158129175946549,-1.6989515912001838
11.191536748329623,-1.8240951856117202
11.224944320712696,-1.6653963660101372
11.25835189309577,-1.2096804766918465
11.291759465478844,-0.5332245731007336
11.325167037861917,0.21924992169253396
11.35857461024499,0.8825568720524959
11.391982182628064,1.3276960010796968
11.425389755011137,1.504017887352482
11.45879732739421,1.4492842716490266
11.492204899777285,1.2640965482891118
11.525612472160358,1.0633110579686285
11.55902004454343,0.9272345252217862
11.592427616926505,0.8744399657669625
11.625835189309578,0.8666123255650608
11.659242761692651,0.8399663607277528
11.692650334075726,0.7454909170765143
11.726057906458799,0.5773224342742512
11.759465478841872,0.37576399042893327
11.792873051224946,0.20474383685371814
11.82628062360802,0.11615880020499107
11.859688195991092,0.11964549211318572
11.893095768374167,0.1733932789061407
11.92650334075724,0.20141603112144402
11.959910913140313,0.12998993306778855
11.993318485523387,-0.07370709512629511
12.02672605790646,-0.38000781730238986
12.060133630289533,-0.704694818980844
12.093541202672608,-0.9451221419609651
12.12694877505568,-1.028252052413042
12.160356347438753,-0.9463155078839302
12.193763919821828,-0.760497083801125
12.227171492204901,-0.5695199447427677
12.260579064587974,-0.459545965665264
12.293986636971049,-0.4625684883223741
12.327394209354122,-0.5453861181574582
12.360801781737194,-0.6332653033127481
12.39420935412027,-0.6528024426970209
12.427616926503342,-0.5692040191068626
12.461024498886415,-0.39886509127434616
12.49443207126949,-0.19373397714109175
12.527839643652563,-0.009262362308999652
12.561247216035635,0.12548692011906334
12.59465478841871,0.2205587266328123
12.628062360801783,0.3156326735900522
12.661469933184856,0.4541139986989658
12.69487750556793,0.6538519968998232
12.728285077951004,0.8892296731534988
12.761692650334076,1.0947479822817676
12.795100222717151,1.1903881840060215
12.828507795100224,1.1177990193869667
12.861915367483297,0.8696759676028873
12.895322939866372,0.49723456004136113
12.928730512249444,0.09185070250513556
12.962138084632517,-0.24961391356706472
12.995545657015592,-0.4586574579187864
13.028953229398665,-0.5134097018518555
13.062360801781738,-0.43661032179022735
13.095768374164813,-0.2793264043030169
13.129175946547885,-0.1014929252391753
13.162583518930958,0.04217434081455643
13.195991091314033,0.10921994272067129
13.229398663697106,0.07339993302083093
13.262806236080179,-0.07008378828406982
13.296213808463254,-0.2982539803042666
13.329621380846326,-0.5585377953024464
13.3630289532294,-0.778278090735446
13.396436525612474,-0.8871819583789182
13.429844097995547,-0.8452804271978122
13.46325167037862,-0.6623161820973108
13.496659242761694,-0.3958535137809605
13.530066815144767,-0.12565289853423256
13.56347438752784,0.08437064266679153
13.596881959910915,0.21655461478632212
13.630289532293988,0.3047565518763454
13.66369710467706,0.41025745403332153
13.697104677060135,0.5806801965516182
13.730512249443208,0.8144469340168454
13.763919821826281,1.0509517207385117
13.797327394209356,1.1931334403157936
13.830734966592429,1.1521217477908334
13.864142538975502,0.8922183400314978
13.897550111358576,0.45420228189990597
13.93095768374165,-0.05467308275953486
13.964365256124722,-0.5000903726348275
13.997772828507797,-0.7722424833384098
14.03118040089087,-0.8270045769775919
14.064587973273943,-0.6989393648227771
14.097995545657017,-0.48108916761583104
14.13140311804009,-0.28151016814282
14.164810690423163,-0.1769186262733362
14.198218262806238,-0.1845611748380679
14.23162583518931,-0.2639119953179815
14.265033407572384,-0.3447372153535828
14.298440979955458,-0.3653044688453488
14.331848552338531,-0.30081860063013316
14.365256124721604,-0.16922961189638483
14.398663697104679,-0.014897195755038924
14.432071269487752,0.11773766483987354
14.465478841870825,0.20478771501293305
14.4988864142539,0.24788228712477173
14.532293986636972,0.26396811665171355
14.565701559020045,0.26899335922909084
14.59910913140312,0.26644287883388
14.632516703786193,0.2469218621156214
14.665924276169266,0.19736349625839672
14.69933184855234,0.11283739585640314
14.732739420935413,0.0032657119533222273
14.766146993318486,-0.10876049234925556
14.79955456570156,-0.197308649672209
14.832962138084634,-0.24394308620865232
14.866369710467707,-0.24418087049594114
14.899777282850781,-0.20670190925744408
14.933184855233854,-0.14670389950097362
14.966592427616927,-0.07780423568302675
15.0,-0.007148057897841507
