Time (s),Filtered Signal
0.0,-0.02814581780404988
0.03337004405286344,0.22926413898883669
0.06674008810572687,0.4997178347327306
0.10011013215859031,0.7797995574973854
0.13348017621145375,1.0385415852707798
0.16685022026431717,1.2157596926935696
0.20022026431718062,1.2346561660113382
0.23359030837004408,1.0285109581167615
0.2669603524229075,0.57364706338113
0.3003303964757709,-0.08574106631058157
0.33370044052863435,-0.8355873679063601
0.3670704845814978,-1.5190304126842835
0.40044052863436125,-1.9848707629600864
0.43381057268722467,-2.1379365262070245
0.46718061674008815,-1.969534881266264
0.5005506607929515,-1.555086624437046
0.533920704845815,-1.0213369360812876
0.5672907488986785,-0.49886989361052503
0.6006607929515418,-0.08045139555731044
0.6340308370044053,0.19935832102334564
0.6674008810572687,0.3590493413611421
0.7007709251101322,0.44637401822382794
0.7341409691629956,0.5091289111495273
0.767511013215859,0.5734114766851166
0.8008810572687225,0.6368403005207098
0.834251101321586,0.6768602145157727
0.8676211453744493,0.6680756641769535
0.9009911894273128,0.5996000415865724
0.9343612334801763,0.4842957784802724
0.9677312775330397,0.3558404669823461
1.001101321585903,0.2550957139878652
1.0344713656387665,0.21203630824798353
1.06784140969163,0.23152571322630364
1.1012114537444935,0.28963157504498693
1.134581497797357,0.34264134042458927
1.1679515418502202,0.34538205944305167
1.2013215859030837,0.27120463513516807
1.2346916299559472,0.12490839018662854
1.2680616740088106,-0.057390344458670355
1.3014317180616741,-0.22183207915949346
1.3348017621145374,-0.31810317500037105
1.3681718061674009,-0.319029931709324
1.4015418502202643,-0.22982912191542437
1.4349118942731278,-0.08338673387107691
1.4682819383259913,0.07529780962520556
1.5016519823788548,0.20738959878865668
1.535022026431718,0.2924691677451876
1.5683920704845815,0.32983481195943803
1.601762114537445,0.32996179836067524
1.6351321585903085,0.3021853355379532
1.668502202643172,0.24611652140234241
1.7018722466960352,0.15175269351166992
1.7352422907488987,0.008229364841151415
1.7686123348017622,-0.183728443986618
1.8019823788546256,-0.4029531434899175
1.8353524229074891,-0.6084994293498962
1.8687224669603526,-0.7511658748995883
1.9020925110132159,-0.7915624951559739
1.9354625550660793,-0.7165727292412957
1.9688325991189428,-0.5462201030233538
2.002202643171806,-0.32728068733791466
2.0355726872246698,-0.11629166457890865
2.068942731277533,0.04049273176108408
2.1023127753303967,0.12168623778498995
2.13568281938326,0.13452711968295686
2.1690528634361232,0.10760032920280473
2.202422907488987,0.0767427075864041
2.23579295154185,0.070272111061609
2.269162995594714,0.09896101181333605
2.302533039647577,0.1537554670705856
2.3359030837004404,0.21127835885299961
2.369273127753304,0.24452870154512277
2.4026431718061674,0.23449727295390524
2.436013215859031,0.17813559973338458
2.4693832599118943,0.08951452649540313
2.5027533039647576,-0.006167464965139598
2.5361233480176213,-0.0828646234906036
2.5694933920704845,-0.12338602737541055
2.6028634361233483,-0.12407446988260865
2.6362334801762115,-0.09281513397758794
2.6696035242290748,-0.04236491533022878
2.7029735682819385,0.01666933016116399
2.7363436123348017,0.07918127583540166
2.7697136563876654,0.14384635582516792
2.8030837004405287,0.20817739641904554
2.8364537444933924,0.26413183564569037
2.8698237885462556,0.2976610375456232
2.903193832599119,0.2932327550883929
2.9365638766519826,0.24140038956214552
2.969933920704846,0.1455521715513184
3.0033039647577096,0.024073538983959548
3.036674008810573,-0.09377729084770521
3.070044052863436,-0.17704618629546381
3.1034140969162998,-0.20376415346230806
3.136784140969163,-0.16894324755420925
3.1701541850220267,-0.08684869328732726
3.20352422907489,0.013259281309177038
3.2368942731277532,0.09641229712003936
3.270264317180617,0.1331412193942904
3.30363436123348,0.10895029872513168
3.337004405286344,0.028968567385117366
3.370374449339207,-0.08377271400518695
3.4037444933920704,-0.1958415843787919
3.437114537444934,-0.27402569318798886
3.4704845814977974,-0.2952955132755717
3.503854625550661,-0.25276264286243055
3.5372246696035243,-0.15611381373148225
3.5705947136563876,-0.027305718391058997
3.6039647577092513,0.10610592519069174
3.6373348017621145,0.21747028678193123
3.6707048458149782,0.2859030967019815
3.7040748898678415,0.2993581080179177
3.737444933920705,0.2563776529557445
3.7708149779735685,0.16661010260547807
3.8041850220264317,0.04941435679588505
3.8375550660792954,-0.07026734235349912
3.8709251101321587,-0.16855186992163684
3.9042951541850224,-0.22983156835847765
3.9376651982378856,-0.25146400220196613
3.971035242290749,-0.24334267228445824
4.004405286343612,-0.22199967639206086
4.037775330396476,-0.20175259917889646
4.0711453744493395,-0.18724937670612454
4.104515418502203,-0.17142038427665285
4.137885462555066,-0.14031016899029347
4.171255506607929,-0.0827201106907021
4.2046255506607935,0.0001577422517922757
4.237995594713657,0.09040433586313622
4.27136563876652,0.15741296651194778
4.304735682819383,0.16945265814808624
4.3381057268722465,0.10812897516233684
4.371475770925111,-0.020657222852776335
4.404845814977974,-0.1845338502176232
4.438215859030837,-0.3330104849515267
4.4715859030837,-0.41370273164367843
4.504955947136564,-0.3903702511908906
4.538325991189428,-0.25573829870206854
4.571696035242291,-0.03399947993640475
4.605066079295154,0.22795706765372853
4.638436123348018,0.47685198583630584
4.671806167400881,0.670009182130972
4.705176211453745,0.7862143725066777
4.738546255506608,0.8268199881660184
4.7719162995594715,0.808181541026297
4.805286343612335,0.7502245687373371
4.838656387665198,0.666851898953628
4.872026431718062,0.5619207086267108
4.905396475770925,0.43118590846321714
4.938766519823789,0.267955311282158
4.972136563876652,0.06942123644905439
5.005506607929515,-0.15855325239323387
5.038876651982379,-0.39923355016041207
5.072246696035243,-0.6258785688779698
5.105616740088106,-0.8061240521736223
5.138986784140969,-0.9099010090259693
5.172356828193832,-0.9193804947873195
5.2057268722466965,-0.8373644754115568
5.23909691629956,-0.689576347592091
5.272466960352423,-0.5179445485824876
5.305837004405286,-0.36613109499165175
5.3392070484581495,-0.2631508396427935
5.372577092511014,-0.21299616434324703
5.405947136563877,-0.1958811525587017
5.43931718061674,-0.18080880691542606
5.4726872246696034,-0.14285405824190053
5.506057268722468,-0.07566245870799697
5.539427312775331,0.007781786226725553
5.572797356828194,0.08624865571332313
5.606167400881057,0.1461697007046978
5.639537444933921,0.192173354549522
5.672907488986785,0.2451281580879178
5.706277533039648,0.32824221280372834
5.739647577092511,0.44942208648980264
5.7730176211453745,0.590917268922785
5.806387665198238,0.7133420829725652
5.839757709251102,0.7727498659607281
5.873127753303965,0.7416273604113388
5.9064977973568284,0.6222317269514817
5.939867841409692,0.4450837888610055
5.973237885462555,0.25395705631944915
6.006607929515419,0.08617098550688417
6.039977973568282,-0.0410204798486298
6.073348017621146,-0.13156721842962538
6.106718061674009,-0.2006550107850132
6.140088105726872,-0.26116264912064496
6.173458149779736,-0.3151033294835166
6.2068281938325995,-0.35440634789010217
6.240198237885463,-0.36905803438403295
6.273568281938326,-0.35621899115605454
6.306938325991189,-0.32395021925514306
6.3403083700440535,-0.2871912975902511
6.373678414096917,-0.2588422037300616
6.40704845814978,-0.24190083855808855
6.440418502202643,-0.22780666205584219
6.4737885462555065,-0.20213860648534415
6.507158590308371,-0.15422195552419513
6.540528634361234,-0.08482603671217473
6.573898678414097,-0.007304079696153041
6.60726872246696,0.05859328794017027
6.640638766519824,0.09675237382352059
6.674008810572688,0.10290925228758474
6.707378854625551,0.08639802748636394
6.740748898678414,0.06439361786839876
6.774118942731278,0.05179502346861342
6.807488986784141,0.05242198741400794
6.840859030837005,0.0567036673251322
6.874229074889868,0.047698353249537015
6.9075991189427315,0.012733313305744166
6.940969162995595,-0.04547231888254494
6.974339207048458,-0.10473952788865457
7.007709251101322,-0.12986926273930993
7.041079295154185,-0.08781580625253711
7.074449339207049,0.034968471549297726
7.107819383259912,0.22140325888173568
7.141189427312775,0.4250069259053375
7.174559471365639,0.5842558452589457
7.207929515418503,0.6448802209129801
7.241299559471366,0.5810963887521355
7.274669603524229,0.406846101884658
7.308039647577092,0.17201471376001337
7.3414096916299565,-0.055311622326876336
7.37477973568282,-0.21372113445946794
7.408149779735683,-0.2705949259633066
7.441519823788546,-0.23257503320439116
7.47488986784141,-0.14026256329917305
7.508259911894274,-0.0496805386700867
7.541629955947137,-0.008729474070874576
7.575,-0.03898927279040146
7.608370044052863,-0.13062570498775805
7.641740088105728,-0.2518513838760898
7.675110132158591,-0.3672896622721179
7.708480176211454,-0.4552544341472025
7.741850220264317,-0.5147784833762558
7.775220264317181,-0.5590006337384198
7.808590308370045,-0.5993327894432481
7.841960352422908,-0.6304038131201845
7.875330396475771,-0.6257999760699954
7.9087004405286345,-0.548713437596006
7.942070484581498,-0.3728290835636827
7.975440528634362,-0.10213179992166212
8.008810572687224,0.22209610671878302
8.042180616740088,0.5324012850480152
8.075550660792953,0.7600034561143052
8.108920704845815,0.8615244873648269
8.142290748898679,0.8348237387815245
8.175660792951541,0.7169497114755895
8.209030837004406,0.5661851073691997
8.24240088105727,0.4373813173244818
8.275770925110132,0.36184367653946314
8.309140969162996,0.33961276195716184
8.342511013215859,0.3454849027978136
8.375881057268723,0.3440005969546656
8.409251101321587,0.3056297962441779
8.44262114537445,0.2173547564255289
8.475991189427313,0.08468022902550876
8.509361233480176,-0.07351985076838553
8.54273127753304,-0.23322214301807068
8.576101321585904,-0.3724522692004584
8.609471365638766,-0.47540238138979635
8.64284140969163,-0.5337089541833531
8.676211453744493,-0.5461898683781027
8.709581497797357,-0.5179085486692736
8.742951541850221,-0.45849982664699435
8.776321585903084,-0.3794585002446053
8.809691629955948,-0.29087248268308963
8.84306167400881,-0.19906749485063752
8.876431718061674,-0.10666256920688351
8.909801762114538,-0.015205093106574469
8.9431718061674,0.07132842579263081
8.976541850220265,0.14483731751231987
9.009911894273127,0.19494380917619583
9.043281938325991,0.21371095628643594
9.076651982378856,0.20033091096381436
9.110022026431718,0.16254725390695024
9.143392070484582,0.11357432314495987
9.176762114537445,0.0663172131946771
9.210132158590309,0.028599528489458483
9.243502202643173,0.0023936193662083397
9.276872246696035,-0.012905905687680281
9.3102422907489,-0.016257747278754932
9.343612334801762,-0.0038687970193492936
9.376982378854626,0.026823490759433376
9.41035242290749,0.0700708399085629
9.443722466960352,0.10680745862631148
9.477092511013216,0.10695654250690445
9.510462555066079,0.04072826221855614
9.543832599118943,-0.10486612259464646
9.577202643171807,-0.3123037887251464
9.61057268722467,-0.5309667736330012
9.643942731277534,-0.6896551289169274
9.677312775330396,-0.7210366412956357
9.71068281938326,-0.5885378687351468
9.744052863436124,-0.30400398537717604
9.777422907488987,0.07221801479204949
9.81079295154185,0.4497051267801829
9.844162995594713,0.7378307908635575
9.877533039647577,0.8752557036936848
9.910903083700441,0.8478082219250418
9.944273127753304,0.6888887643807756
9.977643171806168,0.4638234328758729
10.01101321585903,0.2454446453948628
10.044383259911895,0.09042389883588939
10.077753303964759,0.024282327759774982
10.111123348017621,0.03884822410114521
10.144493392070485,0.1011345657540849
10.177863436123348,0.16891205424696698
10.211233480176212,0.20671133339232614
10.244603524229076,0.19677288792314146
10.277973568281938,0.1419549455343406
10.311343612334802,0.06075155817173933
10.344713656387665,-0.02270981447748248
10.378083700440529,-0.08933984752114034
10.411453744493393,-0.1322444311562642
10.444823788546255,-0.1579162730727695
10.47819383259912,-0.18164280680439662
10.511563876651982,-0.21973522023555775
10.544933920704846,-0.2823030575305383
10.57830396475771,-0.3696180840480949
10.611674008810573,-0.47303378936823487
10.645044052863437,-0.5790647247421509
10.678414096916299,-0.6738239826992957
10.711784140969163,-0.7452917677372296
10.745154185022027,-0.7826584113264035
10.77852422907489,-0.7742167832105195
10.811894273127754,-0.7066037266150993
10.845264317180618,-0.5676688150637882
10.87863436123348,-0.35298774517421916
10.912004405286345,-0.0732507985833316
10.945374449339207,0.2418584703531449
10.978744493392071,0.5469277747316206
11.012114537444935,0.7918032189677823
11.045484581497798,0.9369170999429886
11.078854625550662,0.9667655731610336
11.112224669603524,0.8953378667146814
11.145594713656388,0.7604069482938753
11.178964757709252,0.608532079756184
11.212334801762115,0.47707502740929836
11.245704845814979,0.3812327487761614
11.279074889867841,0.3119630220430693
11.312444933920705,0.24549603433903502
11.34581497797357,0.1593429599942216
11.379185022026432,0.04637577651535597
11.412555066079296,-0.08037441879514153
11.445925110132158,-0.19448031512318786
11.479295154185023,-0.2704052694395468
11.512665198237887,-0.29727955358905805
11.546035242290749,-0.2846738599136694
11.579405286343613,-0.2574990525498597
11.612775330396476,-0.24309001688756204
11.64614537444934,-0.25745895214189707
11.679515418502204,-0.2977086598218365
11.712885462555066,-0.34403591057470184
11.74625550660793,-0.3697823433048305
11.779625550660793,-0.3542263090730661
11.812995594713657,-0.29197340498157603
11.846365638766521,-0.1949587517136487
11.879735682819383,-0.08679922098011514
11.913105726872248,0.007424493245894849
11.94647577092511,0.07130478517521564
11.979845814977974,0.10299453021716581
12.013215859030838,0.11462758233111281
12.0465859030837,0.125609744469833
12.079955947136565,0.15251082967706842
12.113325991189427,0.19985421749692883
12.146696035242291,0.25618949339613056
12.180066079295155,0.29801221909754694
12.213436123348018,0.300626418508066
12.246806167400882,0.25124424207431834
12.280176211453744,0.157550958128286
12.313546255506608,0.04634803612826837
12.346916299559473,-0.04828423494987278
12.380286343612335,-0.10187941242276842
12.413656387665199,-0.11249940472258571
12.447026431718061,-0.10195784215110049
12.480396475770926,-0.10361967632474456
12.51376651982379,-0.14254220401192394
12.547136563876652,-0.2185310783545707
12.580506607929516,-0.3019589128841133
12.613876651982379,-0.3460233885278152
12.647246696035243,-0.31049762702639155
12.680616740088107,-0.18535928166138782
12.71398678414097,-0.0016286908982381131
12.747356828193833,0.17770023458445827
12.780726872246696,0.2839607758902055
12.81409691629956,0.274456579227047
12.847466960352424,0.1538783514424988
12.880837004405286,-0.025798748102287182
12.91420704845815,-0.18772791505745187
12.947577092511013,-0.26431169216755324
12.980947136563877,-0.22634582744083076
13.014317180616741,-0.09322320812713746
13.047687224669604,0.07968234086271254
13.081057268722468,0.22858677775441283
13.11442731277533,0.3091063638576485
13.147797356828194,0.31110000205001376
13.181167400881058,0.2556154290844223
13.21453744493392,0.1787348798150295
13.247907488986785,0.11273060910037744
13.281277533039647,0.07401158647437507
13.314647577092511,0.06160383420470842
13.348017621145376,0.06359117476854477
13.381387665198238,0.06577690735272429
13.414757709251102,0.057814564726482894
13.448127753303964,0.03539343948563716
13.481497797356829,-0.00010162523176068594
13.514867841409693,-0.04248526447309274
13.548237885462555,-0.08166980873418188
13.58160792951542,-0.10559834487732818
13.614977973568282,-0.10427522808131837
13.648348017621146,-0.07519210225364154
13.68171806167401,-0.027318396173824096
13.715088105726872,0.019686831434679537
13.748458149779736,0.04235734470079315
13.781828193832599,0.024119783302962123
13.815198237885463,-0.03535211054723309
13.848568281938327,-0.11746112930719792
13.88193832599119,-0.19105598235757856
13.915308370044054,-0.2255768622259488
13.948678414096916,-0.20490797875324493
13.98204845814978,-0.13508835018196017
14.015418502202644,-0.041889181139171346
14.048788546255507,0.040647689572145554
14.08215859030837,0.08504938804983245
14.115528634361233,0.08143953455728153
14.148898678414097,0.0398331673080374
14.182268722466961,-0.016574174468305083
14.215638766519824,-0.06301611519541608
14.249008810572688,-0.08369156262328108
14.28237885462555,-0.07656734655759925
14.315748898678414,-0.051215914126383814
14.349118942731279,-0.022002613007100873
14.382488986784141,-0.0007995384939307852
14.415859030837005,0.007145255092219946
14.449229074889868,0.0029203669182754823
14.482599118942732,-0.009316565389570802
14.515969162995596,-0.02564354980370541
14.549339207048458,-0.04322854446469967
14.582709251101322,-0.05829152280484878
14.616079295154185,-0.06309687258394857
14.649449339207049,-0.04510962202112768
14.682819383259913,0.009365761708089825
14.716189427312775,0.1073472190953489
14.74955947136564,0.2405005623638155
14.782929515418502,0.38076989359879576
14.816299559471366,0.4845948548887341
14.84966960352423,0.5064113655149666
14.883039647577093,0.41725730627369895
14.916409691629957,0.22059781297172315
14.94977973568282,-0.04275512224326471
14.983149779735683,-0.3047475240080059
15.016519823788547,-0.4925751562063845
15.04988986784141,-0.554710664838862
15.083259911894274,-0.4793449096386298
15.116629955947138,-0.2972978757972062
15.15,-0.06862225104110627
15.183370044052865,0.14045008917739218
15.216740088105727,0.2797672758269716
15.250110132158591,0.32786114914338704
15.283480176211455,0.2917015704133552
15.316850220264318,0.1967231520275482
15.350220264317182,0.07385205408976837
15.383590308370044,-0.05021681952930367
15.416960352422908,-0.1567100380767973
15.450330396475772,-0.23359250839603662
15.483700440528635,-0.2728335278601644
15.517070484581499,-0.2690787057699223
15.550440528634361,-0.22066620943169896
15.583810572687225,-0.13188869944612044
15.61718061674009,-0.014570689590769124
15.650550660792952,0.11244350783671622
15.683920704845816,0.22614324006809428
15.717290748898678,0.30387369866145014
15.750660792951543,0.32848427172273703
15.784030837004407,0.2929895801536688
15.817400881057269,0.20351268279739967
15.850770925110133,0.07918884429903247
15.884140969162996,-0.05186808527244202
15.91751101321586,-0.1601373134623981
15.950881057268724,-0.2235982275180689
15.984251101321586,-0.2345618051788021
16.01762114537445,-0.20145644297019114
16.050991189427315,-0.14472847073918024
16.084361233480177,-0.08864911294031441
16.11773127753304,-0.05242147515581545
16.151101321585905,-0.043862790048518514
16.184471365638768,-0.05759483193417898
16.21784140969163,-0.0780692515984257
16.251211453744492,-0.08640722246396723
16.284581497797358,-0.06889315164441107
16.31795154185022,-0.02401591041471005
16.351321585903083,0.03526734882359279
16.38469162995595,0.08606413922559286
16.41806167400881,0.10592653197596734
16.451431718061674,0.08467320880669069
16.48480176211454,0.03142228960233865
16.518171806167402,-0.027905510199443536
16.551541850220264,-0.06268439615319195
16.584911894273127,-0.05380198353662066
16.618281938325993,-0.0053738924535682965
16.651651982378855,0.05515808273486208
16.685022026431717,0.08983686524474054
16.718392070484583,0.07006197984288927
16.751762114537446,-0.006758046159706846
16.785132158590308,-0.11301928087831355
16.818502202643174,-0.202164676266334
16.851872246696036,-0.23005145771847665
16.8852422907489,-0.17549492064420363
16.91861233480176,-0.049325201967790736
16.951982378854627,0.11249079121887674
16.98535242290749,0.2673962878135021
17.01872246696035,0.38592192069702774
17.052092511013218,0.4617071230896115
17.08546255506608,0.5069771733955143
17.118832599118942,0.5371994761098751
17.152202643171808,0.5549763262213397
17.18557268722467,0.5436228842983822
17.218942731277533,0.47508872688521425
