Time (s),Filtered Signal
0.0,-0.06497276691303638
0.033370165745856356,-0.08449425455294225
0.06674033149171271,-0.07271369788277839
0.10011049723756907,-0.008795027822195623
0.13348066298342542,0.11137305247180414
0.16685082872928178,0.27317107343088937
0.20022099447513814,0.44729193478995155
0.2335911602209945,0.5989436018863308
0.26696132596685085,0.6991615504374373
0.30033149171270723,0.7339214161303426
0.33370165745856356,0.707338334231135
0.3670718232044199,0.6377328734721958
0.4004419889502763,0.5486189623170044
0.43381215469613266,0.45900151859616095
0.467182320441989,0.3774570715791148
0.5005524861878453,0.30225830558359656
0.5339226519337017,0.2265520488909322
0.5672928176795581,0.1451237441306586
0.6006629834254145,0.05887966421736516
0.6340331491712707,-0.025086130803096594
0.6674033149171271,-0.09724918952738436
0.7007734806629835,-0.1505717378862301
0.7341436464088398,-0.1836331068629449
0.7675138121546962,-0.20052056333496612
0.8008839779005525,-0.20818539908717318
0.8342541436464089,-0.21334413944073133
0.8676243093922653,-0.22077387880715957
0.9009944751381216,-0.23334821675329076
0.934364640883978,-0.2526196488303646
0.9677348066298344,-0.2784128703315854
1.0011049723756906,-0.3070591737759747
1.0344751381215471,-0.3296671674726712
1.0678453038674034,-0.3327011193727011
1.1012154696132597,-0.30219307311745436
1.1345856353591162,-0.23054945057333967
1.1679558011049724,-0.12266237910546196
1.201325966850829,0.0024687989733314475
1.2346961325966852,0.11656048661629777
1.2680662983425415,0.1919639364427429
1.301436464088398,0.2124252073783757
1.3348066298342542,0.17963383295718813
1.3681767955801105,0.11235202996261213
1.401546961325967,0.0384406610610178
1.4349171270718233,-0.016555320040886896
1.4682872928176796,-0.0391125360252109
1.501657458563536,-0.03158193735513978
1.5350276243093923,-0.008907180815934524
1.5683977900552488,0.009814070603387461
1.601767955801105,0.010809232052799505
1.6351381215469614,-0.008113109967034616
1.6685082872928179,-0.03704529910935178
1.7018784530386741,-0.05901101077731718
1.7352486187845306,-0.05797826112089995
1.768618784530387,-0.026258670385970163
1.8019889502762432,0.03169528449276818
1.8353591160220997,0.10032145966999328
1.868729281767956,0.15803800563693496
1.9020994475138122,0.18424273135010014
1.9354696132596687,0.1657257566073565
1.968839779005525,0.10058501162961005
2.0022099447513813,-0.0012009707936297817
2.0355801104972375,-0.12036073325019726
2.0689502762430942,-0.23321591033888556
2.1023204419889505,-0.3176696525856627
2.135690607734807,-0.3589249809884952
2.169060773480663,-0.3534391238362839
2.2024309392265193,-0.30972178261053135
2.235801104972376,-0.24523124659962997
2.2691712707182323,-0.17991727205585903
2.3025414364640886,-0.1285033627308744
2.335911602209945,-0.09458833525251238
2.369281767955801,-0.06934372697949043
2.402651933701658,-0.035845887048964686
2.436022099447514,0.022447047820991523
2.4693922651933704,0.11271094375927786
2.5027624309392267,0.22753837123103932
2.536132596685083,0.34638128117197037
2.5695027624309392,0.4435840699827593
2.602872928176796,0.4996705670968877
2.636243093922652,0.5105825381571519
2.6696132596685085,0.4900763252662752
2.7029834254143648,0.46352315842679825
2.736353591160221,0.4556342484469191
2.7697237569060777,0.477992014744779
2.803093922651934,0.5227941320565995
2.8364640883977903,0.5663542859537312
2.8698342541436466,0.5809324865372454
2.903204419889503,0.5489382173535329
2.936574585635359,0.47195411538209
2.969944751381216,0.369431658964457
3.003314917127072,0.26728029178038426
3.0366850828729284,0.18219301602490495
3.0700552486187846,0.11038266775672698
3.103425414364641,0.027693696234952894
3.1367955801104976,-0.0976429743617233
3.170165745856354,-0.2853376796460641
3.20353591160221,-0.526890399375304
3.2369060773480665,-0.7830789417973595
3.2702762430939227,-0.9993244845118306
3.3036464088397794,-1.133914367422714
3.3370165745856357,-1.18568764726288
3.370386740331492,-1.2049311710416355
3.4037569060773483,-1.2766437777321102
3.4371270718232045,-1.4779865726457675
3.4704972375690613,-1.8264627643060227
3.5038674033149175,-2.244596914204031
3.537237569060774,-2.5642903933068184
3.57060773480663,-2.57840783957903
3.6039779005524863,-2.1242832206418822
3.6373480662983426,-1.164743009193685
3.6707182320441993,0.17209978882353416
3.7040883977900556,1.6180980451565254
3.737458563535912,2.850590990959182
3.770828729281768,3.6048899190463657
3.8041988950276244,3.766590328046184
3.837569060773481,3.4047005844837455
3.8709392265193374,2.7326892907369458
3.9043093922651937,2.015994295336973
3.93767955801105,1.4668106108606112
3.9710497237569062,1.1705540787765212
4.0044198895027625,1.0724637606334235
4.037790055248619,1.0251106190147568
4.071160220994475,0.8709030884835378
4.104530386740332,0.5200909710938049
4.1379005524861885,-0.010059174972410734
4.171270718232044,-0.6087646350907744
4.204640883977901,-1.126588039458901
4.238011049723757,-1.4426674891078113
4.271381215469614,-1.5127542059696195
4.30475138121547,-1.3787810705206665
4.338121546961326,-1.1405172693706318
4.371491712707183,-0.9070622620373197
4.404861878453039,-0.7526497878988183
4.438232044198895,-0.6955728185493707
4.471602209944752,-0.7053752751329789
4.504972375690608,-0.7295264478696357
4.538342541436465,-0.7233848301283995
4.5717127071823205,-0.668900133594668
4.605082872928177,-0.5758299217372878
4.638453038674034,-0.46897748307636467
4.67182320441989,-0.37104151975582766
4.7051933701657465,-0.2907938082143055
4.738563535911602,-0.2215695385423255
4.771933701657459,-0.1487873367801979
4.805303867403316,-0.06083050502276873
4.8386740331491715,0.04310997642625479
4.872044198895028,0.15208289024817345
4.905414364640884,0.24916809443849308
4.938784530386741,0.3205049792996349
4.972154696132597,0.36273224532311815
5.005524861878453,0.38504565676657376
5.03889502762431,0.4047758179886864
5.072265193370166,0.43847067086501174
5.105635359116023,0.49261464282592726
5.1390055248618784,0.5584407681171553
5.172375690607735,0.6136346962664246
5.205745856353592,0.6307204025982612
5.239116022099448,0.5887973998489674
5.272486187845304,0.48348965763734325
5.30585635359116,0.33044727887541664
5.339226519337017,0.1604823071798276
5.372596685082874,0.008230800786282695
5.4059668508287295,-0.10073127785730629
5.439337016574586,-0.15866739555174544
5.472707182320442,-0.17665374509965942
5.506077348066299,-0.17765223527368154
5.5394475138121555,-0.1850583496257204
5.572817679558011,-0.21184945892536805
5.606187845303868,-0.25488040021491526
5.639558011049724,-0.2964613051959712
5.672928176795581,-0.31229147281542835
5.706298342541437,-0.2823695944788952
5.739668508287293,-0.20050028103003464
5.77303867403315,-0.07868345689639603
5.806408839779006,0.05537083902267792
5.839779005524862,0.16685861344939257
5.873149171270718,0.22566558874151332
5.906519337016575,0.21710595827305526
5.939889502762432,0.14756087434685686
5.9732596685082875,0.04261487047171086
6.006629834254144,-0.06194795895286998
6.04,-0.13299519663190554
6.073370165745857,-0.15164184714787526
6.1067403314917135,-0.11883326784096715
6.140110497237569,-0.052747290525460955
6.173480662983426,0.0204328448824495
6.206850828729282,0.07780928950021274
6.240220994475139,0.10782531826598346
6.273591160220995,0.11174044343559983
6.306961325966851,0.09876867232067547
6.340331491712708,0.0783784600448728
6.373701657458564,0.054391810832603506
6.40707182320442,0.02400203191176685
6.440441988950277,-0.018324872495844826
6.473812154696133,-0.07496114419387274
6.50718232044199,-0.14107212797219731
6.5405524861878455,-0.20488571886415688
6.573922651933702,-0.2520889139067308
6.607292817679559,-0.2718450909848833
6.640662983425415,-0.2612022053661859
6.674033149171271,-0.22575660159346866
6.707403314917127,-0.17655611914011013
6.740773480662984,-0.1251198313242912
6.774143646408841,-0.07913913514050465
6.8075138121546965,-0.04069356620982597
6.840883977900553,-0.007253898183998651
6.874254143646409,0.025672792678100444
6.907624309392266,0.06192080298678066
6.9409944751381225,0.10322839650591566
6.974364640883978,0.14912691467989878
7.007734806629835,0.19749737078138316
7.041104972375691,0.24502062507934796
7.074475138121548,0.2872382488910145
7.107845303867403,0.31854723665568413
7.14121546961326,0.3326808351001298
7.174585635359117,0.3239403608496707
7.207955801104973,0.28889746599128274
7.241325966850829,0.22789535599009103
7.274696132596685,0.14570133676866326
7.308066298342542,0.05105915638022017
7.341436464088399,-0.044627380401740475
7.3748066298342545,-0.12900852969149612
7.408176795580111,-0.19057860274937743
7.441546961325967,-0.22057394368909733
7.474917127071824,-0.21514374704908226
7.5082872928176805,-0.17755621618025047
7.541657458563536,-0.11944349243229203
7.575027624309393,-0.059649074285431605
7.608397790055249,-0.019792038730829374
7.641767955801106,-0.017232557871204295
7.675138121546962,-0.05790557199493071
7.708508287292818,-0.13231103772294173
7.741878453038675,-0.2170764625989498
7.775248618784531,-0.2821944357516014
7.808618784530387,-0.3014267344199721
7.841988950276244,-0.2618106388576329
7.8753591160221,-0.16847379305859006
7.908729281767957,-0.04286866842054854
7.9420994475138125,0.08485039828080247
7.975469613259669,0.1863516060709202
8.008839779005525,0.24452618395820108
8.042209944751383,0.25817456182186543
8.075580110497238,0.24022787941758406
8.108950276243094,0.2104149970545233
8.14232044198895,0.18571230852258144
8.175690607734808,0.1729315426334166
8.209060773480664,0.1667656756665681
8.24243093922652,0.15393060394368585
8.275801104972377,0.12106646904707138
8.309171270718233,0.06235493428460752
8.342541436464089,-0.01679253309461708
8.375911602209946,-0.10145894733229842
8.409281767955802,-0.17317028713065166
8.442651933701658,-0.21707095517034977
8.476022099447514,-0.22712697892386122
8.509392265193371,-0.20740448079495394
8.542762430939227,-0.16936937733755383
8.576132596685083,-0.1267823842432804
8.60950276243094,-0.09050164900260832
8.642872928176796,-0.0652109960670225
8.676243093922652,-0.04904427396613542
8.709613259668508,-0.035795683870410606
8.742983425414366,-0.018432309433814232
8.776353591160222,0.007685113015594952
8.809723756906077,0.043072635032321185
8.843093922651935,0.08425651036634332
8.87646408839779,0.12531132182774612
8.909834254143647,0.15988072695834676
8.943204419889504,0.18280652710195247
8.97657458563536,0.1909376873086348
9.009944751381216,0.1832335899007221
9.043314917127072,0.16057794779867063
9.07668508287293,0.12561233771211971
9.110055248618785,0.08252589992314632
9.143425414364641,0.03648199171623866
9.176795580110499,-0.007475548049538575
9.210165745856354,-0.045699435085208504
9.24353591160221,-0.07667827470521103
9.276906077348068,-0.1006614791006793
9.310276243093924,-0.11826843435706208
9.34364640883978,-0.1289424988259323
9.377016574585635,-0.13040074496851417
9.410386740331493,-0.1197751200948835
9.443756906077349,-0.09612597993710015
9.477127071823205,-0.06297785291802521
9.510497237569062,-0.0291039505320623
9.543867403314918,-0.006352668966071913
9.577237569060774,-0.004756491025306608
9.610607734806631,-0.026849257003954553
9.643977900552487,-0.06412146515601294
9.677348066298343,-0.0981375952613167
9.710718232044199,-0.1069434118743322
9.744088397790057,-0.0747439761816066
9.777458563535912,-0.000734087731128241
9.810828729281768,0.09736427241049482
9.844198895027626,0.18761618100722677
9.877569060773482,0.2351860093693511
9.910939226519337,0.21640874726201356
9.944309392265193,0.12968433767886633
9.97767955801105,-0.001812354400942383
10.011049723756907,-0.13733018244349685
10.044419889502763,-0.23313792417659981
10.07779005524862,-0.2587333865008093
10.111160220994476,-0.20809114894622643
10.144530386740332,-0.10144791610661472
10.17790055248619,0.022895603932021398
10.211270718232045,0.1231977230795477
10.244640883977901,0.1693571254363466
10.278011049723757,0.1526738215797871
10.311381215469615,0.08702557967082854
10.34475138121547,0.001803801684757217
10.378121546961326,-0.06991895047528406
10.411491712707184,-0.10308903707160982
10.44486187845304,-0.08800330189814633
10.478232044198895,-0.03127100711259833
10.511602209944753,0.04891473572460176
10.544972375690609,0.13054516242770076
10.578342541436465,0.19533736048319475
10.61171270718232,0.23347190786042937
10.645082872928178,0.24440162947956123
10.678453038674034,0.2341710560291329
10.71182320441989,0.21086340454022037
10.745193370165747,0.18028965652772805
10.778563535911603,0.14374892126561165
10.811933701657459,0.09872143469379115
10.845303867403315,0.04203137691287212
10.878674033149172,-0.02616690841395147
10.912044198895028,-0.09974983791786157
10.945414364640884,-0.16703471327795397
10.978784530386742,-0.21454254575473902
11.012154696132598,-0.23264833011239933
11.045524861878453,-0.22041555239565705
11.078895027624311,-0.1869942642676393
11.112265193370167,-0.14851066470639135
11.145635359116023,-0.12166562002248979
11.179005524861878,-0.11702841638340546
11.212375690607736,-0.1352146675381127
11.245745856353592,-0.16762123642941512
11.279116022099448,-0.20101909832502285
11.312486187845305,-0.22342730817357237
11.345856353591161,-0.22832195212258385
11.379226519337017,-0.21546860287408803
11.412596685082875,-0.18868251307312342
11.44596685082873,-0.1524134388556929
11.479337016574586,-0.1093514512182861
11.512707182320442,-0.06020367949525818
11.5460773480663,-0.005169573853015208
11.579447513812156,0.054447318197169116
11.612817679558011,0.11589298901045009
11.646187845303869,0.17606557122118668
11.679558011049725,0.23295227642127722
11.71292817679558,0.28593630914802326
11.746298342541436,0.33439428656043285
11.779668508287294,0.37546197431572714
11.81303867403315,0.4027806553321371
11.846408839779006,0.40771243336776214
11.879779005524863,0.38304242509634423
11.91314917127072,0.32744583848963854
11.946519337016575,0.2480968805077604
11.979889502762433,0.1594186631139209
12.013259668508288,0.07793925691629722
12.046629834254144,0.015501500335945238
12.08,-0.02568204082811359
12.113370165745858,-0.05331618457779081
12.146740331491714,-0.08023353923224341
12.18011049723757,-0.11692838677877812
12.213480662983427,-0.16540522312900044
12.246850828729283,-0.21769983494776118
12.280220994475139,-0.2598828116344859
12.313591160220996,-0.2793440629071276
12.346961325966852,-0.271397850483295
12.380331491712708,-0.24169759052300735
12.413701657458564,-0.20327749216919141
12.447071823204421,-0.16989043888300512
12.480441988950277,-0.14915028283077278
12.513812154696133,-0.13894174260765968
12.54718232044199,-0.12880295929359095
12.580552486187846,-0.10550502383121373
12.613922651933702,-0.06008509267179337
12.64729281767956,0.006979883613818958
12.680662983425416,0.08478209332617791
12.714033149171271,0.15552981671780963
12.747403314917127,0.20102303533046023
12.780773480662985,0.20934529885154024
12.81414364640884,0.179158380256603
12.847513812154697,0.12006355654366455
12.880883977900554,0.049016979137626
12.91425414364641,-0.015784291393024813
12.947624309392266,-0.06120774004102739
12.980994475138122,-0.08322032039883157
13.01436464088398,-0.08700113941377995
13.047734806629835,-0.08307352435651469
13.081104972375691,-0.0812183695552476
13.114475138121549,-0.08513033194355797
13.147845303867404,-0.09061626084468072
13.18121546961326,-0.08846331129487776
13.214585635359118,-0.07061279452635706
13.247955801104974,-0.03626158759059476
13.28132596685083,0.005789046700733347
13.314696132596685,0.04040316207181902
13.348066298342543,0.053753541476986605
13.381436464088399,0.04140129637395578
13.414806629834255,0.012242706610779612
13.448176795580112,-0.014283044630969995
13.481546961325968,-0.016764661413426613
13.514917127071824,0.017982944631475577
13.548287292817681,0.08824444645607528
13.581657458563537,0.17763379857774464
13.615027624309393,0.2620365494987578
13.648397790055249,0.3196562399465623
13.681767955801106,0.33912289793340633
13.715138121546962,0.32188690805228914
13.748508287292818,0.27832478483592255
13.781878453038676,0.22032625422398722
13.815248618784532,0.15478465012152415
13.848618784530387,0.08154352003145235
13.881988950276245,-0.0034232310007933924
13.9153591160221,-0.10185202544367235
13.948729281767957,-0.2079038130495778
13.982099447513813,-0.30698961101067185
14.01546961325967,-0.37960913415382136
14.048839779005526,-0.4084362040143365
14.082209944751382,-0.3853198882332849
14.11558011049724,-0.31508008344644217
14.148950276243095,-0.21459628350512652
14.182320441988951,-0.1077176193644455
14.215690607734807,-0.01802249701222377
14.249060773480664,0.03799961424369099
14.28243093922652,0.05512702505326014
14.315801104972376,0.0397164314496521
14.349171270718234,0.006237284712002054
14.38254143646409,-0.028569057350783158
14.415911602209945,-0.05163001741188172
14.449281767955803,-0.05726297229892813
14.482651933701659,-0.04728264286107772
14.516022099447515,-0.02770099962218008
14.54939226519337,-0.0038299869677349543
14.582762430939228,0.02355945193366952
14.616132596685084,0.0587814831895386
14.64950276243094,0.1078689342169287
14.682872928176797,0.17286480999885578
14.716243093922653,0.24698511596507003
14.749613259668509,0.3139287650549337
14.782983425414367,0.3527352223663843
14.816353591160222,0.3465343617966928
14.849723756906078,0.29095721990138906
14.883093922651934,0.1975504841703194
14.916464088397792,0.08982726701528809
14.949834254143648,-0.006501088234590269
14.983204419889503,-0.0742733052735148
15.016574585635361,-0.11111880968857378
15.049944751381217,-0.12818263366931845
15.083314917127073,-0.14250350894704425
15.116685082872928,-0.16760985648193868
15.150055248618786,-0.2075244972706563
15.183425414364642,-0.25694506797483324
15.216795580110498,-0.30647030519320073
15.250165745856355,-0.3488091131785181
15.283535911602211,-0.3817110398395753
15.316906077348067,-0.4059025766474188
15.350276243093925,-0.41988250571368824
15.38364640883978,-0.4157031718583986
15.417016574585636,-0.3794044746651846
15.450386740331492,-0.29687538506942796
15.48375690607735,-0.16238001748476497
15.517127071823205,0.015055533981779399
15.550497237569061,0.21150156866791112
15.583867403314919,0.39522545289245103
15.617237569060775,0.5381799128444194
15.65060773480663,0.6265015252585673
15.683977900552488,0.6648115397664947
15.717348066298344,0.6719347283568385
15.7507182320442,0.6697566681044668
15.784088397790056,0.6703505942993174
15.817458563535913,0.6676074314265704
15.85082872928177,0.6378504566238562
15.884198895027625,0.5500080130441083
15.917569060773483,0.38147329613884645
15.950939226519338,0.13272325363758142
15.984309392265194,-0.16639124775001907
16.01767955801105,-0.46262382483902215
16.051049723756908,-0.6961640663358154
16.084419889502765,-0.8217234802459314
16.11779005524862,-0.8248785237250624
16.151160220994477,-0.7264726380372994
16.18453038674033,-0.5731731041989527
16.21790055248619,-0.4185191146287022
16.251270718232046,-0.3029335610032548
16.2846408839779,-0.2412416033126111
16.318011049723758,-0.22232959232742636
16.351381215469615,-0.21970760664254463
16.38475138121547,-0.20681785168820016
16.418121546961327,-0.16931822545719147
16.451491712707185,-0.10890570649109375
16.48486187845304,-0.0381313699478712
16.518232044198896,0.02959182404041121
16.551602209944754,0.0884926756827083
16.584972375690608,0.1426794315578535
16.618342541436466,0.2013779414102308
16.651712707182323,0.27057558006196325
16.685082872928177,0.3463862589552214
16.718453038674035,0.4142238992094253
16.751823204419892,0.4544199210728839
16.785193370165747,0.4513148481046934
16.818563535911604,0.4010578299426584
16.851933701657458,0.31415341738959235
16.885303867403316,0.21155091214848817
16.918674033149173,0.11622822733774514
16.952044198895027,0.04423881592057393
16.985414364640885,-0.0007521505938553172
17.018784530386743,-0.02718430217990806
17.052154696132597,-0.05001320946744354
17.085524861878454,-0.08265061440254176
17.118895027624312,-0.13027003257430914
17.152265193370166,-0.18747591503674563
17.185635359116024,-0.24109754873820888
