Frequency (Hz),Amplitude
0.0,2.6009432542414617
0.019823788546255508,2.607819248473854
0.039647577092511016,2.628312355300559
0.059471365638766524,2.662028401299409
0.07929515418502203,2.7083433783448223
0.09911894273127755,2.7664468166333784
0.11894273127753305,2.835392287835573
0.13876651982378857,2.9141483406664097
0.15859030837004406,3.0016446098070175
0.17841409691629956,3.0968098992161184
0.1982378854625551,3.198601036514284
0.2180616740088106,3.3060228091465906
0.2378854625550661,3.418140201577719
0.25770925110132165,3.5340845321562973
0.27753303964757714,3.653055099292098
0.29735682819383263,3.774317751232672
0.31718061674008813,3.897201515666126
0.3370044052863437,4.021094142254908
0.3568281938325991,4.145437162815046
0.37665198237885467,4.2697208746111945
0.3964757709251102,4.393479502158126
0.41629955947136565,4.516286685322944
0.4361233480176212,4.637751367655445
0.4559471365638767,4.757514110297499
0.4757709251101322,4.875243826410148
0.49559471365638774,4.990634913233365
0.5154185022026433,5.103404749514418
0.5352422907488987,5.21329152213443
0.5550660792951543,5.320052345267495
0.5748898678414097,5.423461636922127
0.5947136563876653,5.523309720319351
0.6145374449339208,5.619401620662846
0.6343612334801763,5.711556031085829
0.6541850220264318,5.799604424699958
0.6740088105726874,5.88339029260301
0.6938325991189428,5.962768490367322
0.7136563876651982,6.037604677911509
0.7334801762114539,6.1077748397583065
0.7533039647577093,6.173164874518801
0.7731277533039648,6.233670244041786
0.7929515418502204,6.289195674052425
0.8127753303964759,6.3396548993034925
0.8325991189427313,6.384970447299563
0.8524229074889869,6.425073455552705
0.8722466960352424,6.459903518108311
0.8920704845814978,6.489408557759684
0.9118942731277534,6.513544720966295
0.931718061674009,6.532276293017425
0.9515418502202644,6.5455756314528015
0.9713656387665199,6.553423116175929
0.9911894273127755,6.555807115084444
1.0110132158590308,6.552723964403284
1.0308370044052866,6.544177963249603
1.0506607929515421,6.5301813822913335
1.0704845814977975,6.510754486690442
1.090308370044053,6.485925573856149
1.1101321585903086,6.455731026878939
1.1299559471365639,6.4202153848823
1.1497797356828194,6.37943143192272
1.1696035242290752,6.333440306500108
1.1894273127753305,6.282311634220015
1.209251101321586,6.226123686686939
1.2290748898678416,6.164963570318441
1.248898678414097,6.098927449466244
1.2687224669603525,6.028120809030933
1.288546255506608,5.952658762678587
1.3083700440528636,5.872666413833516
1.3281938325991192,5.7882792778532774
1.3480176211453747,5.69964377521655
1.36784140969163,5.6069178071979575
1.3876651982378856,5.510271427392945
1.4074889867841411,5.40988762461348
1.4273127753303965,5.305963235120365
1.4471365638766522,5.198710004890029
1.4669603524229078,5.088355825613919
1.4867841409691631,4.97514617133073
1.5066079295154187,4.859345765866278
1.5264317180616742,4.7412405143673295
1.5462555066079295,4.6211397347680805
1.5660792951541853,4.499378726386925
1.5859030837004409,4.3763217120299736
1.6057268722466962,4.252365185485712
1.6255506607929517,4.12794168593616
1.6453744493392073,4.003524001433159
1.6651982378854626,3.87962977081283
1.6850220264317182,3.756826401380578
1.7048458149779737,3.6357361409559874
1.7246696035242293,3.5170410287183014
1.7444933920704848,3.4014872909394995
1.7643171806167404,3.28988853891276
1.7841409691629957,3.1831268686284613
1.8039647577092512,3.0821506724527987
1.8237885462555068,2.9879676972187954
1.8436123348017623,2.901631705873411
1.863436123348018,2.824221153320732
1.8832599118942732,2.756808739213612
1.9030837004405288,2.7004217084463025
1.9229074889867843,2.6559943894909406
1.9427312775330399,2.6243165260298222
1.9625550660792954,2.6059829983206373
1.982378854625551,2.6013518237828226
2.002202643171806,2.610517149122348
2.0220264317180616,2.633301970546254
2.041850220264317,2.6692719099516493
2.061674008810573,2.7177675439807065
2.0814977973568287,2.7779497417025065
2.1013215859030843,2.8488510542637826
2.1211453744493394,2.929426547804437
2.140969162995595,3.018599084101504
2.1607929515418505,3.1152961702167095
2.180616740088106,3.2184774579072095
2.2004405286343616,3.327153404676607
2.220264317180617,3.440396427854152
2.2400881057268722,3.5573461908197452
2.2599118942731278,3.6772106246157303
2.2797356828193833,3.7992640682044416
2.299559471365639,3.922843623853721
2.319383259911895,4.047344541785796
2.3392070484581504,4.1722152052098584
2.3590308370044055,4.29695209446632
2.378854625550661,4.4210949655540395
2.3986784140969166,4.544222376356426
2.418502202643172,4.665947624470984
2.4383259911894277,4.785915115312504
2.4581497797356833,4.903797151159391
2.4779735682819384,5.019291115675227
2.497797356828194,5.132117020202121
2.5176211453744495,5.242015374971404
2.537444933920705,5.348745348362403
2.5572687224669606,5.452083179149056
2.577092511013216,5.551820809447034
2.5969162995594717,5.647764709260553
2.6167400881057272,5.739734866791228
2.6365638766519828,5.8275639218130655
2.6563876651982383,5.911096422332262
2.676211453744494,5.99018818738796
2.6960352422907494,6.064705761199624
2.715859030837005,6.134525945934204
2.73568281938326,6.199535402172282
2.7555066079295156,6.259630307721812
2.775330396475771,6.314716066787235
2.7951541850220267,6.364707062677054
2.8149779735682823,6.409526448249965
2.834801762114538,6.4491059691799535
2.854625550660793,6.4833858158855895
2.874449339207049,6.512314500636002
2.8942731277533045,6.535848756931564
2.91409691629956,6.5539534587753545
2.9339207048458156,6.566601557913889
2.953744493392071,6.573774037544777
2.9735682819383262,6.575459881372718
2.993392070484582,6.57165605725436
3.0132158590308373,6.562367515014322
3.033039647577093,6.547607198346869
3.0528634361233484,6.5273960710485985
3.072687224669604,6.501763158163639
3.092511013215859,6.470745602972777
3.1123348017621146,6.43438874112885
3.1321585903083706,6.392746193642322
3.151982378854626,6.345879980861256
3.1718061674008817,6.293860660080917
3.1916299559471373,6.23676748997063
3.2114537444933924,6.174688625633096
3.231277533039648,6.107721348829733
3.2511013215859035,6.035972338731211
3.270925110132159,5.959557989505812
3.2907488986784146,5.878604782161111
3.31057268722467,5.793249719331475
3.3303964757709252,5.703640833181886
3.350220264317181,5.6099377783052375
3.3700440528634363,5.512312523454294
3.389867841409692,5.410950158194795
3.4096916299559474,5.306049833111456
3.4295154185022034,5.197825855046061
3.4493392070484585,5.0865089619728865
3.469162995594714,4.972347805454206
3.4889867841409696,4.855610672027681
3.508810572687225,4.7365874781084765
3.5286343612334807,4.615592075619014
3.5484581497797363,4.492964906912899
3.5682819383259914,4.369076046579913
3.588105726872247,4.244328662815489
3.6079295154185025,4.11916291985666
3.627753303964758,3.9940603221581865
3.6475770925110136,3.8695484658162664
3.667400881057269,3.7462061069782444
3.6872246696035247,3.6246683726820375
3.7070484581497802,3.5056318175505736
3.726872246696036,3.389858860871164
3.7466960352422913,3.2781809167317926
3.7665198237885464,3.1714992576917074
3.7863436123348024,3.070782350429146
3.8061674008810575,2.9770581208063653
3.8259911894273135,2.8913994401939545
3.8458149779735686,2.814901218567206
3.8656387665198246,2.748648020888654
3.8854625550660797,2.693672249615492
3.905286343612335,2.6509046939249754
3.925110132158591,2.6211214235364255
3.9449339207048464,2.6048930658029814
3.964757709251102,2.6025436701996325
3.9845814977973575,2.6141259107819383
4.004405286343612,2.6394170550125726
4.024229074889869,2.6779364376043064
4.044052863436123,2.7289812513251896
4.06387665198238,2.791674547901933
4.083700440528634,2.865018199609727
4.103524229074891,2.9479442143584063
4.123348017621146,3.039359625462403
4.143171806167401,3.1381823886864892
4.162995594713657,3.2433676690341717
4.182819383259912,3.3539252613299904
4.2026431718061685,3.4689296218315517
4.222466960352423,3.5875242203115643
4.242290748898679,3.7089218325445446
4.262114537444934,3.832402141450915
4.28193832599119,3.9573077135967774
4.301762114537445,4.083039131596315
4.321585903083701,4.209049822183745
4.3414096916299565,4.334840932214457
4.361233480176212,4.459956466912398
4.381057268722468,4.583978807835395
4.400881057268723,4.706524662901261
4.420704845814979,4.827241458959151
4.440528634361234,4.9458041619403605
4.46035242290749,5.061912495351471
4.4801762114537445,5.175288520969441
4.500000000000001,5.285674543376747
4.5198237885462555,5.392831300594799
4.539647577092512,5.496536405308181
4.559471365638767,5.596583004221368
4.579295154185023,5.692778626451055
4.599118942731278,5.784944195224918
4.618942731277533,5.872913180358227
4.63876651982379,5.956530871921639
4.658590308370044,6.035653758160229
4.678414096916301,6.110148993069286
4.6982378854625555,6.17989394108962
4.718061674008811,6.244775788177591
4.737885462555067,6.304691210058282
4.757709251101322,6.359546089814162
4.777533039647578,6.409255278121962
4.797356828193833,6.4537423904533116
4.817180616740089,6.492939636422655
4.837004405286344,6.526787677219891
4.856828193832599,6.5552355077227435
4.876651982378855,6.578240360461253
4.896475770925111,6.595767629118271
4.9162995594713665,6.607790809706911
4.936123348017622,6.614291457980645
4.955947136563877,6.615259162013152
4.975770925110133,6.610691529241954
4.995594713656388,6.6005941876116285
5.015418502202644,6.584980800784984
5.035242290748899,6.563873097724265
5.055066079295155,6.537300917283405
5.07488986784141,6.50530226880815
5.094713656387666,6.4679234101183125
5.114537444933921,6.425218944657358
5.134361233480177,6.377251940046372
5.154185022026432,6.3240940707844295
5.174008810572688,6.265825788408149
5.193832599118943,6.20253652307212
5.213656387665199,6.134324921257222
5.2334801762114544,6.061299125172
5.25330396475771,5.983577100405467
5.2731277533039655,5.901287019540577
5.292951541850221,5.814567710773399
5.312775330396477,5.723569182131461
5.332599118942731,5.628453233676992
5.352422907488988,5.529394172146974
5.372246696035242,5.426579644849913
5.392070484581499,5.320211612329362
5.4118942731277535,5.210507482321636
5.43171806167401,5.097701430857454
5.451541850220265,4.982045939915909
5.47136563876652,4.86381358468913
5.491189427312777,4.7432991069954875
5.511013215859031,4.620821814241067
5.530837004405288,4.496728344852965
5.550660792951542,4.371395840166624
5.570484581497798,4.245235557630494
5.5903083700440535,4.118696948359907
5.610132158590309,3.992272199880657
5.6299559471365646,3.8665012072612663
5.64977973568282,3.741976875928259
5.669603524229076,3.6193505686632803
5.689427312775331,3.4993373775908347
5.709251101321586,3.3827207194927964
5.729074889867842,3.2703555131685627
5.748898678414098,3.163168904339829
5.768722466960353,3.062157180510127
5.788546255506609,2.9683772231016032
5.808370044052864,2.8829306833599353
5.82819383259912,2.8069392020140866
5.848017621145375,2.741509614648267
5.867841409691631,2.68768935893345
5.887665198237886,2.6464142429849233
5.907488986784142,2.6184530782494067
5.927312775330397,2.604355803440839
5.9471365638766525,2.6044127698844455
5.966960352422908,2.6186320841880217
5.986784140969164,2.6467391497030266
6.00660792951542,2.688198482079816
6.026431718061675,2.7422537848284847
6.04625550660793,2.8079794576634103
6.066079295154186,2.8843358676897837
6.085903083700441,2.970221704524748
6.105726872246697,3.0645188386269746
6.125550660792952,3.166127447271819
6.145374449339208,3.27399113262457
6.1651982378854635,3.3871130524303728
6.185022026431718,3.504564725273736
6.204845814977975,3.625489319756924
6.224669603524229,3.7491010843049897
6.244493392070486,3.874682282979069
6.264317180616741,4.00157868049443
6.284140969162996,4.129194325775586
6.303964757709252,4.256986142461664
6.323788546255507,4.384458650868309
6.3436123348017635,4.5111590129125565
6.363436123348018,4.636672499628267
6.3832599118942746,4.760618420149448
6.403083700440529,4.882646512764317
6.422907488986785,5.002433775990104
6.44273127753304,5.119681705459493
6.462555066079296,5.234113897061395
6.482378854625551,5.345473975679403
6.502202643171807,5.453523810288345
6.5220264317180625,5.558041978959969
6.541850220264318,5.658822450760902
6.561674008810574,5.755673455146487
6.581497797356829,5.8484165129934755
6.601321585903085,5.936885606725828
6.62114537444934,6.020926469999052
6.640969162995596,6.100395980095133
6.6607929515418505,6.17516163854757
6.680616740088107,6.245101127581954
6.700440528634362,6.3101019317509435
6.720264317180618,6.3700610156918955
6.740088105726873,6.424884550273137
6.759911894273129,6.474487680546704
6.779735682819384,6.518794329920262
6.799559471365639,6.557737035820744
6.819383259911895,6.59125681286833
6.83920704845815,6.619303040230198
6.859030837004407,6.6418333703950845
6.8788546255506615,6.658813657115725
6.898678414096917,6.67021790072003
6.918502202643173,6.676028209403227
6.938325991189428,6.6762347754928815
6.958149779735684,6.670835866035161
6.977973568281939,6.6598378273928445
6.997797356828195,6.643255103880247
7.01762114537445,6.6211102707966685
7.037444933920705,6.5934340825642295
7.0572687224669615,6.560265537038244
7.077092511013216,6.5216519574444725
7.096916299559473,6.477649093819445
7.116740088105728,6.428321246296359
7.136563876651983,6.3737414131014445
7.156387665198239,6.313991466718265
7.176211453744494,6.249162362352917
7.19603524229075,6.179354383611993
7.215859030837005,6.104677431203546
7.235682819383261,6.025251361514338
7.255506607929516,5.941206383128831
7.275330396475772,5.852683520765689
7.295154185022027,5.7598351577474505
7.314977973568283,5.662825670023095
7.334801762114538,5.56183216696488
7.354625550660794,5.457045356693905
7.374449339207049,5.348670556577428
7.394273127753305,5.236928872795665
7.4140969162995605,5.122058576480122
7.433920704845816,5.004316707809981
7.453744493392072,4.8839809434765415
7.473568281938327,4.76135176681212
7.493392070484583,4.636754983164239
7.513215859030838,4.510544625010963
7.533039647577093,4.383106290653023
7.552863436123348,4.254860955231666
7.572687224669605,4.126269280551985
7.59251101321586,3.997836426742595
7.612334801762115,3.870117328542355
7.6321585903083715,3.7437223344145076
7.651982378854627,3.619323008119756
7.671806167400882,3.4976577486069758
7.691629955947137,3.379536683958167
7.711453744493394,3.2658450314716827
7.731277533039649,3.1575437929036574
7.751101321585904,3.0556662986993253
7.7709251101321595,2.961308794285718
7.790748898678416,2.8756130971925997
7.81057268722467,2.799739528756234
7.830396475770926,2.7348290569685045
7.850220264317182,2.681955053627759
7.870044052863436,2.6420672648937353
7.889867841409693,2.6159331792488096
7.909691629955948,2.6040842112478546
7.929515418502204,2.606775031622911
7.9493392070484585,2.6239631959128222
7.969162995594715,2.6553129042342682
7.9889867841409705,2.7002221537945497
8.008810572687224,2.7578682234349055
8.02863436123348,2.827263731098181
8.048458149779737,2.9073150310137117
8.068281938325994,2.996876145064791
8.088105726872246,3.094793862513678
8.107929515418503,3.199942161382127
8.12775330396476,3.3112460859631505
8.147577092511014,3.4276964379953916
8.167400881057269,3.548357173507952
8.187224669603525,3.672367444223631
8.207048458149782,3.7989399938471116
8.226872246696036,3.9273572795815532
8.246696035242293,4.056966340724058
8.266519823788547,4.187173131420341
8.286343612334802,4.317436792063106
8.306167400881058,4.4472641529804315
8.325991189427315,4.576204636029349
8.345814977973568,4.703845633097344
8.365638766519824,4.829808384544
8.38546255506608,4.953744346337944
8.405286343612337,5.075332015167854
8.42511013215859,5.194274171086372
8.444933920704846,5.310295493723156
8.464757709251103,5.423140508346024
8.484581497797357,5.532571820436987
8.504405286343614,5.638368600933976
8.524229074889869,5.740325288210858
8.544052863436125,5.838250476829839
8.56387665198238,5.931965966875482
8.583700440528636,6.021305951149794
8.60352422907489,6.1061163206257385
8.623348017621145,6.1862540713121135
8.643171806167402,6.26158679809335
8.662995594713658,6.331992263199696
8.682819383259913,6.397358028769973
8.702643171806168,6.457581144525251
8.722466960352424,6.512567882909373
8.74229074889868,6.562233515202939
8.762114537444935,6.606502123107548
8.78193832599119,6.645306441152715
8.801762114537446,6.6785877260183115
8.821585903083701,6.706295649512249
8.841409691629957,6.728388212509403
8.861233480176212,6.744831677661033
8.881057268722468,6.755600519134242
8.900881057268723,6.760677388050907
8.92070484581498,6.760053092673777
8.940528634361234,6.753726592744698
8.960352422907489,6.741705007722734
8.980176211453745,6.724003639008093
9.000000000000002,6.70064600657799
9.019823788546258,6.671663900811308
9.039647577092511,6.637097450649239
9.059471365638768,6.5969952096358
9.079295154185024,6.551414261817758
9.099118942731279,6.500420349966862
9.118942731277533,6.444088029130554
9.13876651982379,6.382500849136901
9.158590308370046,6.31575157038767
9.1784140969163,6.243942418092663
9.198237885462555,6.167185381047389
9.218061674008812,6.085602562160888
9.237885462555067,5.999326589229446
9.257709251101323,5.908501095956537
9.27753303964758,5.813281284976124
9.297356828193834,5.713834586683842
9.317180616740089,5.610341430059552
9.337004405286345,5.502996144414396
9.356828193832602,5.392008014149589
9.376651982378855,5.277602512191094
9.396475770925111,5.16002274175604
9.416299559471367,5.039531120454029
9.436123348017622,4.916411345287737
9.455947136563877,4.790970681618472
9.475770925110133,4.663542623115217
9.49559471365639,4.534489972302632
9.515418502202644,4.4042083912673196
9.5352422907489,4.273130467362767
9.555066079295155,4.141730326342984
9.57488986784141,4.0105288008125575
9.594713656387666,3.880099118911388
9.614537444933923,3.7510730081813266
9.634361233480178,3.6241470015519175
9.654185022026432,3.5000885733006157
9.674008810572689,3.379741509542603
9.693832599118945,3.264029621497371
9.713656387665198,3.1539575446498618
9.733480176211454,3.0506069642659885
9.75330396475771,2.9551262452423006
9.773127753303967,2.8687112655623075
9.792951541850222,2.7925754730987036
9.812775330396477,2.727908060324758
9.832599118942733,2.6758208778977206
9.852422907488988,2.6372872561347203
9.872246696035244,2.6130788327399346
9.892070484581499,2.603708889464817
9.911894273127754,2.6093914451521587
9.93171806167401,2.630023627086004
9.951541850220266,2.6651947543826924
9.971365638766521,2.7142203164343166
9.991189427312776,2.776194404425165
10.011013215859032,2.8500516215756964
10.030837004405289,2.934629518695492
10.050660792951543,3.0287245993248546
10.070484581497798,3.1311378121819247
10.090308370044054,3.2407081799834128
10.11013215859031,3.3563352130978505
10.129955947136565,3.4769918828588198
10.14977973568282,3.601730328844993
10.169603524229077,3.7296823971695816
10.189427312775331,3.8600567858190584
10.209251101321588,3.9921341744354844
10.229074889867842,4.125261335915286
10.248898678414099,4.258844909350168
10.268722466960353,4.392345269123132
10.28854625550661,4.525270747621894
10.308370044052865,4.657172346735681
10.32819383259912,4.787638992788297
10.348017621145376,4.916293339142278
10.367841409691632,5.042788091086997
10.387665198237887,5.166802811859986
10.407488986784141,5.288041161793083
10.427312775330398,5.406228521207066
10.447136563876654,5.521109949514071
10.466960352422909,5.632448436536497
10.486784140969164,5.740023406371841
10.50660792951542,5.843629438652342
10.526431718061675,5.943075176431706
10.546255506607931,6.038182394001344
10.566079295154186,6.128785201614152
10.585903083700442,6.2147293673502695
10.605726872246697,6.295871739210152
10.625550660792953,6.372079752991769
10.645374449339208,6.4432310136404665
10.665198237885463,6.509212939591049
10.685022026431719,6.569922461190922
10.704845814977975,6.6252657656375735
10.724669603524232,6.675158082016312
10.744493392070485,6.719523501013495
10.764317180616741,6.75829482473353
10.784140969162998,6.791413442785557
10.803964757709252,6.81882923144818
