Time (s),Filtered Signal
0.0,0.02041970890796017
0.03337008452774715,-0.08884248030564333
0.0667401690554943,-0.18420770900614752
0.10011025358324147,-0.250002681875869
0.1334803381109886,-0.27034168204894055
0.16685042263873576,-0.23301995432743955
0.20022050716648293,-0.13468235976858317
0.23359059169423008,0.01542420747934247
0.2669606762219772,0.1952838478142425
0.30033076074972437,0.37393394640123234
0.3337008452774715,0.5178979431011425
0.36707092980521866,0.5981322563345121
0.40044101433296586,0.5958951635057459
0.433811098860713,0.5068893319101931
0.46718118338846015,0.34344758183542134
0.5005512679162073,0.13415318881346436
0.5339213524439544,-0.08021065826734843
0.5672914369717016,-0.2550701227413302
0.6006615214994487,-0.35375714670889474
0.6340316060271959,-0.35905954418602687
0.667401690554943,-0.2798195832923072
0.7007717750826902,-0.14878729491789586
0.7341418596104373,-0.011418243541207613
0.7675119441381845,0.09030486604135023
0.8008820286659317,0.132114299731955
0.8342521131936789,0.11344756385303224
0.867622197721426,0.052886514723861126
0.9009922822491732,-0.02391731818257769
0.9343623667769203,-0.09716027411508531
0.9677324513046675,-0.16010708836577345
1.0011025358324146,-0.21772682637314247
1.0344726203601617,-0.2786871932493083
1.0678427048879089,-0.34584486707650675
1.101212789415656,-0.41045561365445044
1.1345828739434032,-0.45284616685966916
1.1679529584711503,-0.4490249588385547
1.2013230429988975,-0.3803176899757345
1.2346931275266446,-0.24225355969269668
1.2680632120543918,-0.04934550502017983
1.301433296582139,0.16638094273916565
1.334803381109886,0.3634525024590635
1.3681734656376332,0.5036213101655118
1.4015435501653803,0.5648305712965008
1.4349136346931275,0.5490434381504887
1.4682837192208746,0.48084951718496133
1.5016538037486218,0.3966151183831714
1.535023888276369,0.3285868127093391
1.568393972804116,0.29115948372882267
1.6017640573318634,0.2757043015893394
1.6351341418596106,0.2562697228975555
1.6685042263873577,0.20334309415765406
1.7018743109151049,0.09930512841746539
1.735244395442852,-0.05128237780682165
1.7686144799705992,-0.22100833984834228
1.8019845644983463,-0.369016928263991
1.8353546490260935,-0.45691038280827767
1.8687247335538406,-0.4648126987058897
1.9020948180815878,-0.4007101767455212
1.935464902609335,-0.29838269838491815
1.968834987137082,-0.20384489365495428
2.002205071664829,-0.1555859896563237
2.0355751561925763,-0.1674181647530656
2.0689452407203235,-0.22219333045595244
2.1023153252480706,-0.2797793277916685
2.1356854097758178,-0.29576335610617865
2.169055494303565,-0.24203600954717536
2.202425578831312,-0.1196174531152985
2.235795663359059,0.04179650345007269
2.2691657478868064,0.19644206483867102
2.3025358324145535,0.3006078040227068
2.3359059169423007,0.32799838571062895
2.369276001470048,0.27666239128916076
2.402646085997795,0.1666101106620393
2.436016170525542,0.03138009783845651
2.4693862550532892,-0.09173815653024356
2.5027563395810364,-0.16948949664958332
2.5361264241087835,-0.17776378522386121
2.5694965086365307,-0.10522253450002568
2.602866593164278,0.04348849008259528
2.636236677692025,0.24558877170069146
2.669606762219772,0.4613834997553828
2.7029768467475193,0.6410841310664437
2.7363469312752664,0.7371784990607889
2.7697170158030135,0.7189899376308434
2.8030871003307607,0.5838189959198483
2.836457184858508,0.35954656283405867
2.869827269386255,0.09688994920543113
2.903197353914002,-0.14601630824523754
2.9365674384417493,-0.32084113728118585
2.9699375229694964,-0.40194849918638487
3.0033076074972436,-0.39132462249138744
3.0366776920249907,-0.3153481126300087
3.070047776552738,-0.21561072053288768
3.103417861080485,-0.13663733747037457
3.136787945608232,-0.11305221202364293
3.1701580301359793,-0.1587484066417718
3.203528114663727,-0.26121484032883513
3.236898199191474,-0.384246801685764
3.270268283719221,-0.4803280954292643
3.3036383682469683,-0.5097953501791326
3.3370084527747155,-0.45932707693071834
3.3703785373024626,-0.3504345151159682
3.4037486218302098,-0.2317003011485855
3.437118706357957,-0.15598733591366268
3.470488790885704,-0.15221172058162194
3.503858875413451,-0.2058180308949948
3.5372289599411983,-0.2596098622609617
3.5705990444689455,-0.23744255138406734
3.6039691289966926,-0.08160086256923423
3.63733921352444,0.21353930698991452
3.670709298052187,0.5889501377276091
3.704079382579934,0.9378290267050431
3.7374494671076812,1.1462136782270866
3.7708195516354284,1.139664858420325
3.8041896361631755,0.9147795193888579
3.8375597206909227,0.5411763949719378
3.87092980521867,0.13343249389245812
3.904299889746417,-0.19385158611871697
3.937669974274164,-0.36786342828068613
3.9710400588019112,-0.3791610935056177
4.004410143329658,-0.27625611588057464
4.0377802278574055,-0.1385898475306059
4.071150312385153,-0.041549286663529895
4.1045203969129,-0.028471557226397774
4.137890481440647,-0.09953228044884725
4.171260565968394,-0.21920952686916026
4.204630650496141,-0.3364985772653735
4.238000735023888,-0.407979512895566
4.2713708195516356,-0.41412996164763005
4.304740904079383,-0.36316082650914194
4.33811098860713,-0.28229967565290615
4.371481073134877,-0.20166235714503802
4.404851157662624,-0.13870756263875447
4.438221242190371,-0.09064153211495524
4.471591326718118,-0.038201898220817286
4.504961411245866,0.041356397656004545
4.538331495773613,0.15890143397138365
4.57170158030136,0.3038272474062783
4.605071664829107,0.4455107027538335
4.638441749356854,0.545469485159593
4.671811833884601,0.5743131478368826
4.7051819184123485,0.5250214731114412
4.738552002940096,0.41590106866880727
4.771922087467843,0.2818421682403027
4.80529217199559,0.15844749012324133
4.838662256523337,0.06707106934895142
4.872032341051084,0.007980080046634445
4.905402425578831,-0.03569530663180993
4.9387725101065785,-0.08623107179349418
4.972142594634326,-0.15848890290050197
5.005512679162073,-0.2525406726586174
5.03888276368982,-0.35466275935618224
5.072252848217567,-0.4448573146684145
5.105622932745314,-0.505913544766013
5.138993017273061,-0.5291200537890562
5.1723631018008085,-0.514637046086169
5.205733186328556,-0.4681240407986005
5.239103270856303,-0.3971314972640221
5.27247335538405,-0.3099208477462881
5.305843439911797,-0.21664441635067228
5.339213524439544,-0.13037272593810273
5.372583608967291,-0.06523761916983724
5.4059536934950385,-0.0312312243233691
5.439323778022786,-0.028289028353372905
5.472693862550533,-0.04374694126177228
5.50606394707828,-0.05572429071405341
5.539434031606027,-0.041296877925622005
5.572804116133774,0.01492022606128201
5.606174200661521,0.11649217515102007
5.6395442851892685,0.256888360266683
5.672914369717016,0.42465903165175356
5.706284454244763,0.6072067721636732
5.73965453877251,0.7898440524093233
5.773024623300257,0.9512838732242529
5.806394707828004,1.06076347652477
5.839764792355751,1.082298022801503
5.873134876883499,0.9872441659895684
5.906504961411246,0.7699691634485804
5.939875045938993,0.4574172278738859
5.97324513046674,0.10506736563261429
6.006615214994487,-0.2211155755111791
6.039985299522234,-0.4687211865567838
6.073355384049981,-0.6166158519918685
6.106725468577729,-0.6770317824175118
6.140095553105476,-0.6815827527803494
6.173465637633223,-0.6601643063827536
6.20683572216097,-0.6256401553041409
6.240205806688717,-0.5730741570010881
6.273575891216464,-0.49264719077046504
6.3069459757442115,-0.38654330099980405
6.340316060271959,-0.277722421783355
6.373686144799706,-0.20396962370001992
6.407056229327454,-0.20009881663814083
6.440426313855201,-0.2784829960832653
6.473796398382948,-0.41885947381408034
6.507166482910695,-0.5728007688076906
6.540536567438442,-0.6803421255678493
6.5739066519661895,-0.690729591901129
6.607276736493937,-0.57855962058838
6.640646821021684,-0.35000661704221414
6.674016905549431,-0.03871292525820221
6.707386990077178,0.3053481305489575
6.740757074604925,0.6293152453011902
6.774127159132672,0.8890783248531897
6.8074972436604195,1.056620543643965
6.840867328188167,1.1222893914594796
6.874237412715914,1.0925936249803823
6.907607497243661,0.9850226722665797
6.940977581771408,0.821800595327694
6.974347666299155,0.6244392629506338
7.007717750826902,0.4105078248240729
7.0410878353546495,0.19325967432375302
7.074457919882397,-0.016279508275000302
7.107828004410144,-0.20627340208220799
7.141198088937891,-0.362331681682334
7.174568173465638,-0.4690422298028998
7.207938257993385,-0.5151796060057844
7.241308342521132,-0.5005752904295659
7.27467842704888,-0.44067866391480975
7.308048511576627,-0.3648065353369216
7.341418596104374,-0.3066391831728948
7.374788680632121,-0.2898325149503457
7.408158765159868,-0.31542655770865535
7.441528849687615,-0.3584560830494694
7.4748989342153624,-0.37755889878061755
7.50826901874311,-0.33472394168656766
7.541639103270857,-0.21614936813740668
7.575009187798604,-0.043286478925963795
7.608379272326351,0.1328415129135275
7.641749356854098,0.25279715236134986
7.675119441381845,0.2760644013452728
7.7084895259095925,0.20163561075019953
7.74185961043734,0.07167284974460555
7.775229694965087,-0.04417926785512868
7.808599779492834,-0.07734157600319502
7.841969864020581,0.010578493250358973
7.875339948548328,0.21049273465550516
7.908710033076075,0.46741943749492026
7.9420801176038225,0.6999061280781251
7.97545020213157,0.8290949381637939
8.008820286659317,0.8059819088280242
8.042190371187063,0.6270035119570925
8.075560455714811,0.3332913367455771
8.108930540242557,-0.004759610353654396
8.142300624770305,-0.31108746165743145
8.175670709298052,-0.5272222975759624
8.2090407938258,-0.6277322772210947
8.242410878353546,-0.6235773846067889
8.275780962881294,-0.5532607887707159
8.30915104740904,-0.46563803924869596
8.342521131936788,-0.4009427036265987
8.375891216464534,-0.37710532028889
8.409261300992283,-0.38634096194759765
8.442631385520029,-0.40275693930507944
8.476001470047777,-0.39700168546004727
8.509371554575523,-0.3509301596523468
8.542741639103271,-0.26551056342873297
8.57611172363102,-0.15872507473127254
8.609481808158765,-0.055243611713934035
8.642851892686513,0.026410477653297987
8.67622197721426,0.08257462338298194
8.709592061742008,0.12483277470115149
8.742962146269754,0.17224597670963454
8.776332230797502,0.23972541365452416
8.809702315325248,0.3287322543588109
8.843072399852996,0.4252675222574283
8.876442484380743,0.5063928756426331
8.90981256890849,0.5521100246425774
8.943182653436237,0.556493946053481
8.976552737963985,0.5320097414644563
9.009922822491731,0.5040245174619757
9.04329290701948,0.4972948719748725
9.076662991547225,0.5205041329978126
9.110033076074973,0.5567079239413603
9.14340316060272,0.5657393856065946
9.176773245130468,0.4995903469906949
9.210143329658214,0.3254135741271807
9.243513414185962,0.046008733683362224
9.276883498713708,-0.29277682515581854
9.310253583241456,-0.6133587125413591
9.343623667769203,-0.8335080822421463
9.37699375229695,-0.8982243142298015
9.410363836824697,-0.8021697791213144
9.443733921352445,-0.5921753032674743
9.477104005880191,-0.3483921788082457
9.51047409040794,-0.1525366392000789
9.543844174935685,-0.057363945333841496
9.577214259463434,-0.07031207216063427
9.61058434399118,-0.1570931744859309
9.643954428518928,-0.26174659688162194
9.677324513046674,-0.3328644825357637
9.710694597574422,-0.34422222522166385
9.744064682102168,-0.3018498214210192
9.777434766629916,-0.23622678708504172
9.810804851157663,-0.18454450096766067
9.84417493568541,-0.1714308017557345
9.877545020213157,-0.19632902145733896
9.910915104740905,-0.23249069280132373
9.944285189268651,-0.23776331085889554
9.9776552737964,-0.1727423259416089
10.011025358324146,-0.018924419219439634
10.044395442851894,0.21069289594956028
10.07776552737964,0.4732877281755396
10.111135611907388,0.7099072281373747
10.144505696435134,0.8658182702177624
10.177875780962882,0.9092946255816114
10.211245865490628,0.8413746590434984
10.244615950018376,0.6930737664582822
10.277986034546123,0.5117768154922703
10.31135611907387,0.3427707826195983
10.344726203601617,0.21346138811462878
10.378096288129365,0.12628402017986198
10.411466372657111,0.06242776597942933
10.44483645718486,-0.00608025576455865
10.478206541712606,-0.10167349318906624
10.511576626240354,-0.23028451059030186
10.5449467107681,-0.3782798639901271
10.578316795295848,-0.517646054621902
10.611686879823594,-0.6163033086029077
10.645056964351342,-0.6488678971162661
10.678427048879088,-0.6039933521172137
10.711797133406836,-0.48674829910407685
10.745167217934583,-0.3168035685451444
10.77853730246233,-0.12424864455893077
10.811907386990077,0.05562276634393563
10.845277471517825,0.18841231048460214
10.878647556045571,0.24805834736421928
10.91201764057332,0.22521006430507548
10.945387725101066,0.13408599192853507
10.978757809628814,0.013666828480711244
11.01212789415656,-0.08043283909023964
11.045497978684308,-0.09357214895653944
11.078868063212054,0.005936183614221983
11.112238147739802,0.2096620329873996
11.145608232267548,0.4658205356426387
11.178978316795297,0.6938961193692216
11.212348401323043,0.8128678239813923
11.24571848585079,0.7717516219584513
11.279088570378537,0.5692690110901503
11.312458654906285,0.2539937648687353
11.345828739434031,-0.09485135559069324
11.37919882396178,-0.39715600165399745
11.412568908489526,-0.5992771023077812
11.445938993017274,-0.6880474484248725
11.47930907754502,-0.68728102786714
11.512679162072768,-0.6405807240462064
11.546049246600514,-0.589643225232436
11.579419331128262,-0.5579189025072853
11.612789415656009,-0.5456746755249072
11.646159500183757,-0.5364937292867151
11.679529584711503,-0.5100456523638097
11.71289966923925,-0.4538813971939867
11.746269753766997,-0.36865873494331314
11.779639838294745,-0.26536654808180454
11.813009922822491,-0.1574626549928122
11.84638000735024,-0.0531369133158054
11.879750091877986,0.0478710219917611
11.913120176405734,0.15167331097407974
11.94649026093348,0.26427833105515325
11.979860345461228,0.3865892864078455
12.013230429988974,0.5136491566751908
12.046600514516722,0.6381871862036409
12.079970599044469,0.7552596543184521
12.113340683572217,0.8637986254773548
12.146710768099963,0.9630204502063651
12.180080852627711,1.0455846394827282
12.213450937155457,1.092462343526736
12.246821021683205,1.0744223207165953
12.280191106210951,0.9615923536833235
12.3135611907387,0.7376631407190916
12.346931275266446,0.41195858717987205
12.380301359794194,0.022925277636054602
12.41367144432194,-0.3695033371170295
12.447041528849688,-0.6999754553243848
12.480411613377434,-0.9158726034648944
12.513781697905182,-0.9908777364128775
12.547151782432929,-0.9299895825219531
12.580521866960677,-0.7658174097829513
12.613891951488423,-0.548825776136148
12.647262036016171,-0.3350619414961201
12.680632120543917,-0.17418227502766115
12.714002205071665,-0.09947808800849385
12.747372289599411,-0.12107472263605612
12.78074237412716,-0.22365634484105182
12.814112458654908,-0.3701919869774697
12.847482543182654,-0.5122072218959182
12.880852627710402,-0.6048136442019414
12.914222712238148,-0.6218390742285302
12.947592796765896,-0.564806353947282
12.980962881293642,-0.46084255030595955
13.01433296582139,-0.3490565291100599
13.047703050349137,-0.2606792513419678
13.081073134876885,-0.20223437704444963
13.114443219404631,-0.15059481128250984
13.147813303932379,-0.06356216708003722
13.181183388460125,0.09810497953577764
13.214553472987873,0.3475045261336035
13.24792355751562,0.658779309461491
13.281293642043368,0.971559713193838
13.314663726571114,1.2112655644048063
13.348033811098862,1.3162525522699302
13.381403895626608,1.2597307360577437
13.414773980154356,1.0572998746262567
13.448144064682102,0.7580703970480038
13.48151414920985,0.42482202136763525
13.514884233737597,0.11276656294284838
13.548254318265345,-0.14438587992913268
13.581624402793091,-0.3370673558970293
13.614994487320839,-0.4728530623663944
13.648364571848585,-0.5652200925901483
13.681734656376333,-0.6239973800294272
13.71510474090408,-0.6512769149508447
13.748474825431828,-0.643263585729759
13.781844909959574,-0.5957362781010269
13.815214994487322,-0.5095078720036579
13.848585079015068,-0.39279404808139246
13.881955163542816,-0.25933758951318603
13.915325248070562,-0.12355220064606086
13.94869533259831,0.00434159440730821
13.982065417126057,0.12017145960007299
14.015435501653805,0.22344276306142694
14.048805586181551,0.312305121082527
14.082175670709299,0.37954179314268416
14.115545755237045,0.4131967653386171
14.148915839764793,0.40279975723927736
14.18228592429254,0.34821586104742946
14.215656008820288,0.26540966892426904
14.249026093348034,0.1840291424929739
14.282396177875782,0.13593232528839141
14.315766262403528,0.13941970872592055
14.349136346931276,0.18750989805340507
14.382506431459023,0.2475245478904519
14.41587651598677,0.2736805941541611
14.449246600514517,0.2273203722234426
14.482616685042265,0.09493496510857874
14.515986769570011,-0.10504729935428098
14.54935685409776,-0.32996943890659064
14.582726938625505,-0.5309126877575726
14.616097023153253,-0.6716609164550172
14.649467107681,-0.7395926919469074
14.682837192208748,-0.7444682071550751
14.716207276736494,-0.7077716558849819
14.749577361264242,-0.649665769462438
14.782947445791988,-0.5805015737519935
14.816317530319736,-0.49996200647095396
14.849687614847483,-0.4021950467098682
14.88305769937523,-0.28258942534462067
14.916427783902977,-0.1422300180433267
14.949797868430725,0.011482965555652007
14.983167952958471,0.16705009602267584
15.01653803748622,0.31183992186076315
15.049908122013965,0.43428692418600684
15.083278206541713,0.5251124407458537
15.11664829106946,0.5782453240031151
15.150018375597208,0.5919900562814172
15.183388460124954,0.5701823993773363
15.216758544652702,0.5224475125172536
15.250128629180448,0.4628543287448161
15.283498713708196,0.4071154071795472
15.316868798235943,0.36928370868746824
15.35023888276369,0.35897325932587204
15.383608967291437,0.37946969392890034
15.416979051819185,0.42638580225053757
15.450349136346931,0.4865456079683777
15.48371922087468,0.5376953296745148
15.517089305402425,0.5506772712689084
15.550459389930174,0.495673813257502
15.58382947445792,0.3523596643228374
15.617199558985668,0.12086995477396473
15.650569643513414,-0.17182108391699139
15.683939728041162,-0.4751989450463116
15.717309812568908,-0.7295115352066932
15.750679897096656,-0.8865790924554912
15.784049981624403,-0.9279914778914823
15.81742006615215,-0.871445238821194
15.850790150679897,-0.7612834023403996
15.884160235207645,-0.6474870701530878
15.917530319735391,-0.563653967653903
15.95090040426314,-0.51499292548562
15.984270488790886,-0.4817116801586052
16.017640573318634,-0.4347746950625538
16.05101065784638,-0.3547075158397802
16.084380742374126,-0.24321975137663202
16.117750826901876,-0.1219560083949678
16.151120911429622,-0.0198442699777993
16.18449099595737,0.04357805567512053
16.217861080485115,0.06972488236329412
16.251231165012864,0.0813211575388993
16.28460124954061,0.11154817157760927
16.317971334068357,0.18780126642216705
16.351341418596103,0.31841640771523194
16.384711503123853,0.4887048269527614
16.4180815876516,0.6673909984256639
16.451451672179346,0.8191841834777667
16.484821756707092,0.9167239275689332
16.51819184123484,0.9466011542760052
16.551561925762588,0.9082212669560644
16.584932010290334,0.8082646967932726
16.61830209481808,0.6552071776491187
16.65167217934583,0.45726151372420787
16.685042263873576,0.22429489605605574
16.718412348401323,-0.02846527567352735
16.75178243292907,-0.27836064858419296
16.78515251745682,-0.49747731120549876
16.818522601984565,-0.6592727694485094
16.85189268651231,-0.747106299442328
16.885262771040058,-0.7605358785107753
16.918632855567807,-0.7158381201679668
16.952002940095554,-0.6398512175940423
16.9853730246233,-0.5595996610239867
17.018743109151046,-0.49239974440022055
17.052113193678796,-0.44100331784805663
17.085483278206542,-0.3958572036256773
17.11885336273429,-0.3430328339892913
17.15222344726204,-0.27361221924561296
17.185593531789785,-0.18965171831578911
17.21896361631753,-0.10355828856717364
17.252333700845277,-0.030960633099461385
17.285703785373027,0.019547438168487266
