Time (s),Filtered Signal
0.0,-0.00902827202546202
0.033370165745856356,-0.03944106361434027
0.06674033149171271,-0.04952832615025142
0.10011049723756907,-0.02812684653271558
0.13348066298342542,0.02326013743462541
0.16685082872928178,0.09312665231156222
0.20022099447513814,0.16726458711988768
0.2335911602209945,0.2361627116976291
0.26696132596685085,0.29821705001099363
0.30033149171270723,0.3572197902865599
0.33370165745856356,0.41609819448291374
0.3670718232044199,0.47106365424949515
0.4004419889502763,0.5100254189097291
0.43381215469613266,0.5166095851034472
0.467182320441989,0.4778833110661776
0.5005524861878453,0.39172268181901454
0.5339226519337017,0.26983510526109705
0.5672928176795581,0.13466933026682373
0.6006629834254145,0.011574386332567094
0.6340331491712707,-0.08009706065952799
0.6674033149171271,-0.13290978380710622
0.7007734806629835,-0.15197487544716462
0.7341436464088398,-0.1506660766231635
0.7675138121546962,-0.14398434607388894
0.8008839779005525,-0.14276068541172612
0.8342541436464089,-0.15090383612838087
0.8676243093922653,-0.16609176100209266
0.9009944751381216,-0.18272454015963938
0.934364640883978,-0.19530606902779918
0.9677348066298344,-0.2007788608835191
1.0011049723756906,-0.19925815420339718
1.0344751381215471,-0.19348151190149013
1.0678453038674034,-0.18767281769996816
1.1012154696132597,-0.18636077455838818
1.1345856353591162,-0.19328374913251384
1.1679558011049724,-0.2102583684717046
1.201325966850829,-0.23601266911875515
1.2346961325966852,-0.26537349639603924
1.2680662983425415,-0.2894900226600281
1.301436464088398,-0.29762934985714234
1.3348066298342542,-0.2804349202074976
1.3681767955801105,-0.23367850969538742
1.401546961325967,-0.160937325901192
1.4349171270718233,-0.07369783311600643
1.4682872928176796,0.011751148100816539
1.501657458563536,0.07988951916540131
1.5350276243093923,0.1219441220699625
1.5683977900552488,0.139665709545482
1.601767955801105,0.14492701373029782
1.6351381215469614,0.15485176684603594
1.6685082872928179,0.18422940208011118
1.7018784530386741,0.2383950128583861
1.7352486187845306,0.30979168838485455
1.768618784530387,0.37995194584136915
1.8019889502762432,0.4262649750001161
1.8353591160220997,0.4307439558102539
1.868729281767956,0.38710277318874997
1.9020994475138122,0.30321921155529447
1.9354696132596687,0.19811821339650865
1.968839779005525,0.09497454347807884
2.0022099447513813,0.013225465506402809
2.0355801104972375,-0.03697679999589163
2.0689502762430942,-0.05603400686226836
2.1023204419889505,-0.05199890162537645
2.135690607734807,-0.035426891186484476
2.169060773480663,-0.014685577897104514
2.2024309392265193,0.006138745948393378
2.235801104972376,0.026174299032169
2.2691712707182323,0.04475724252805519
2.3025414364640886,0.05876748469420655
2.335911602209945,0.06231598239655354
2.369281767955801,0.04926704023275737
2.402651933701658,0.01714792285975116
2.436022099447514,-0.030126062378584822
2.4693922651933704,-0.0827703558898107
2.5027624309392267,-0.12899840752365913
2.536132596685083,-0.16017281286717563
2.5695027624309392,-0.17428456500131378
2.602872928176796,-0.17587209062624024
2.636243093922652,-0.17281694097637243
2.6696132596685085,-0.17240053314725196
2.7029834254143648,-0.17919155729348987
2.736353591160221,-0.19565446808951262
2.7697237569060777,-0.22409227697317102
2.803093922651934,-0.26737551431402445
2.8364640883977903,-0.32678446221482127
2.8698342541436466,-0.3976606677126035
2.903204419889503,-0.4657754744827439
2.936574585635359,-0.5077436928342376
2.969944751381216,-0.4969489053955231
3.003314917127072,-0.4133232783764844
3.0366850828729284,-0.25282351050334173
3.0700552486187846,-0.03209143467927848
3.103425414364641,0.21420512774139377
3.1367955801104976,0.44263120567874675
3.170165745856354,0.6133610494554478
3.20353591160221,0.7011106349079735
3.2369060773480665,0.7009277572480949
3.2702762430939227,0.627354257269149
3.3036464088397794,0.5080035599183175
3.3370165745856357,0.3744094315377777
3.370386740331492,0.2534780680889556
3.4037569060773483,0.16204593950460333
3.4371270718232045,0.10548601566901142
3.4704972375690613,0.07975220714242326
3.5038674033149175,0.07526006429297293
3.537237569060774,0.08081659768544391
3.57060773480663,0.08636374477171392
3.6039779005524863,0.0842275622232892
3.6373480662983426,0.06935900090636384
3.6707182320441993,0.03933386363863446
3.7040883977900556,-0.005386201616911995
3.737458563535912,-0.06098042734396949
3.770828729281768,-0.12012208384920389
3.8041988950276244,-0.1728606668095194
3.837569060773481,-0.20893561623164833
3.8709392265193374,-0.22119410264913766
3.9043093922651937,-0.20891520163615304
3.93767955801105,-0.17935525091966142
3.9710497237569062,-0.14621362922229478
4.0044198895027625,-0.12502865492772203
4.037790055248619,-0.1271651419518111
4.071160220994475,-0.15507654658365755
4.104530386740332,-0.20116915111801809
4.1379005524861885,-0.25089764868293396
4.171270718232044,-0.28857002039080987
4.204640883977901,-0.3029773023231348
4.238011049723757,-0.2902179334503336
4.271381215469614,-0.2528250159927319
4.30475138121547,-0.19647576734340613
4.338121546961326,-0.12682068148780737
4.371491712707183,-0.04852813510473096
4.404861878453039,0.033202709453960574
4.438232044198895,0.11043144681764622
4.471602209944752,0.17217147623556184
4.504972375690608,0.20758289939505442
4.538342541436465,0.21189358405630085
4.5717127071823205,0.1919445450881294
4.605082872928177,0.16745456324636493
4.638453038674034,0.1656034449070695
4.67182320441989,0.2098590968394317
4.7051933701657465,0.30748621735705517
4.738563535911602,0.44186730551216397
4.771933701657459,0.5743823961800018
4.805303867403316,0.6564664653676372
4.8386740331491715,0.6475121224942478
4.872044198895028,0.5310653228851191
4.905414364640884,0.32207754726223864
4.938784530386741,0.06185264013542209
4.972154696132597,-0.19707738719121148
5.005524861878453,-0.40936648343595256
5.03889502762431,-0.5505356891984072
5.072265193370166,-0.6205164622705169
5.105635359116023,-0.6367168296981114
5.1390055248618784,-0.6211926762989947
5.172375690607735,-0.5888844484008794
5.205745856353592,-0.5426853299371007
5.239116022099448,-0.4770976772416176
5.272486187845304,-0.3874985670525647
5.30585635359116,-0.27897195080489745
5.339226519337017,-0.1688620360100435
5.372596685082874,-0.08065877611851768
5.4059668508287295,-0.03185810010677696
5.439337016574586,-0.02239798453306813
5.472707182320442,-0.030841364998498072
5.506077348066299,-0.021966213138268482
5.5394475138121555,0.03666457038777471
5.572817679558011,0.1571149404134601
5.606187845303868,0.3221957780046732
5.639558011049724,0.4914954099715995
5.672928176795581,0.6209518147890722
5.706298342541437,0.6866731741311599
5.739668508287293,0.6998719887316888
5.77303867403315,0.7028352159385943
5.806408839779006,0.7451647519573547
5.839779005524862,0.850774873736249
5.873149171270718,0.993188073991184
5.906519337016575,1.094820469841493
5.939889502762432,1.0549222287018607
5.9732596685082875,0.7956711360437275
6.006629834254144,0.30473528169366204
6.04,-0.3477897292419761
6.073370165745857,-1.0285735314376991
6.1067403314917135,-1.5889217367652422
6.140110497237569,-1.9192375368808425
6.173480662983426,-1.9848438629085796
6.206850828729282,-1.8279890695182135
6.240220994475139,-1.5382848929905377
6.273591160220995,-1.2088662883425052
6.306961325966851,-0.9003968872281826
6.340331491712708,-0.6281247008420149
6.373701657458564,-0.3735287645139092
6.40707182320442,-0.10972884914315967
6.440441988950277,0.17499097236864664
6.473812154696133,0.467189989414506
6.50718232044199,0.7342719874999944
6.5405524861878455,0.9403437988925966
6.573922651933702,1.0621188277272022
6.607292817679559,1.0971158417576101
6.640662983425415,1.061817907982813
6.674033149171271,0.982672502030286
6.707403314917127,0.8853070468454536
6.740773480662984,0.7866634844901887
6.774143646408841,0.6922042433060367
6.8075138121546965,0.5977298833384308
6.840883977900553,0.49389968838437387
6.874254143646409,0.3714269701614744
6.907624309392266,0.22552614899693002
6.9409944751381225,0.058800281170150015
6.974364640883978,-0.11793755508168445
7.007734806629835,-0.28724678043222157
7.041104972375691,-0.42900113827316244
7.074475138121548,-0.5259101948013889
7.107845303867403,-0.5690049079891072
7.14121546961326,-0.5610474482264403
7.174585635359117,-0.5162471677089763
7.207955801104973,-0.45595506319292123
7.241325966850829,-0.401674632190396
7.274696132596685,-0.3679774182801666
7.308066298342542,-0.358090906106762
7.341436464088399,-0.3638874441566452
7.3748066298342545,-0.37019242940308933
7.408176795580111,-0.3615534810179016
7.441546961325967,-0.32863803281888443
7.474917127071824,-0.27164909786361224
7.5082872928176805,-0.19945180666541115
7.541657458563536,-0.12493932169980179
7.575027624309393,-0.058781548064386666
7.608397790055249,-0.004414464968771006
7.641767955801106,0.04339451998339808
7.675138121546962,0.09565058940356654
7.708508287292818,0.16312054637347215
7.741878453038675,0.2498937234003755
7.775248618784531,0.3494872376335629
7.808618784530387,0.44542581728475034
7.841988950276244,0.5163179925079348
7.8753591160221,0.5435019745636139
7.908729281767957,0.5181671918474497
7.9420994475138125,0.44497472757483647
7.975469613259669,0.3406049905712078
8.008839779005525,0.2278107592530427
8.042209944751383,0.1275048158554583
8.075580110497238,0.052216348311622744
8.108950276243094,0.0034812641346588322
8.14232044198895,-0.026209818375456995
8.175690607734808,-0.04835692763862019
8.209060773480664,-0.07289173980801181
8.24243093922652,-0.10448836023748163
8.275801104972377,-0.14184683229828374
8.309171270718233,-0.179548826058636
8.342541436464089,-0.2110985295816436
8.375911602209946,-0.2316109426128336
8.409281767955802,-0.23915033040167002
8.442651933701658,-0.23454927043500534
8.476022099447514,-0.22022939910355835
8.509392265193371,-0.19882352468417136
8.542762430939227,-0.17222616526638465
8.576132596685083,-0.141272305841168
8.60950276243094,-0.10587817976924409
8.642872928176796,-0.06540202924910929
8.676243093922652,-0.019171160647496747
8.709613259668508,0.03268844827675456
8.742983425414366,0.08807438752862451
8.776353591160222,0.1417526132348178
8.809723756906077,0.1850539537958906
8.843093922651935,0.2073020159968893
8.87646408839779,0.1992082856357613
8.909834254143647,0.15729700497505097
8.943204419889504,0.08735994498709282
8.97657458563536,0.004770985975362978
9.009944751381216,-0.06939965693325169
9.043314917127072,-0.1155231258943152
9.07668508287293,-0.12298833549039163
9.110055248618785,-0.0947904582834351
9.143425414364641,-0.04680941602752334
9.176795580110499,-0.0017846921897577692
9.210165745856354,0.0196224410879031
9.24353591160221,0.007006694280311041
9.276906077348068,-0.035675073818970615
9.310276243093924,-0.09165023985410826
9.34364640883978,-0.13783735059215474
9.377016574585635,-0.15373034509722364
9.410386740331493,-0.12922351571935786
9.443756906077349,-0.06837103256161442
9.477127071823205,0.012369047018714545
9.510497237569062,0.09069389473491563
9.543867403314918,0.1471341587767457
9.577237569060774,0.1722326501218011
9.610607734806631,0.16921641611522126
9.643977900552487,0.1511432628954831
9.677348066298343,0.13399526754255492
9.710718232044199,0.12900150821189202
9.744088397790057,0.13771548781795623
9.777458563535912,0.1519435163555784
9.810828729281768,0.15825272960961026
9.844198895027626,0.14466498113094156
9.877569060773482,0.10628145353979734
9.910939226519337,0.04732758724388806
9.944309392265193,-0.021003832575641194
9.97767955801105,-0.08549887632743677
10.011049723756907,-0.13607055277017285
10.044419889502763,-0.16871758518390778
10.07779005524862,-0.18525709349381864
10.111160220994476,-0.19052328396080084
10.144530386740332,-0.18891041544143192
10.17790055248619,-0.1822117220498466
10.211270718232045,-0.16972104929713666
10.244640883977901,-0.1501410950206872
10.278011049723757,-0.12380960891087427
10.311381215469615,-0.09368008797123868
10.34475138121547,-0.06436334009257222
10.378121546961326,-0.039781985824749545
10.411491712707184,-0.020852746352455365
10.44486187845304,-0.004615501379987486
10.478232044198895,0.014559974579627506
10.511602209944753,0.042145957268406316
10.544972375690609,0.08028557704477671
10.578342541436465,0.12577604307271611
10.61171270718232,0.17028168449313116
10.645082872928178,0.20295951624273498
10.678453038674034,0.21461706568905825
10.71182320441989,0.2016891713585066
10.745193370165747,0.1681421459168574
10.778563535911603,0.1241406249361396
10.811933701657459,0.08178180281936898
10.845303867403315,0.04976505824379974
10.878674033149172,0.029640464793472075
10.912044198895028,0.015670334501493625
10.945414364640884,-0.0014945600394920093
10.978784530386742,-0.029212017733410176
11.012154696132598,-0.06831254827144982
11.045524861878453,-0.11204165770762049
11.078895027624311,-0.14895793847428346
11.112265193370167,-0.1681554474206274
11.145635359116023,-0.16411596141707857
11.179005524861878,-0.1389648293534929
11.212375690607736,-0.1014295215469813
11.245745856353592,-0.06338468631551644
11.279116022099448,-0.03568684820129263
11.312486187845305,-0.024853245879241218
11.345856353591161,-0.0314045434132255
11.379226519337017,-0.04995050726081402
11.412596685082875,-0.07071764314272555
11.44596685082873,-0.0821682640641181
11.479337016574586,-0.07433653383464799
11.512707182320442,-0.042248538334783294
11.5460773480663,0.011630890396284206
11.579447513812156,0.077162877332284
11.612817679558011,0.13924899922468625
11.646187845303869,0.1830049070328858
11.679558011049725,0.19947630709014436
11.71292817679558,0.18923745972630426
11.746298342541436,0.16182843884932513
11.779668508287294,0.1309045662388986
11.81303867403315,0.10727562964765082
11.846408839779006,0.09338224378048945
11.879779005524863,0.08225782511393152
11.91314917127072,0.06175060081477738
11.946519337016575,0.021900354130202977
11.979889502762433,-0.03849343257745947
12.013259668508288,-0.10977491710745428
12.046629834254144,-0.1750870606297525
12.08,-0.2179096693535955
12.113370165745858,-0.22949619227561618
12.146740331491714,-0.21233902486133086
12.18011049723757,-0.17801415324601422
12.213480662983427,-0.1407760030106179
12.246850828729283,-0.1104227338869269
12.280220994475139,-0.08814222129703567
12.313591160220996,-0.06729218578709022
12.346961325966852,-0.038380708954510616
12.380331491712708,0.00466290442507545
12.413701657458564,0.06038075941407346
12.447071823204421,0.11996973817391608
12.480441988950277,0.17144992125437652
12.513812154696133,0.20533600347212935
12.54718232044199,0.21862420022014267
12.580552486187846,0.21503899478591473
12.613922651933702,0.2017410119601433
12.64729281767956,0.18471075253507963
12.680662983425416,0.1656128249776378
12.714033149171271,0.14184391334145444
12.747403314917127,0.10944085888831641
12.780773480662985,0.0668369749835466
12.81414364640884,0.017071907163897414
12.847513812154697,-0.03288526175967363
12.880883977900554,-0.07525405841677248
12.91425414364641,-0.10511970674198126
12.947624309392266,-0.12252370432890321
12.980994475138122,-0.13183627749632504
13.01436464088398,-0.1389126817319851
13.047734806629835,-0.14778159437089217
13.081104972375691,-0.15874660212509578
13.114475138121549,-0.1688003119646408
13.147845303867404,-0.1738430607673086
13.18121546961326,-0.17125498542772002
13.214585635359118,-0.16139281504936434
13.247955801104974,-0.14740021597116665
13.28132596685083,-0.13369257031520973
13.314696132596685,-0.1239981371151788
13.348066298342543,-0.11974386330739781
13.381436464088399,-0.11916346245431614
13.414806629834255,-0.11720484608588162
13.448176795580112,-0.10629826728468693
13.481546961325968,-0.07811885970404778
13.514917127071824,-0.026296130117922766
13.548287292817681,0.05052571840089806
13.581657458563537,0.14648487013657907
13.615027624309393,0.24849863315699208
13.648397790055249,0.33911487781201505
13.681767955801106,0.40156416501464076
13.715138121546962,0.42512396471248287
13.748508287292818,0.40850822471213954
13.781878453038676,0.35975381658767214
13.815248618784532,0.2926479325681071
13.848618784530387,0.22132353233484944
13.881988950276245,0.15543620389198792
13.9153591160221,0.09794421736840668
13.948729281767957,0.04617399023481665
13.982099447513813,-0.0047282144954524175
14.01546961325967,-0.057882425262960675
14.048839779005526,-0.11222960815155132
14.082209944751382,-0.16257240885498528
14.11558011049724,-0.20183861988682822
14.148950276243095,-0.22431513123205218
14.182320441988951,-0.22831850777583576
14.215690607734807,-0.21719977152339381
14.249060773480664,-0.19839794129024077
14.28243093922652,-0.18102866234392162
14.315801104972376,-0.17292113416050706
14.349171270718234,-0.17804254849509213
14.38254143646409,-0.19501296763898934
14.415911602209945,-0.2170963443423498
14.449281767955803,-0.23374384490055658
14.482651933701659,-0.2334395549199241
14.516022099447515,-0.2072187700558896
14.54939226519337,-0.15186674972658765
14.582762430939228,-0.07166216726106188
14.616132596685084,0.022183875942830254
14.64950276243094,0.11448484940929593
14.682872928176797,0.19053466252874743
14.716243093922653,0.24040725270224217
14.749613259668509,0.2613740198020841
14.782983425414367,0.2574899931971069
14.816353591160222,0.23671534753563647
14.849723756906078,0.2071199209711588
14.883093922651934,0.17409691312752168
14.916464088397792,0.13984604173202916
14.949834254143648,0.10503886994890653
14.983204419889503,0.07131632009776234
15.016574585635361,0.042806944525374944
15.049944751381217,0.025447335885845416
15.083314917127073,0.02419622488300764
15.116685082872928,0.03954157860945804
15.150055248618786,0.06529787237506748
15.183425414364642,0.08924470894478938
15.216795580110498,0.09686178138537836
15.250165745856355,0.07688293278941967
15.283535911602211,0.02635959515841722
15.316906077348067,-0.0470943573732265
15.350276243093925,-0.1271486330836004
15.38364640883978,-0.19425924000016048
15.417016574585636,-0.2327628510895576
15.450386740331492,-0.23666669871252308
15.48375690607735,-0.21162076003461908
15.517127071823205,-0.172069401227258
15.550497237569061,-0.13463496270189926
15.583867403314919,-0.11051826527691422
15.617237569060775,-0.10031018915069732
15.65060773480663,-0.09372283674665133
15.683977900552488,-0.0746409979830217
15.717348066298344,-0.029432876589474636
15.7507182320442,0.04522621715818509
15.784088397790056,0.13879102225545384
15.817458563535913,0.2295251165222027
15.85082872928177,0.2925186585747639
15.884198895027625,0.3095251712852849
15.917569060773483,0.27609238204251835
15.950939226519338,0.2026866805013918
15.984309392265194,0.10944623874449985
16.01767955801105,0.017370693249396517
16.051049723756908,-0.059522466645572356
16.084419889502765,-0.1172466111607857
16.11779005524862,-0.15906193723871073
16.151160220994477,-0.18916719422399947
16.18453038674033,-0.20716470962168596
16.21790055248619,-0.20703122049164469
16.251270718232046,-0.18147281002984383
16.2846408839779,-0.12903982174088505
16.318011049723758,-0.05932424369015694
16.351381215469615,0.007727233204064345
16.38475138121547,0.049157035755738286
16.418121546961327,0.049846760565708526
16.451491712707185,0.01130404518368278
16.48486187845304,-0.04665716658071642
16.518232044198896,-0.0930739346853593
16.551602209944754,-0.09912429482853698
16.584972375690608,-0.05155812832538376
16.618342541436466,0.04015664061894876
16.651712707182323,0.14668760243551812
16.685082872928177,0.23079653111805798
16.718453038674035,0.26317658114859455
16.751823204419892,0.23497517046916683
16.785193370165747,0.1612233840364351
16.818563535911604,0.07360404558595994
16.851933701657458,0.006023420321090207
16.885303867403316,-0.02015651768169834
16.918674033149173,-0.004332604432693101
16.952044198895027,0.03521123203793745
16.985414364640885,0.0717557957843662
17.018784530386743,0.08354875061819328
17.052154696132597,0.06341311163986178
17.085524861878454,0.02018373226644914
17.118895027624312,-0.0279459176296407
17.152265193370166,-0.06397198394006066
