Frequency (Hz),Amplitude
0.0,1.255128452426242
0.019801980198019802,1.2626918025041143
0.039603960396039604,1.2850856024674682
0.0594059405940594,1.3214710851640437
0.07920792079207921,1.3705981477335245
0.09900990099009901,1.430973145939673
0.1188118811881188,1.501017587764678
0.13861386138613863,1.579189305602052
0.15841584158415842,1.6640584051314329
0.1782178217821782,1.7543441897757281
0.19801980198019803,1.848924546262652
0.21782178217821782,1.9468288471585562
0.2376237623762376,2.0472226701399197
0.25742574257425743,2.1493896685315783
0.27722772277227725,2.2527136079733023
0.297029702970297,2.3566620402696628
0.31683168316831684,2.460772166220248
0.33663366336633666,2.5646389435385197
0.3564356435643564,2.6679052590837227
0.37623762376237624,2.7702538937138335
0.39603960396039606,2.8714009932383315
0.4158415841584158,2.9710907798557753
0.43564356435643564,3.069091273160017
0.45544554455445546,3.1651908271184372
0.4752475247524752,3.2591953241891987
0.495049504950495,3.350925897957922
0.5148514851485149,3.440217080937993
0.5346534653465347,3.526915294821851
0.5544554455445545,3.6108776171055155
0.5742574257425742,3.6919707712993186
0.594059405940594,3.770070298508803
0.613861386138614,3.8450598765573147
0.6336633663366337,3.916830759475204
0.6534653465346534,3.98528131546147
0.6732673267326733,4.050316645623537
0.6930693069306931,4.111848269147994
0.7128712871287128,4.169793863230931
0.7326732673267327,4.22407704824267
0.7524752475247525,4.274627210329518
0.7722772277227723,4.321379355050983
0.7920792079207921,4.364273986784659
0.8118811881188118,4.4032570095548484
0.8316831683168316,4.4382796456986044
0.8514851485148516,4.4692983694071176
0.8712871287128713,4.496274852698539
0.891089108910891,4.519175921811068
0.9108910891089109,4.537973522370067
0.9306930693069307,4.552644691993944
0.9504950495049505,4.563171539271387
0.9702970297029703,4.56954122827739
0.99009900990099,4.571745968004364
1.00990099009901,4.569783006275063
1.0297029702970297,4.563654627881147
1.0495049504950495,4.553368156861325
1.0693069306930694,4.5389359629996555
1.0891089108910892,4.520375472794886
1.108910891089109,4.497709185328026
1.1287128712871286,4.470964693645976
1.1485148514851484,4.440174712486461
1.1683168316831685,4.405377113404473
1.188118811881188,4.366614968626477
1.2079207920792079,4.323936605268714
1.227722772277228,4.2773956719188995
1.2475247524752475,4.227051220011651
1.2673267326732673,4.172967802942981
1.2871287128712872,4.11521559649062
1.3069306930693068,4.05387054486005
1.3267326732673268,3.9890145375953074
1.3465346534653466,3.9207356237204625
1.3663366336633662,3.8491282708656436
1.3861386138613863,3.774293678849181
1.405940594059406,3.6963401593208096
1.4257425742574257,3.61538359573014
1.4455445544554455,3.531548001212179
1.4653465346534653,3.4449661961550087
1.4851485148514851,3.3557806324640755
1.504950495049505,3.2641443981500196
1.5247524752475248,3.170222444204801
1.5445544554455446,3.074193086239355
1.5643564356435644,2.9762498465728076
1.5841584158415842,2.8766037190099487
1.6039603960396038,2.77548595908975
1.6237623762376237,2.673151527752359
1.6435643564356437,2.5698833465060895
1.6633663366336633,2.465997556921142
1.683168316831683,2.3618500147203028
1.7029702970297032,2.257844283851874
1.7227722772277227,2.1544414178087288
1.7425742574257426,2.0521718026081732
1.7623762376237624,1.9516492486418004
1.782178217821782,1.8535872882390256
1.801980198019802,1.7588171507973394
1.8217821782178218,1.6683059841567445
1.8415841584158414,1.583172368106654
1.8613861386138615,1.5046938666957
1.881188118811881,1.4342984043356548
1.900990099009901,1.3735284486552148
1.920792079207921,1.3239664150208283
1.9405940594059405,1.2871147480581944
1.9603960396039604,1.2642377712896535
1.98019801980198,1.256193071246892
2.0,1.2632979064511065
2.01980198019802,1.285275825131859
2.0396039603960396,1.3213035062600933
2.0594059405940595,1.3701401863926226
2.0792079207920793,1.4302954288737797
2.099009900990099,1.5001890528202786
2.118811881188119,1.5782740207889565
2.1386138613861387,1.6631139675874675
2.1584158415841586,1.7534212842855328
2.1782178217821784,1.848067216130807
2.1980198019801978,1.9460751258600364
2.217821782178218,2.046605341971707
2.237623762376238,2.1489370253774047
2.257425742574257,2.252450136816615
2.2772277227722775,2.3566090168006553
2.297029702970297,2.46094815193802
2.3168316831683167,2.5650601942779114
2.336633663366337,2.6685860569037603
2.3564356435643563,2.7712068147023334
2.376237623762376,2.872637122825888
2.3960396039603964,2.972619885674258
2.4158415841584158,3.070921943821083
2.4356435643564356,3.167330583753004
2.455445544554456,3.2616507102636887
2.4752475247524752,3.3537025517814514
2.495049504950495,3.443319794379359
2.514851485148515,3.530348061037583
2.5346534653465347,3.614643669509372
2.5544554455445545,3.6960726155517594
2.5742574257425743,3.774509738947763
2.594059405940594,3.8498380382093695
2.6138613861386135,3.9219481065628417
2.633663366336634,3.9907376671453476
2.6534653465346536,4.056111189577647
2.673267326732673,4.117979573453543
2.6930693069306932,4.176259886984844
2.712871287128713,4.230875151204446
2.7326732673267324,4.281754161871819
2.7524752475247527,4.328831342632114
2.7722772277227725,4.372046624122616
2.792079207920792,4.411345344651015
2.811881188118812,4.446678168833213
2.8316831683168315,4.478001021207204
2.8514851485148514,4.505275032361063
2.8712871287128716,4.528466495548852
2.891089108910891,4.547546832135613
2.910891089108911,4.562492564525165
2.9306930693069306,4.5732852954940455
2.9504950495049505,4.579911693090838
2.9702970297029703,4.58236348047001
2.99009900990099,4.580637430220498
3.00990099009901,4.574735362927048
3.0297029702970297,4.564664149872642
3.0495049504950495,4.550435719957519
3.0693069306930694,4.532067071080461
3.089108910891089,4.509580286404676
3.108910891089109,4.4830025561204945
3.128712871287129,4.452366205525328
3.148514851485148,4.417708730474526
3.1683168316831685,4.3790728415235085
3.1881188118811883,4.33650651838994
3.2079207920792077,4.2900630767273125
3.227722772277228,4.239801249630432
3.2475247524752473,4.185785286807322
3.267326732673267,4.128085074970886
3.2871287128712874,4.06677628375465
3.3069306930693068,4.001940542372464
3.3267326732673266,3.933665653365211
3.346534653465347,3.8620458511604316
3.366336633663366,3.787182114882296
3.386138613861386,3.7091825469746995
3.4059405940594063,3.6281628318505734
3.4257425742574257,3.5442467920954974
3.4455445544554455,3.457567063913125
3.4653465346534653,3.3682659187312076
3.485148514851485,3.2764962644787046
3.504950495049505,3.182422868357304
3.5247524752475248,3.0862238534118447
3.5445544554455446,2.988092534391387
3.564356435643564,2.8882396749135166
3.5841584158415842,2.786896268474407
3.603960396039604,2.684316971023373
3.6237623762376234,2.580784343021094
3.6435643564356437,2.4766140938206984
3.6633663366336635,2.3721615590280063
3.683168316831683,2.267829677340366
3.702970297029703,2.164078756582475
3.722772277227723,2.0614383081711183
3.7425742574257423,1.9605211460336922
3.762376237623762,1.862039722095441
3.7821782178217824,1.7668241952378454
3.801980198019802,1.6758408408359746
3.8217821782178216,1.5902079002637926
3.841584158415842,1.5112036799409574
3.8613861386138613,1.4402587339827528
3.881188118811881,1.3789210949399455
3.9009900990099013,1.3287827951070452
3.9207920792079207,1.2913607274169892
3.9405940594059405,1.2679383321468458
3.96039603960396,1.2593953500897257
3.98019801980198,1.26607115896039
4.0,1.2877077410369817
4.01980198019802,1.3234936568120743
4.03960396039604,1.3721924024136616
4.0594059405940595,1.4323109790125412
4.079207920792079,1.5022617681537274
4.099009900990099,1.5804876021963346
4.118811881188119,1.665541094849498
4.138613861386139,1.7561239271961187
4.158415841584159,1.8510975981762468
4.178217821782178,1.9494769458021606
4.198019801980198,2.050415014240911
4.217821782178218,2.153184816580285
4.237623762376238,2.2571611494497223
4.257425742574258,2.3618040124229824
4.2772277227722775,2.4666442260876043
4.297029702970297,2.5712713232182867
4.316831683168317,2.6753235376662023
4.336633663366336,2.7784796182770233
4.356435643564357,2.8804521776161374
4.376237623762377,2.9809823053999587
4.3960396039603955,3.07983521136336
4.415841584158416,3.1767967001231314
4.435643564356436,3.271670315977733
4.455445544554455,3.3642750263917733
4.475247524752476,3.4544433386989826
4.4950495049504955,3.542019765637019
4.514851485148514,3.626859572314949
4.534653465346535,3.7088277507873024
4.554455445544555,3.787798179201254
4.574257425742574,3.8636529310454093
4.594059405940594,3.936281706818148
4.613861386138614,4.005581365820579
4.633663366336633,4.07145554006201
4.653465346534653,4.133814315677741
4.673267326732674,4.192573969985866
4.693069306930693,4.247656754495703
4.712871287128713,4.298990715939615
4.732673267326733,4.346509548821144
4.752475247524752,4.3901524741254265
4.772277227722772,4.429864139777565
4.792079207920793,4.465594539204918
4.811881188118812,4.4972989449934175
4.8316831683168315,4.524937855154217
4.851485148514852,4.548476949956353
4.871287128712871,4.567887057651262
4.891089108910891,4.583144127730018
4.910891089108912,4.594229210625791
4.930693069306931,4.6011284430112385
4.9504950495049505,4.60383303805211
4.97029702970297,4.6023392801699705
4.99009900990099,4.596648524046175
5.00990099009901,4.586767197769658
5.02970297029703,4.572706810199212
5.0495049504950495,4.554483962781333
5.069306930693069,4.532120366241632
5.089108910891089,4.5056428627580996
5.108910891089109,4.475083454432582
5.128712871287129,4.440479339110239
5.148514851485149,4.4018729548633155
5.1683168316831685,4.35931203476381
5.188118811881188,4.312849673931744
5.207920792079208,4.262544411274793
5.227722772277227,4.20846032884807
5.247524752475248,4.1506671723812625
5.267326732673268,4.089240497270142
5.2871287128712865,4.024261845244033
5.306930693069307,3.9558189580424736
5.326732673267327,3.8840060358155273
5.346534653465346,3.8089240496715306
5.366336633663367,3.730681119919459
5.3861386138613865,3.649392974200411
5.405940594059405,3.565183503015169
5.425742574257426,3.478185434311535
5.445544554455446,3.388541154024469
5.465346534653465,3.296403706052975
5.485148514851486,3.201938013473596
5.504950495049505,3.1053223732799498
5.524752475247524,3.006750290144888
5.544554455445545,2.9064327312612988
5.564356435643565,2.8046009049196994
5.584158415841584,2.701509690784942
5.603960396039604,2.5974418802574544
5.623762376237624,2.4927134206044004
5.643564356435643,2.3876798950022553
5.663366336633663,2.282744507534841
5.683168316831684,2.1783678671403783
5.702970297029703,2.0750798567817985
5.7227722772277225,1.973493795207796
5.742574257425743,1.8743228811476806
5.762376237623762,1.7783984433667033
5.782178217821782,1.6866886407227606
5.801980198019803,1.6003147573998018
5.821782178217822,1.5205599463293737
5.841584158415841,1.4488622659106984
5.861386138613861,1.386780894802987
5.881188118811881,1.3359235164506846
5.900990099009901,1.2978274500691898
5.920792079207921,1.2738004142614896
5.9405940594059405,1.264747776147801
5.96039603960396,1.271032101205192
5.98019801980198,1.292412206933487
6.0,1.328084582948483
6.01980198019802,1.3768114395377127
6.03960396039604,1.4370909838296628
6.0594059405940595,1.5073220115577937
6.079207920792079,1.5859316545744913
6.099009900990099,1.6714567354234304
6.118811881188119,1.7625842835503631
6.138613861386139,1.858162859599393
6.158415841584159,1.9571962139655126
6.178217821782178,2.0588280484573374
6.198019801980198,2.1623235650693933
6.217821782178218,2.2670510374582906
6.237623762376237,2.372464998817431
6.257425742574258,2.478091657290621
6.2772277227722775,2.5835166178542717
6.297029702970296,2.6883747336232164
6.316831683168317,2.792341809775274
6.336633663366337,2.895127865177744
6.356435643564356,2.996471677205094
6.376237623762377,3.0961363706791047
6.396039603960396,3.1939058503669373
6.415841584158415,3.2895819124747967
6.435643564356436,3.3829819019126894
6.455445544554456,3.473936808322372
6.475247524752475,3.562289715282784
6.495049504950495,3.6478945343630436
6.514851485148515,3.730614969474115
6.534653465346534,3.810323667923592
6.554455445544554,3.8869015232637865
6.574257425742575,3.960237101908099
6.594059405940594,4.030226170951648
6.6138613861386135,4.09677130897156
6.633663366336634,4.159781585038754
6.653465346534653,4.2191722939340925
6.673267326732673,4.274864737774567
6.693069306930694,4.3267860460356
6.712871287128713,4.374869027392949
6.732673267326732,4.419052047974127
6.752475247524753,4.459278931559315
6.772277227722772,4.495498878050236
6.792079207920792,4.5276663971663265
6.811881188118813,4.555741254859201
6.8316831683168315,4.57968843037976
6.851485148514851,4.599478082306514
6.871287128712871,4.615085522160892
6.891089108910891,4.626491194510034
6.910891089108911,4.633680662696064
6.930693069306931,4.636644599544256
6.9504950495049505,4.6353787825957875
6.97029702970297,4.62988409359041
6.99009900990099,4.62016652209639
7.00990099009901,4.606237173353697
7.02970297029703,4.588112280567462
7.0495049504950495,4.56581322206642
7.069306930693069,4.539366543931793
7.089108910891089,4.508803988910518
7.108910891089109,4.474162532660877
7.128712871287128,4.435484428645173
7.148514851485149,4.392817263293201
7.1683168316831685,4.346214023422524
7.188118811881187,4.295733178331135
7.207920792079208,4.241438779491954
7.227722772277228,4.183400581397247
7.247524752475247,4.12169418785204
7.267326732673268,4.056401228931073
7.287128712871287,3.9876095749367195
7.306930693069306,3.9154135950786983
7.326732673267327,3.8399144703080186
7.346534653465347,3.7612205718644813
7.366336633663366,3.6794479197495926
7.3861386138613865,3.5947207386561897
7.405940594059406,3.5071721330530594
7.425742574257425,3.416944908367214
7.445544554455446,3.3241925718194256
7.465346534653466,3.2290805548171
7.485148514851485,3.131787709346684
7.504950495049505,3.032508144088254
7.524752475247524,2.931453482644782
7.544554455445544,2.8288556470490374
7.564356435643565,2.724970295272418
7.584158415841584,2.6200810722784653
7.603960396039604,2.514504870070791
7.623762376237624,2.4085983315756803
7.643564356435643,2.302765871532141
7.663366336633663,2.1974695146801597
7.683168316831684,2.0932408470481474
7.702970297029703,1.9906953018916052
7.7227722772277225,1.8905487906595115
7.742574257425743,1.7936362307205524
7.762376237623762,1.7009306497123489
7.782178217821782,1.6135600492576725
7.801980198019803,1.532816903283717
7.821782178217822,1.4601521051021833
7.841584158415841,1.3971420998116466
7.861386138613862,1.3454168538879556
7.881188118811881,1.306540689486198
7.900990099009901,1.281851271301018
7.92079207920792,1.2722833651150016
7.9405940594059405,1.2782237931534803
7.96039603960396,1.2994462820771564
7.980198019801979,1.3351507029886676
8.0,1.3840916949852817
8.01980198019802,1.4447516886505543
8.03960396039604,1.5155090831947338
8.05940594059406,1.594769212524866
8.07920792079208,1.6810479505883036
8.099009900990099,1.7730134661328014
8.118811881188119,1.869498014032106
8.138613861386139,1.9694915838424332
8.158415841584159,2.0721264102010934
8.178217821782178,2.1766581816369683
8.198019801980198,2.282447267616253
8.217821782178218,2.388941596692317
8.237623762376238,2.495661810277111
8.257425742574258,2.60218877129061
8.277227722772277,2.7081532453350166
8.297029702970297,2.8132274705470954
8.316831683168317,2.917118314284048
8.336633663366337,3.0195617360620313
8.356435643564357,3.1203183126620773
8.376237623762377,3.2191696208276306
8.396039603960396,3.3159153098444265
8.415841584158416,3.4103707283359053
8.435643564356436,3.502364996382291
8.455445544554456,3.591739435927354
8.475247524752476,3.678346290026801
8.495049504950495,3.7620476755289665
8.514851485148515,3.8427147249273186
8.534653465346535,3.9202268819592345
8.554455445544555,3.994471322524442
8.574257425742575,4.065342478045012
8.594059405940595,4.132741642795691
8.613861386138613,4.196576650241511
8.633663366336634,4.256761606221084
8.653465346534654,4.313216669058117
8.673267326732672,4.365867868488479
8.693069306930694,4.414646956746992
8.712871287128714,4.459491286339505
8.732673267326732,4.500343709988049
8.752475247524753,4.537152499024926
8.772277227722773,4.569871277160086
8.792079207920791,4.598458967083982
8.811881188118813,4.6228797478165475
8.831683168316832,4.643103021090878
8.85148514851485,4.659103385381402
8.871287128712872,4.6708606164627815
8.891089108910892,4.678359653627622
8.91089108910891,4.68159059090565
8.930693069306932,4.680548672822129
8.950495049504951,4.675234294414406
8.97029702970297,4.665653005398523
8.990099009900991,4.651815518547764
9.00990099009901,4.6337377225165906
9.029702970297029,4.611440699522644
9.04950495049505,4.584950748490503
9.06930693069307,4.5542994144705755
9.089108910891088,4.519523525381464
9.10891089108911,4.480665237391718
9.12871287128713,4.437772090567002
9.148514851485148,4.39089707677235
9.16831683168317,4.340098722250116
9.188118811881187,4.285441187809864
9.207920792079207,4.226994390187362
9.227722772277229,4.16483414888332
9.247524752475247,4.099042363711647
9.267326732673267,4.0297072294142495
9.287128712871288,3.956923495088303
9.306930693069306,3.8807927778914375
9.326732673267326,3.8014239426267245
9.346534653465348,3.718933561475621
9.366336633663366,3.633446471484234
9.386138613861386,3.5450964515999845
9.405940594059407,3.454027046334098
9.425742574257425,3.3603925697854384
9.445544554455445,3.2643593321756588
9.465346534653467,3.1661071416775597
9.485148514851485,3.065831147732295
9.504950495049505,2.9637441089128336
9.524752475247526,2.8600791894398054
9.544554455445544,2.7550934144221686
9.564356435643564,2.6490719453070515
9.584158415841586,2.5423333738017773
9.603960396039604,2.4352362732001747
9.623762376237623,2.328187286245672
9.643564356435645,2.221651058476844
9.663366336633663,2.1161623253115738
9.683168316831683,2.0123403920138747
9.702970297029704,1.910906040924898
9.722772277227723,1.8127004484456295
9.742574257425742,1.7187048264437628
9.762376237623764,1.6300579997140368
9.782178217821782,1.5480667932860812
9.801980198019802,1.4742009645962835
9.821782178217823,1.4100611884948417
9.841584158415841,1.357307300201666
9.861386138613861,1.3175381783535476
9.881188118811881,1.2921279525777247
9.900990099009901,1.2820450999689657
9.92079207920792,1.2877018411142227
9.94059405940594,1.308884438439803
9.96039603960396,1.344790717679955
9.98019801980198,1.3941603413551635
10.0,1.4554518300058992
10.01980198019802,1.5270153496433065
10.03960396039604,1.6072275138152814
10.05940594059406,1.6945774761013341
10.07920792079208,1.7877099036603386
10.099009900990099,1.8854370875155169
10.118811881188119,1.986732393881832
10.138613861386139,2.0907143449709134
10.158415841584159,2.1966273378302335
10.178217821782178,2.3038224089204395
10.198019801980198,2.411739713144232
10.217821782178218,2.5198933497325084
10.237623762376238,2.627858609142373
10.257425742574258,2.7352614487429507
10.277227722772277,2.8417699028511634
10.297029702970297,2.947087115695563
10.316831683168317,3.0509457087241905
10.336633663366337,3.1531032317621737
10.356435643564357,3.2533384884333603
10.376237623762377,3.351448564274813
10.396039603960396,3.447246418922243
10.415841584158416,3.540558931221118
10.435643564356436,3.63122530850954
10.455445544554454,3.7190957893158805
10.475247524752476,3.804030583058589
10.495049504950495,3.885899001716952
10.514851485148514,3.96457874745311
10.534653465346535,4.039955327298084
10.554455445544555,4.1119215716653175
10.574257425742573,4.1803772379398065
10.594059405940595,4.245228683959044
10.613861386138614,4.306388599049741
10.633663366336632,4.363775782564061
10.653465346534654,4.417314961691837
10.673267326732674,4.466936641804045
10.693069306930692,4.512576983781152
10.712871287128714,4.554177703756022
10.732673267326733,4.591685991499664
10.752475247524751,4.625054444335564
10.772277227722773,4.6542410140127135
10.792079207920793,4.679208964421932
