Time (s),Filtered Signal
0.0,-0.03815485102961218
0.03337028824833703,-0.40089717099220884
0.06674057649667406,-0.6627325509599766
0.10011086474501109,-0.7617337278134045
0.13348115299334812,-0.6954850328382559
0.16685144124168516,-0.5153016434227353
0.20022172949002218,-0.299435465389091
0.2335920177383592,-0.12025616540091237
0.26696230598669624,-0.021020162511782865
0.3003325942350333,-0.010229104005044357
0.3337028824833703,-0.07112891794135594
0.3670731707317073,-0.17692820178663568
0.40044345898004435,-0.3021621682291001
0.4338137472283814,-0.4260236788780207
0.4671840354767184,-0.5299705080127914
0.5005543237250555,-0.5951394237328368
0.5339246119733925,-0.6036017011823609
0.5672949002217295,-0.5432764518694156
0.6006651884700666,-0.4129653008143685
0.6340354767184035,-0.22391424093408
0.6674057649667406,0.0028374012907517
0.7007760532150776,0.24094449390404624
0.7341463414634146,0.4619992202977888
0.7675166297117517,0.636665841350435
0.8008869179600887,0.7359147595277291
0.8342572062084257,0.735581828545793
0.8676274944567628,0.6251793866843252
0.9009977827050998,0.4177864247374643
0.9343680709534368,0.15506986930935932
0.9677383592017739,-0.09768175235130841
1.001108647450111,-0.26740617874675937
1.0344789356984478,-0.2956299494011802
1.067849223946785,-0.1594558529566738
1.101219512195122,0.11691543115847394
1.134589800443459,0.4651954683984712
1.167960088691796,0.7906673274993664
1.2013303769401331,0.9994988482993661
1.23470066518847,1.027100519897427
1.268070953436807,0.8580418950293737
1.3014412416851442,0.5304564810670627
1.3348115299334813,0.12312451762259312
1.3681818181818182,-0.27015283474727664
1.4015521064301553,-0.569294803977074
1.4349223946784924,-0.7291208821680123
1.4682926829268292,-0.7459375288172275
1.5016629711751663,-0.6492644976315767
1.5350332594235034,-0.4848879587279901
1.5684035476718403,-0.2982292495123628
1.6017738359201774,-0.12491686652377508
1.6351441241685145,0.009973499612708141
1.6685144124168514,0.08790166991398804
1.7018847006651885,0.09413189640497409
1.7352549889135256,0.02031410306489178
1.7686252771618625,-0.12829453622576256
1.8019955654101996,-0.32593970347322765
1.8353658536585367,-0.5260114153535775
1.8687361419068735,-0.6707704939223724
1.9021064301552106,-0.7095235833206955
1.9354767184035477,-0.6185061725944788
1.9688470066518848,-0.41340427972740423
2.002217294900222,-0.14746115406953605
2.035587583148559,0.10595141971242368
2.0689578713968957,0.2801239729601817
2.102328159645233,0.3399767562278772
2.13569844789357,0.2941017380052104
2.1690687361419068,0.18830484290992772
2.202439024390244,0.08359292769626517
2.235809312638581,0.028932958226165456
2.269179600886918,0.04156518385899709
2.302549889135255,0.10373381681203224
2.335920177383592,0.176306602505767
2.369290465631929,0.22130430292393882
2.4026607538802662,0.22135822625694523
2.436031042128603,0.18656203330197804
2.46940133037694,0.1464699863060283
2.5027716186252773,0.1328934686448139
2.536141906873614,0.16330690994634295
2.569512195121951,0.23312655004899566
2.6028824833702884,0.31934676214532104
2.6362527716186253,0.3918226252682858
2.6696230598669626,0.42547235084236495
2.7029933481152995,0.40797528856999893
2.7363636363636363,0.34141023412664684
2.7697339246119737,0.23963865499693318
2.8031042128603105,0.12400857697115472
2.8364745011086474,0.018451014503452195
2.8698447893569847,-0.05654651397705928
2.9032150776053216,-0.09121761473559019
2.9365853658536585,-0.09279082799088513
2.969955654101996,-0.08633876838054805
3.0033259423503327,-0.10652379928587086
3.0366962305986696,-0.18102110015582148
3.070066518847007,-0.3124027747899309
3.1034368070953438,-0.46874315599982674
3.1368070953436806,-0.5908762561290225
3.170177383592018,-0.6161736969189475
3.203547671840355,-0.5089655616084797
3.2369179600886917,-0.2822507443600556
3.270288248337029,0.0017858761428830047
3.303658536585366,0.25454969561255303
3.337028824833703,0.3969953450247641
3.37039911308204,0.3916834954666924
3.403769401330377,0.25602663334595394
3.437139689578714,0.05155669250025779
3.470509977827051,-0.14435194662793868
3.503880266075388,-0.2704563018637233
3.537250554323725,-0.3032535348349108
3.5706208425720622,-0.26017719016557145
3.603991130820399,-0.18501334101847963
3.637361419068736,-0.12357913794104158
3.6707317073170733,-0.10114552821417706
3.70410199556541,-0.1116522903963032
3.737472283813747,-0.12325676693370717
3.7708425720620844,-0.09734753411261707
3.8042128603104213,-0.011837461148847659
3.8375831485587586,0.12281191261234549
3.8709534368070955,0.2633690446655712
3.9043237250554323,0.35058515270242285
3.9376940133037697,0.3357496924928616
3.9710643015521065,0.2047596056615261
4.004434589800444,-0.011708496760044101
4.037804878048781,-0.2468200006906872
4.071175166297118,-0.42117559237977126
4.1045454545454545,-0.4711661433800273
4.137915742793791,-0.3707830577672589
4.171286031042128,-0.13956357267823088
4.204656319290466,0.16442458195905085
4.238026607538803,0.46253082529468253
4.27139689578714,0.6781158413658092
4.304767184035477,0.7577266091505572
4.3381374722838135,0.6860045949429823
4.371507760532151,0.49071557021187684
4.404878048780488,0.23579636552409391
4.438248337028825,0.002914839435785045
4.471618625277162,-0.1341876244431025
4.504988913525499,-0.13470523954654182
4.538359201773836,-0.005984832674390986
4.571729490022173,0.19768256261398856
4.60509977827051,0.3934171382625519
4.638470066518847,0.49899692992516326
4.671840354767184,0.4619306369776885
4.705210643015521,0.27713099336267694
4.738580931263858,-0.013250002998467195
4.771951219512196,-0.3367531556398956
4.8053215077605325,-0.6166108925399792
4.838691796008869,-0.7963054736403856
4.872062084257206,-0.8539515662810166
4.905432372505543,-0.8026887241230423
4.93880266075388,-0.6789316554161022
4.972172949002218,-0.5246020065087122
5.005543237250555,-0.37106645003352656
5.0389135254988915,-0.23106391305429202
5.072283813747228,-0.10102529381999317
5.105654101995565,0.02856780172351682
5.139024390243902,0.16072257638837206
5.17239467849224,0.28409744060332554
5.205764966740577,0.3741364077876651
5.239135254988914,0.40307156418148365
5.2725055432372505,0.35419259814009346
5.305875831485587,0.23334244560995893
5.339246119733925,0.07147284140635972
5.372616407982262,-0.08395857285330147
5.405986696230599,-0.18574168925972237
5.439356984478936,-0.20486010962078272
5.472727272727273,-0.14194998569747352
5.5060975609756095,-0.027362294782207648
5.539467849223947,0.09027766096667283
5.572838137472284,0.16251373836181993
5.606208425720621,0.15940626975596456
5.639578713968958,0.08082228674423499
5.672949002217295,-0.043707055060370405
5.706319290465632,-0.16679601119879553
5.7396895787139695,-0.24240258846819235
5.773059866962306,-0.24470042214679938
5.806430155210643,-0.17814810912836213
5.83980044345898,-0.07331590260656269
5.873170731707317,0.030561948414111913
5.906541019955654,0.10814805464832629
5.939911308203992,0.16349520648791685
5.9732815964523285,0.22854679947804432
6.006651884700665,0.34314537475599066
6.040022172949002,0.5256857496989044
6.073392461197339,0.7504497632301531
6.106762749445676,0.9463069158265695
6.140133037694014,1.0215831897513894
6.173503325942351,0.9059907276472969
6.2068736141906875,0.5898076604745905
6.240243902439024,0.1393029921168475
6.273614190687361,-0.32250683196381164
6.306984478935698,-0.6636588427709219
6.340354767184036,-0.798286692087885
6.373725055432373,-0.7226882938313778
6.40709534368071,-0.5147659218610364
6.4404656319290465,-0.2969456009305241
6.473835920177383,-0.18028849014963702
6.507206208425721,-0.21593690424499765
6.540576496674058,-0.37554883381950765
6.573946784922395,-0.5680612338641816
6.607317073170732,-0.6835406304888215
6.640687361419069,-0.6436985565715345
6.674057649667406,-0.43709358371688495
6.707427937915743,-0.12474308966577786
6.74079822616408,0.1851123718740111
6.774168514412417,0.3815252632579065
6.807538802660754,0.3955043051562227
6.840909090909091,0.22629697557518075
6.874279379157428,-0.06080007585780555
6.9076496674057655,-0.3626020943906997
6.941019955654102,-0.5785893076299697
6.974390243902439,-0.645843068099577
7.007760532150776,-0.5545552360945392
7.041130820399113,-0.34072736974453083
7.07450110864745,-0.0636803127886903
7.107871396895788,0.21823034284617593
7.1412416851441245,0.46238997263102294
7.174611973392461,0.6438154237112513
7.207982261640798,0.7491896181193871
7.241352549889135,0.7716945697527879
7.274722838137472,0.7122811591962586
7.30809312638581,0.5859684251198384
7.341463414634147,0.4259672456746701
7.3748337028824835,0.2783049927426098
7.40820399113082,0.18573947707716262
7.441574279379157,0.16814053157384207
7.474944567627494,0.21114237703550823
7.508314855875832,0.27174589046621284
7.541685144124169,0.2998813861242414
7.575055432372506,0.26474408525578447
7.6084257206208425,0.17084360920452762
7.641796008869179,0.05407761399695416
7.675166297117517,-0.040347213988991305
7.708536585365854,-0.08566193865423087
7.741906873614191,-0.09097671793007811
7.775277161862528,-0.09799570131474768
7.808647450110865,-0.15788217616864159
7.842017738359202,-0.30003021624458764
7.875388026607539,-0.5093649229397172
7.908758314855876,-0.725212650892955
7.942128603104213,-0.8643551529106851
7.97549889135255,-0.8585018619619444
8.008869179600888,-0.6882568921607486
8.042239467849225,-0.3962969502302454
8.075609756097561,-0.07222599546264465
8.108980044345898,0.18426772153500479
8.142350332594235,0.30427711558761894
8.175720620842572,0.27506348044467893
8.209090909090909,0.13888314414917388
8.242461197339246,-0.03192853605938865
8.275831485587583,-0.16914790556624604
8.30920177383592,-0.23445587412042704
8.342572062084257,-0.22563193268692217
8.375942350332595,-0.16389949217308136
8.409312638580932,-0.07352644088152031
8.442682926829269,0.03235681502791477
8.476053215077606,0.1517038140759523
8.509423503325943,0.28186140841262625
8.54279379157428,0.40703692204968506
8.576164079822616,0.4960404732500916
8.609534368070953,0.5138251458377647
8.64290465631929,0.4403019300886066
8.676274944567627,0.2844721744771012
8.709645232815964,0.08467077366076577
8.743015521064303,-0.10564113631411808
8.77638580931264,-0.23866487510329995
8.809756097560976,-0.2888747187874399
8.843126385809313,-0.25836852934440796
8.87649667405765,-0.17081547783272777
8.909866962305987,-0.059319155657784776
8.943237250554324,0.04532268752859755
8.97660753880266,0.1220702653468039
9.009977827050998,0.1624350108934716
9.043348115299334,0.17006321892303455
9.076718403547671,0.158135631661097
9.110088691796008,0.144502508910639
9.143458980044347,0.1446476624692776
9.176829268292684,0.16442345157429758
9.21019955654102,0.19629620885645446
9.243569844789358,0.22223190615513413
9.276940133037694,0.22274638835287255
9.310310421286031,0.18730413492898815
9.343680709534368,0.11971488066665983
9.377050997782705,0.03517113591839522
9.410421286031042,-0.04880494011764463
9.443791574279379,-0.12116747018907814
9.477161862527716,-0.1801266032366025
9.510532150776053,-0.22877943139058424
9.543902439024391,-0.26763825258112073
9.577272727272728,-0.2900802612831229
9.610643015521065,-0.28442898594156646
9.644013303769402,-0.24171244878169582
9.677383592017739,-0.1643466365718848
9.710753880266076,-0.07029154294238182
9.744124168514412,0.0103254067975558
9.77749445676275,0.045253226456213755
9.810864745011086,0.012819398091045637
9.844235033259423,-0.08783432176665469
9.87760532150776,-0.23315134588971312
9.910975609756099,-0.3800851488423345
9.944345898004435,-0.4786593392101862
9.977716186252772,-0.48859403554265723
10.01108647450111,-0.39445528924688267
10.044456762749446,-0.2133448383103123
10.077827050997783,0.008979200320104427
10.11119733924612,0.2134896031084806
10.144567627494457,0.34960951293596254
10.177937915742794,0.39441965947323326
10.21130820399113,0.36054838076953316
10.244678492239467,0.28841280780421
10.278048780487804,0.22576664149714473
10.311419068736143,0.20408542297305163
10.34478935698448,0.22350239933276622
10.378159645232817,0.25416844872125255
10.411529933481154,0.25370022079613946
10.44490022172949,0.19200921900737217
10.478270509977827,0.07071738585084927
10.511640798226164,-0.07321598954348717
10.545011086474501,-0.18226739987927779
10.578381374722838,-0.20489483450390714
10.611751662971175,-0.12110959770767324
10.645121951219512,0.04557828075545971
10.67849223946785,0.23609345301050572
10.711862527716187,0.3802119943569542
10.745232815964524,0.42599655985336354
10.778603104212861,0.3604412546903194
10.811973392461198,0.2120892993004809
10.845343680709535,0.03540675078593582
10.878713968957872,-0.11456299702951907
10.912084257206208,-0.20465422751168474
10.945454545454545,-0.23290719301512683
10.978824833702882,-0.22185839732607926
11.012195121951219,-0.20123252203166678
11.045565410199556,-0.19049506771396477
11.078935698447895,-0.19084932807514857
11.112305986696231,-0.19012248019803227
11.145676274944568,-0.17613160095170155
11.179046563192905,-0.14908367865671301
11.212416851441242,-0.12431365489859622
11.245787139689579,-0.12286343739499735
11.279157427937916,-0.15545415074124963
11.312527716186253,-0.2103790907437099
11.34589800443459,-0.2543996729783355
11.379268292682926,-0.2483018402793206
11.412638580931263,-0.1695878029882771
11.4460088691796,-0.029409036074302727
11.479379157427939,0.12717749916646454
11.512749445676276,0.2399258357207868
11.546119733924613,0.2627291357533769
11.57949002217295,0.18848803202056447
11.612860310421286,0.055730043389427324
11.646230598669623,-0.06775846518393733
11.67960088691796,-0.11682547663107395
11.712971175166297,-0.06025509324602957
11.746341463414634,0.0846852609632834
11.77971175166297,0.26172688131412125
11.813082039911308,0.403460968395385
11.846452328159646,0.4623615934599043
11.879822616407983,0.4289644578508144
11.91319290465632,0.32929282823497114
11.946563192904657,0.2054574137989292
11.979933481152994,0.0919210452061437
12.01330376940133,0.0006893107969148984
12.046674057649668,-0.07793014249730332
12.080044345898004,-0.1618019405710988
12.113414634146341,-0.260138676292283
12.146784922394678,-0.36341621838962385
12.180155210643015,-0.44511354400599756
12.213525498891352,-0.4734497866507913
12.24689578713969,-0.42642722375580605
12.280266075388028,-0.30275523314996355
12.313636363636364,-0.12409526170657034
12.347006651884701,0.07159169769292045
12.380376940133038,0.24215905689521727
12.413747228381375,0.35371345481297795
12.447117516629712,0.38876707316504994
12.480487804878049,0.34778688303097255
12.513858093126386,0.24490470523766034
12.547228381374723,0.10106419962756463
12.58059866962306,-0.06146507648046718
12.613968957871396,-0.22094301940911187
12.647339246119735,-0.35517482874716483
12.680709534368072,-0.4409111544122047
12.714079822616409,-0.4568413187500799
12.747450110864746,-0.39066632871880663
12.780820399113082,-0.24702875951900383
12.81419068736142,-0.05105021780384933
12.847560975609756,0.15635901306443228
12.880931263858093,0.3309262856408921
12.91430155210643,0.4400521676091451
12.947671840354767,0.47336356437398786
12.981042128603104,0.4437472023013207
13.014412416851442,0.378730934220961
13.04778270509978,0.3069319741833911
13.081152993348116,0.24633877290490241
13.114523281596453,0.19954119015209343
13.14789356984479,0.15701578596784505
13.181263858093127,0.10567344063677288
13.214634146341464,0.03798574406965122
13.2480044345898,-0.04249966206060987
13.281374722838137,-0.12142709514065221
13.314745011086474,-0.17944550895381572
13.348115299334811,-0.2012461569577477
13.381485587583148,-0.1841150395256807
13.414855875831487,-0.14197178380893255
13.448226164079824,-0.10208817333127897
13.48159645232816,-0.09452826766619737
13.514966740576497,-0.1379952288236558
13.548337028824834,-0.22847680064199266
13.581707317073171,-0.33702097040960943
13.615077605321508,-0.41941552771713947
13.648447893569845,-0.4347202860236295
13.681818181818182,-0.36446282344667064
13.715188470066519,-0.22298708134960096
13.748558758314855,-0.053189879235327295
13.781929046563192,0.09100106689999869
13.815299334811531,0.16734742907391642
13.848669623059868,0.1625039600152156
13.882039911308205,0.09580520380719068
13.915410199556542,0.008514300333835757
13.948780487804878,-0.05540588496795558
13.982150776053215,-0.06713643736704732
14.015521064301552,-0.021186092674347165
14.048891352549889,0.0683535016685136
14.082261640798226,0.17892618408729893
14.115631929046563,0.28998683118787755
14.1490022172949,0.386786052549399
14.182372505543238,0.45726875560102814
14.215742793791575,0.48739144261369227
14.249113082039912,0.46129737604471255
14.282483370288249,0.3686732566499411
14.315853658536586,0.2152196369300306
14.349223946784923,0.028247605514864046
14.38259423503326,-0.14890287434302685
14.415964523281596,-0.2733479315279124
14.449334811529933,-0.3223871352327995
14.48270509977827,-0.3054341393120273
14.516075388026607,-0.26023400408347896
14.549445676274944,-0.23367392635864817
14.582815964523283,-0.2562761546854838
14.61618625277162,-0.32370952119322854
14.649556541019956,-0.39568567905362495
14.682926829268293,-0.41378652275173894
14.71629711751663,-0.3298455897815874
14.749667405764967,-0.1309160450912884
14.783037694013304,0.15139640173330302
14.81640798226164,0.45147034402044656
14.849778270509978,0.6944991396295005
14.883148558758315,0.8235467816030773
14.916518847006651,0.8166855759189249
14.949889135254988,0.6880143470396589
14.983259423503327,0.4748449096325303
15.016629711751664,0.2197737373923111
15.05,-0.04253850706667405
15.083370288248338,-0.2884409331307586
15.116740576496674,-0.49972010007129386
15.150110864745011,-0.6561531772881326
15.183481152993348,-0.7335744039954053
15.216851441241685,-0.7107054412171742
15.250221729490022,-0.581764355987947
15.283592017738359,-0.3672742260406625
15.316962305986696,-0.11526871796674099
15.350332594235034,0.11046263370094081
15.383702882483371,0.25160381923294145
15.417073170731708,0.27698445929875315
15.450443458980045,0.19457610225799787
15.483813747228382,0.04788839938673313
15.517184035476719,-0.10178454033852664
15.550554323725056,-0.19915204154402458
15.583924611973393,-0.21415599485391168
15.61729490022173,-0.1489099081239376
15.650665188470066,-0.031096376990580505
15.684035476718403,0.10090480339109796
15.71740576496674,0.21278492029789603
15.750776053215079,0.282379999667805
15.784146341463416,0.2997146423946777
15.817516629711752,0.26290431082440285
15.85088691796009,0.1755690437503366
15.884257206208426,0.048690225489903344
15.917627494456763,-0.09520604466126134
15.9509977827051,-0.22115672021809135
15.984368070953437,-0.2888763268513048
16.017738359201775,-0.2674809641767967
16.05110864745011,-0.15132292972541156
16.08447893569845,0.032402570419888886
16.117849223946784,0.23067626232807661
16.151219512195123,0.38504446449322965
16.184589800443458,0.45608645900122763
16.217960088691797,0.43928760731593935
16.251330376940132,0.3634762731760066
16.28470066518847,0.27229764558649855
16.31807095343681,0.1988376828994975
16.351441241685144,0.14780791927773757
16.384811529933483,0.09579237229614507
16.418181818181818,0.009741054614048743
16.451552106430157,-0.12707138998780065
16.48492239467849,-0.2974453809913325
16.51829268292683,-0.4525581138474807
16.551662971175165,-0.5342580252105338
16.585033259423504,-0.5054861675408817
16.61840354767184,-0.37169045814317836
16.651773835920178,-0.18079502531034417
16.685144124168513,-0.001280125507451947
16.71851441241685,0.10978462152575433
16.75188470066519,0.13147551167443441
16.785254988913525,0.08371654404277024
16.818625277161864,0.010758794086897295
16.8519955654102,-0.045866993733923125
16.885365853658538,-0.06890982647844925
16.918736141906873,-0.06954492778359256
16.95210643015521,-0.0730317547186777
16.985476718403547,-0.0959554542210647
17.018847006651885,-0.13005110122132227
17.05221729490022,-0.14345915450035823
17.08558758314856,-0.09948492779196012
17.118957871396898,0.01807624980743022
17.152328159645233,0.18863090246857173
17.18569844789357,0.3584677555414297
17.219068736141907,0.4640917421761822
