Time (s),Filtered Signal
0.0,-0.05343289420186775
0.033370165745856356,-0.07135270908200153
0.06674033149171271,-0.09299793566236428
0.10011049723756907,-0.12197793263614298
0.13348066298342542,-0.1603551517806392
0.16685082872928178,-0.2072892160483038
0.20022099447513814,-0.2578050917559666
0.2335911602209945,-0.30258180198869244
0.26696132596685085,-0.3295561378033475
0.30033149171270723,-0.32744728333964457
0.33370165745856356,-0.2902523785564756
0.3670718232044199,-0.22086646079614783
0.4004419889502763,-0.1318471883603876
0.43381215469613266,-0.04229112878531001
0.467182320441989,0.028456279078983283
0.5005524861878453,0.06781459137207119
0.5339226519337017,0.07457995448525973
0.5672928176795581,0.058903329166439075
0.6006629834254145,0.03754557859596238
0.6340331491712707,0.026612443504393
0.6674033149171271,0.035171337112571886
0.7007734806629835,0.06259793933847124
0.7341436464088398,0.10051352674375592
0.7675138121546962,0.13785815091464948
0.8008839779005525,0.16624242663512104
0.8342541436464089,0.18291566502323847
0.8676243093922653,0.19026136821459705
0.9009944751381216,0.19273190203605628
0.934364640883978,0.19343318616395197
0.9677348066298344,0.19248106269056892
1.0011049723756906,0.18790045898157204
1.0344751381215471,0.1780956519004245
1.0678453038674034,0.16389833256640515
1.1012154696132597,0.14857590886940888
1.1345856353591162,0.13572568087644304
1.1679558011049724,0.12663870523807824
1.201325966850829,0.11927657259907415
1.2346961325966852,0.10994495956516342
1.2680662983425415,0.09669911926826226
1.301436464088398,0.08192227040963482
1.3348066298342542,0.07165715557059202
1.3681767955801105,0.07129266860476512
1.401546961325967,0.07990135947820816
1.4349171270718233,0.08705500674598415
1.4682872928176796,0.07507965171496744
1.501657458563536,0.026704563001880413
1.5350276243093923,-0.06538674273856405
1.5683977900552488,-0.19232203706447734
1.601767955801105,-0.33008496547887317
1.6351381215469614,-0.4480698646748675
1.6685082872928179,-0.521244547105727
1.7018784530386741,-0.5399016396533538
1.7352486187845306,-0.5121605500039518
1.768618784530387,-0.4582174139539189
1.8019889502762432,-0.3996532096705282
1.8353591160220997,-0.3494979964285089
1.868729281767956,-0.3079734833466503
1.9020994475138122,-0.2654797726336173
1.9354696132596687,-0.21044500496327767
1.968839779005525,-0.13731972910811294
2.0022099447513813,-0.05042477015366606
2.0355801104972375,0.037932985073026795
2.0689502762430942,0.11340635070813745
2.1023204419889505,0.16600572115897197
2.135690607734807,0.19362305468198932
2.169060773480663,0.20138638423503508
2.2024309392265193,0.1979356628064411
2.235801104972376,0.1910930098639467
2.2691712707182323,0.1852165309007452
2.3025414364640886,0.18117169878081874
2.335911602209945,0.17826938381277072
2.369281767955801,0.17657771268494366
2.402651933701658,0.1780836456694424
2.436022099447514,0.1860499140590497
2.4693922651933704,0.20302687548068446
2.5027624309392267,0.22876052410141037
2.536132596685083,0.25933581833784325
2.5695027624309392,0.28828195112869065
2.602872928176796,0.3093254642975503
2.636243093922652,0.31949788344437957
2.6696132596685085,0.32089904718547446
2.7029834254143648,0.3198823495066872
2.736353591160221,0.32365546228437087
2.7697237569060777,0.33574705245529446
2.803093922651934,0.35271854746359327
2.8364640883977903,0.3642729037674505
2.8698342541436466,0.35740320825950567
2.903204419889503,0.32300562942457917
2.936574585635359,0.2615838042158634
2.969944751381216,0.18446367855382068
3.003314917127072,0.10882809092443557
3.0366850828729284,0.048232401944892506
3.0700552486187846,0.003390803156120895
3.103425414364641,-0.04103570170880757
3.1367955801104976,-0.11027283116822666
3.170165745856354,-0.22552622024635058
3.20353591160221,-0.3892210324941759
3.2369060773480665,-0.5785663550518345
3.2702762430939227,-0.7537671855387544
3.3036464088397794,-0.8796305823859745
3.3370165745856357,-0.950479510773767
3.370386740331492,-1.0033338004980208
3.4037569060773483,-1.1072917209937805
3.4371270718232045,-1.3281492419603766
3.4704972375690613,-1.6818429531762813
3.5038674033149175,-2.1004539720236437
3.537237569060774,-2.433302652107553
3.57060773480663,-2.4913926787181753
3.6039779005524863,-2.1217767871919966
3.6373480662983426,-1.2803579834050167
3.6707182320441993,-0.0679796351460857
3.7040883977900556,1.2906899575169044
3.737458563535912,2.5193501632705213
3.770828729281768,3.382530211785169
3.8041988950276244,3.7583083829265727
3.837569060773481,3.6623540614525636
3.8709392265193374,3.218890893366227
3.9043093922651937,2.598296859317423
3.93767955801105,1.9525439675978038
3.9710497237569062,1.3746996438623755
4.0044198895027625,0.8926189944759272
4.037790055248619,0.48973753800504
4.071160220994475,0.13595437675547836
4.104530386740332,-0.18810318119903108
4.1379005524861885,-0.48230636111407843
4.171270718232044,-0.7327949455976754
4.204640883977901,-0.9245981939830794
4.238011049723757,-1.052134283994168
4.271381215469614,-1.122099566182323
4.30475138121547,-1.1487293559120597
4.338121546961326,-1.1457014533659904
4.371491712707183,-1.1200617311451355
4.404861878453039,-1.0714430290326893
4.438232044198895,-0.9962063484732573
4.471602209944752,-0.8932512280821154
4.504972375690608,-0.7676875344483993
4.538342541436465,-0.6303570833546355
4.5717127071823205,-0.49397076253457944
4.605082872928177,-0.36858480462286636
4.638453038674034,-0.2591752497225651
4.67182320441989,-0.16637371236969986
4.7051933701657465,-0.08924430944719304
4.738563535911602,-0.027748494992424322
4.771933701657459,0.01701379775071321
4.805303867403316,0.044969839113898596
4.8386740331491715,0.0600000373638848
4.872044198895028,0.0712440072042457
4.905414364640884,0.09123848083450264
4.938784530386741,0.131228776058126
4.972154696132597,0.19580843954552993
5.005524861878453,0.27970181856666976
5.03889502762431,0.3686070125571329
5.072265193370166,0.44403659724524785
5.105635359116023,0.4901000473546699
5.1390055248618784,0.4992219639767691
5.172375690607735,0.47434674772531504
5.205745856353592,0.42689005308491823
5.239116022099448,0.37164066158995623
5.272486187845304,0.3210414883637898
5.30585635359116,0.28128364830907265
5.339226519337017,0.25156440895838156
5.372596685082874,0.22630438661985097
5.4059668508287295,0.198848664429961
5.439337016574586,0.16473639884882724
5.472707182320442,0.12312981575965817
5.506077348066299,0.07611612916965406
5.5394475138121555,0.02673303650303587
5.572817679558011,-0.022864378879467507
5.606187845303868,-0.07195701902503009
5.639558011049724,-0.12033296013490766
5.672928176795581,-0.16669245557779275
5.706298342541437,-0.20767300976490616
5.739668508287293,-0.23840597258284413
5.77303867403315,-0.2545256245239134
5.806408839779006,-0.2545576786242702
5.839779005524862,-0.241233653665227
5.873149171270718,-0.2207666503627285
5.906519337016575,-0.20023073665006125
5.939889502762432,-0.18428856749418965
5.9732596685082875,-0.1729631558278533
6.006629834254144,-0.16165448315308464
6.04,-0.1434156576440727
6.073370165745857,-0.11231160443285998
6.1067403314917135,-0.0661900249262659
6.140110497237569,-0.007668836811846507
6.173480662983426,0.05676375616488682
6.206850828729282,0.11866727543605134
6.240220994475139,0.16947526447672093
6.273591160220995,0.20166877046752504
6.306961325966851,0.20953641764463626
6.340331491712708,0.19010347813680414
6.373701657458564,0.14439792276108362
6.40707182320442,0.07842729918928625
6.440441988950277,0.002824692310647573
6.473812154696133,-0.06941630004880872
6.50718232044199,-0.12656899925195214
6.5405524861878455,-0.16161079568767583
6.573922651933702,-0.17380336681500477
6.607292817679559,-0.1676754535568941
6.640662983425415,-0.15006065801720958
6.674033149171271,-0.1268319915609872
6.707403314917127,-0.10098840916630936
6.740773480662984,-0.07284262613734739
6.774143646408841,-0.04181508700277066
6.8075138121546965,-0.008475026215209958
6.840883977900553,0.024556312739141908
6.874254143646409,0.05343587694047836
6.907624309392266,0.07512694489099557
6.9409944751381225,0.08928791841542082
6.974364640883978,0.09870950268543496
7.007734806629835,0.10785771480898065
7.041104972375691,0.12028246354831587
7.074475138121548,0.1364258635915607
7.107845303867403,0.15318001152351143
7.14121546961326,0.16547370338351147
7.174585635359117,0.1688854622107787
7.207955801104973,0.16163970636540126
7.241325966850829,0.14479600722827696
7.274696132596685,0.12070312166992272
7.308066298342542,0.09100451325387407
7.341436464088399,0.05579688878884096
7.3748066298342545,0.014695708472121167
7.408176795580111,-0.030909762439400017
7.441546961325967,-0.07620499477387792
7.474917127071824,-0.11354570188260807
7.5082872928176805,-0.13553425417683143
7.541657458563536,-0.13901272141028936
7.575027624309393,-0.12746463365817462
7.608397790055249,-0.10998759749509991
7.641767955801106,-0.0969812919178945
7.675138121546962,-0.09477133599588054
7.708508287292818,-0.10221047400083177
7.741878453038675,-0.11128370719159311
7.775248618784531,-0.11147716706144212
7.808618784530387,-0.09552653301092512
7.841988950276244,-0.06341680720895419
7.8753591160221,-0.02254392239655461
7.908729281767957,0.01591718917204445
7.9420994475138125,0.04241103240839166
7.975469613259669,0.05334098670626429
8.008839779005525,0.0522113412066545
8.042209944751383,0.04714697697310469
8.075580110497238,0.046209033519649605
8.108950276243094,0.05299834468387858
8.14232044198895,0.06482582610307193
8.175690607734808,0.07434032752024251
8.209060773480664,0.0736613370118121
8.24243093922652,0.05875951103212326
8.275801104972377,0.03178007608773892
8.309171270718233,0.00021442861067352717
8.342541436464089,-0.02644458901597286
8.375911602209946,-0.040702615890863665
8.409281767955802,-0.0397898879660429
8.442651933701658,-0.026150109699588513
8.476022099447514,-0.005975682513347678
8.509392265193371,0.013186791475120887
8.542762430939227,0.02477110929783053
8.576132596685083,0.024949073368108046
8.60950276243094,0.01366507782073957
8.642872928176796,-0.005178673247056623
8.676243093922652,-0.024639852399019724
8.709613259668508,-0.03688665283661753
8.742983425414366,-0.03617166732441222
8.776353591160222,-0.02154030794336383
8.809723756906077,0.002096511615869284
8.843093922651935,0.025406054660024793
8.87646408839779,0.03832393563486027
8.909834254143647,0.03448945878224235
8.943204419889504,0.014331901752004845
8.97657458563536,-0.014815088988850719
9.009944751381216,-0.04180989369090607
9.043314917127072,-0.05663964401785587
9.07668508287293,-0.054847393212737204
9.110055248618785,-0.03929066092928718
9.143425414364641,-0.018356998164640006
9.176795580110499,-0.001501408787453848
9.210165745856354,0.005694417127866552
9.24353591160221,0.004466810780822846
9.276906077348068,0.0022831020527273793
9.310276243093924,0.008907157551513006
9.34364640883978,0.030971492774511892
9.377016574585635,0.06769664125211244
9.410386740331493,0.10990238759213808
9.443756906077349,0.14292728011876157
9.477127071823205,0.15227191470135712
9.510497237569062,0.1295656608343067
9.543867403314918,0.07635272910216746
9.577237569060774,0.00417619353183032
9.610607734806631,-0.06900454216091165
9.643977900552487,-0.12461070409427204
9.677348066298343,-0.14929461190945653
9.710718232044199,-0.13886451205956013
9.744088397790057,-0.09916094899639702
9.777458563535912,-0.04386227521077194
9.810828729281768,0.009867965806695833
9.844198895027626,0.04645343620573289
9.877569060773482,0.05620200185058043
9.910939226519337,0.0376718240847056
9.944309392265193,-0.002447487602695977
9.97767955801105,-0.051778210611887615
10.011049723756907,-0.09619073309207171
10.044419889502763,-0.12395416924105127
10.07779005524862,-0.12878101583901547
10.111160220994476,-0.11088543559978001
10.144530386740332,-0.07595654059432459
10.17790055248619,-0.032724883609866966
10.211270718232045,0.009801767005359133
10.244640883977901,0.0444993674261522
10.278011049723757,0.06726750377324642
10.311381215469615,0.07724917403104163
10.34475138121547,0.07645071682938366
10.378121546961326,0.06898143424004614
10.411491712707184,0.05994578168952969
10.44486187845304,0.05401069013066204
10.478232044198895,0.05390032878270299
10.511602209944753,0.05935482724701047
10.544972375690609,0.0671397138823139
10.578342541436465,0.07234487806127148
10.61171270718232,0.07057665601019583
10.645082872928178,0.060078225604722035
10.678453038674034,0.04269748310415773
10.71182320441989,0.023111180915386546
10.745193370165747,0.006596873403531327
10.778563535911603,-0.0035554088145875054
10.811933701657459,-0.007644045869199566
10.845303867403315,-0.009286782842502457
10.878674033149172,-0.013365702252412652
10.912044198895028,-0.023227469562287197
10.945414364640884,-0.03859977621490803
10.978784530386742,-0.05532565568561604
11.012154696132598,-0.06707983690600164
11.045524861878453,-0.06823991392279104
11.078895027624311,-0.05656193016751671
11.112265193370167,-0.03447139837643364
11.145635359116023,-0.008461047231307382
11.179005524861878,0.013099692971929816
11.212375690607736,0.022851715426253593
11.245745856353592,0.01695696361152735
11.279116022099448,-0.0036289428120837414
11.312486187845305,-0.03350943888227374
11.345856353591161,-0.06464324357082142
11.379226519337017,-0.08891501118286028
11.412596685082875,-0.10056802648303907
11.44596685082873,-0.09768165285418588
11.479337016574586,-0.08227065279182007
11.512707182320442,-0.05910204476561386
11.5460773480663,-0.03375352297187798
11.579447513812156,-0.010642497108618115
11.612817679558011,0.008282247150138424
11.646187845303869,0.023735824628957174
11.679558011049725,0.03812797382417937
11.71292817679558,0.05384808063733865
11.746298342541436,0.07159439479094216
11.779668508287294,0.089595061340584
11.81303867403315,0.10419669122719111
11.846408839779006,0.11160920775135158
11.879779005524863,0.10993470558154816
11.91314917127072,0.10036467004170813
11.946519337016575,0.08679796155572403
11.979889502762433,0.07395592495484744
12.013259668508288,0.06490968652449454
12.046629834254144,0.05931463541649369
12.08,0.05334381385820243
12.113370165745858,0.04147814108999127
12.146740331491714,0.01937937339084217
12.18011049723757,-0.01349179842261678
12.213480662983427,-0.052780684932622175
12.246850828729283,-0.09027668185308563
12.280220994475139,-0.11675230369155376
12.313591160220996,-0.12546067781999207
12.346961325966852,-0.11482567922814045
12.380331491712708,-0.08917139748719023
12.413701657458564,-0.057156362988069746
12.447071823204421,-0.028541372789631467
12.480441988950277,-0.010603906917296112
12.513812154696133,-0.005634862223835574
12.54718232044199,-0.010488400795501373
12.580552486187846,-0.018313160488405197
12.613922651933702,-0.021717900476827773
12.64729281767956,-0.01606655799759632
12.680662983425416,-0.0015724167591423136
12.714033149171271,0.01664643146382729
12.747403314917127,0.030602725730546232
12.780773480662985,0.03284026154381328
12.81414364640884,0.01993840313383345
12.847513812154697,-0.005286178187721608
12.880883977900554,-0.033968108285649494
12.91425414364641,-0.05406759629459024
12.947624309392266,-0.05512341505333759
12.980994475138122,-0.033069637613009746
13.01436464088398,0.0070739608057731615
13.047734806629835,0.05220016231732902
13.081104972375691,0.08583761400901169
13.114475138121549,0.09485335879250538
13.147845303867404,0.07524903903794211
13.18121546961326,0.03433764267727107
13.214585635359118,-0.011894922663687088
13.247955801104974,-0.0452562164005151
13.28132596685083,-0.05286994369091799
13.314696132596685,-0.03248155702837764
13.348066298342543,0.006716141299675552
13.381436464088399,0.048004489664274
13.414806629834255,0.07405635919229366
13.448176795580112,0.07393812932940884
13.481546961325968,0.04738481894394384
13.514917127071824,0.004733538621687421
13.548287292817681,-0.03735354545121391
13.581657458563537,-0.06261418203397445
13.615027624309393,-0.06165375073849019
13.648397790055249,-0.03554833208995259
13.681767955801106,0.004869960281762058
13.715138121546962,0.04368893659008582
13.748508287292818,0.06648542277182402
13.781878453038676,0.06591222283215734
13.815248618784532,0.043955323376957574
13.848618784530387,0.01013774009109557
13.881988950276245,-0.023156956039408465
13.9153591160221,-0.04586024002306566
13.948729281767957,-0.05355403954108996
13.982099447513813,-0.047794023486518976
14.01546961325967,-0.033849015640873496
14.048839779005526,-0.017467614810358027
14.082209944751382,-0.002489721321885114
14.11558011049724,0.00965627737920006
14.148950276243095,0.018777339007037156
14.182320441988951,0.024246551748487933
14.215690607734807,0.02418937987270655
14.249060773480664,0.016176080209357287
14.28243093922652,-0.0010087823262212785
14.315801104972376,-0.025716641815931557
14.349171270718234,-0.0530864777867292
14.38254143646409,-0.07641572224704618
14.415911602209945,-0.08965286206438217
14.449281767955803,-0.08976574053548719
14.482651933701659,-0.07781201935869736
14.516022099447515,-0.058232280323521235
14.54939226519337,-0.036771141577109805
14.582762430939228,-0.01804391946513804
14.616132596685084,-0.003853264190991718
14.64950276243094,0.00705655748697899
14.682872928176797,0.017816799025084325
14.716243093922653,0.03149022023577361
14.749613259668509,0.04935150590058439
14.782983425414367,0.07019783651694078
14.816353591160222,0.09090821570515892
14.849723756906078,0.10780262774204472
14.883093922651934,0.11799339677018005
14.916464088397792,0.12007433187610218
14.949834254143648,0.11402570132600166
14.983204419889503,0.10073443046704394
15.016574585635361,0.08166592519162269
15.049944751381217,0.058900492853875254
15.083314917127073,0.035250854941451554
15.116685082872928,0.013942957902849735
15.150055248618786,-0.002390493318165492
15.183425414364642,-0.01304824522902024
15.216795580110498,-0.02009348403881722
15.250165745856355,-0.027909611606241683
15.283535911602211,-0.041368195526174885
15.316906077348067,-0.06336813889395167
15.350276243093925,-0.09300924695236157
15.38364640883978,-0.12543469870372878
15.417016574585636,-0.15351169412470034
15.450386740331492,-0.1705259403668362
15.48375690607735,-0.17254137366683528
15.517127071823205,-0.1593278974961249
15.550497237569061,-0.13361095973184892
15.583867403314919,-0.09931270975100152
15.617237569060775,-0.05989319245248955
15.65060773480663,-0.01765144107354257
15.683977900552488,0.025863236636436804
15.717348066298344,0.06886827235623118
15.7507182320442,0.10858821749253783
15.784088397790056,0.14124715877618815
15.817458563535913,0.16280427052980664
15.85082872928177,0.17000410227691612
15.884198895027625,0.16125652156266299
15.917569060773483,0.13711142981080593
15.950939226519338,0.10037440967738204
15.984309392265194,0.055972239538017804
16.01767955801105,0.010511434307690267
16.051049723756908,-0.028688600537414028
16.084419889502765,-0.05519729546276457
16.11779005524862,-0.06539587982146615
16.151160220994477,-0.05993838529628951
16.18453038674033,-0.04385990975510685
16.21790055248619,-0.024924545787887147
16.251270718232046,-0.010701767919383057
16.2846408839779,-0.00564544883275865
16.318011049723758,-0.009586504370555422
16.351381215469615,-0.01837044209808632
16.38475138121547,-0.026231670822348608
16.418121546961327,-0.028579154541285054
16.451491712707185,-0.023741430663799735
16.48486187845304,-0.012951856780261395
16.518232044198896,0.001044235132154324
16.551602209944754,0.01563232674318941
16.584972375690608,0.029155745833869196
16.618342541436466,0.04061381146617122
16.651712707182323,0.048781671496489785
16.685082872928177,0.051675475672057755
16.718453038674035,0.04696680987086437
16.751823204419892,0.033231136272571224
16.785193370165747,0.011312903441119333
16.818563535911604,-0.015043772653574972
16.851933701657458,-0.03981605117791256
16.885303867403316,-0.056528840042350315
16.918674033149173,-0.060696755137509356
16.952044198895027,-0.051927497024459555
16.985414364640885,-0.034676358209991244
17.018784530386743,-0.017016428396519692
17.052154696132597,-0.007591458726302357
