Time (s),Filtered Signal
0.0,-0.01586092365111819
0.033370535714285714,-0.08548205002136706
0.06674107142857143,-0.14361674426264212
0.10011160714285713,-0.18406336383634675
0.13348214285714285,-0.2059687504750857
0.16685267857142858,-0.21167380806368288
0.20022321428571427,-0.20276151201750908
0.23359375,-0.17732028935643832
0.2669642857142857,-0.13080652211457586
0.30033482142857143,-0.060511589963212264
0.33370535714285715,0.029050253967841624
0.36707589285714287,0.12376008620554105
0.40044642857142854,0.20324756026299995
0.43381696428571426,0.24949989805690137
0.4671875,0.2567457552210436
0.5005580357142857,0.2369496429080677
0.5339285714285714,0.21669392342000895
0.5672991071428571,0.22542389609017904
0.6006696428571429,0.2799417031641562
0.6340401785714286,0.372914705839673
0.6674107142857143,0.47209042961177955
0.70078125,0.5319966213849565
0.7341517857142857,0.5134731115738269
0.7675223214285715,0.40186863823568375
0.8008928571428571,0.2148182979739616
0.8342633928571428,-0.004526697443080737
0.8676339285714285,-0.2056070405307875
0.9010044642857142,-0.3509366632232783
0.934375,-0.42898489339911366
0.9677455357142857,-0.45373538064114805
1.0011160714285714,-0.4523015104822488
1.0344866071428571,-0.4480565097712108
1.0678571428571428,-0.4486082744048292
1.1012276785714286,-0.44479200713259115
1.1345982142857143,-0.4205175625255743
1.16796875,-0.3672343864556409
1.2013392857142857,-0.29416839407114975
1.2347098214285714,-0.22768258393222854
1.2680803571428572,-0.19897617329586118
1.3014508928571429,-0.22588601091230004
1.3348214285714286,-0.29846621218135344
1.3681919642857143,-0.37719424800522716
1.4015625,-0.40714326278069524
1.4349330357142858,-0.3435194739556848
1.4683035714285715,-0.17719297176373208
1.5016741071428572,0.05322792759276828
1.535044642857143,0.271782101082346
1.5684151785714286,0.39707518031314076
1.6017857142857141,0.38341455979723815
1.6351562499999999,0.2515863972316372
1.6685267857142856,0.09117432359463207
1.7018973214285713,0.02745230577438415
1.735267857142857,0.1627531130903426
1.7686383928571427,0.5171984974567815
1.8020089285714285,0.9987223531004181
1.8353794642857142,1.4229942779255509
1.86875,1.5823372419236357
1.9021205357142856,1.337981815258855
1.9354910714285714,0.6943363321942296
1.968861607142857,-0.18291917492743434
2.002232142857143,-1.0199796779637553
2.0356026785714287,-1.540804918302826
2.0689732142857142,-1.5799519667630617
2.10234375,-1.1506371336969172
2.1357142857142857,-0.4362758849775569
2.169084821428571,0.29003551252855775
2.202455357142857,0.7798685504304371
2.2358258928571426,0.9052843012120184
2.2691964285714286,0.6954876431202764
2.302566964285714,0.3037752621620312
2.3359375,-0.07338050674949972
2.3693080357142855,-0.28427243415832687
2.4026785714285714,-0.277901452328424
2.436049107142857,-0.10813700508416839
2.469419642857143,0.10812202466658424
2.5027901785714284,0.2535339195608651
2.5361607142857143,0.26288847087893885
2.56953125,0.14385153950114413
2.6029017857142858,-0.03851461869540287
2.6362723214285713,-0.200871034390781
2.669642857142857,-0.28287442412434055
2.7030133928571427,-0.2713751397000201
2.7363839285714286,-0.1992656163510648
2.769754464285714,-0.12393808341835356
2.803125,-0.09898237088537605
2.8364955357142856,-0.15318400910816862
2.8698660714285715,-0.2842346643555189
2.903236607142857,-0.4656666329038144
2.936607142857143,-0.6596353144306234
2.9699776785714285,-0.8278818647259668
3.0033482142857144,-0.9373304242392482
3.03671875,-0.9617274027661773
3.070089285714286,-0.8831367906316292
3.1034598214285714,-0.695847096123147
3.1368303571428573,-0.41180221810395257
3.170200892857143,-0.06379874770244426
3.2035714285714283,0.2974986533839125
3.2369419642857142,0.6139966308519689
3.2703124999999997,0.8354355651827167
3.3036830357142857,0.9339791992069171
3.337053571428571,0.9123305221184365
3.370424107142857,0.8018892833989746
3.4037946428571426,0.6512523036381204
3.4371651785714286,0.5090424664751639
3.470535714285714,0.407350940473662
3.50390625,0.3522513230234109
3.5372767857142855,0.32567172486510826
3.5706473214285714,0.2987252911735041
3.604017857142857,0.2515066127761864
3.637388392857143,0.19031472909503275
3.6707589285714284,0.15255791970604227
3.7041294642857143,0.1936795323334452
3.7375,0.35860804604835195
3.7708705357142858,0.6491784055416716
3.8042410714285713,1.0039671824942786
3.837611607142857,1.3043340718773024
3.8709821428571427,1.4099349254245805
3.9043526785714286,1.2126715844030103
3.937723214285714,0.6869307648398377
3.97109375,-0.08754139497643079
4.004464285714286,-0.9435388812379578
4.0378348214285715,-1.6805519499954906
4.0712053571428575,-2.133790488244449
4.1045758928571425,-2.229582811744189
4.1379464285714285,-2.004916866665425
4.171316964285714,-1.5849851531305974
4.2046875,-1.1303052315630104
4.238058035714285,-0.7762492026922416
4.271428571428571,-0.5886223278973658
4.304799107142857,-0.5503413444306087
4.338169642857142,-0.580871809700362
4.371540178571428,-0.577530416609005
4.404910714285714,-0.46057663757449163
4.43828125,-0.20433337397615972
4.471651785714285,0.15633409043510313
4.505022321428571,0.5441695302136441
4.538392857142857,0.8724740580932678
4.571763392857143,1.0780274159227596
4.605133928571428,1.140794197200969
4.638504464285714,1.0842794203051924
4.671875,0.9592584593317797
4.705245535714286,0.8201122463900931
4.738616071428571,0.704536883707348
4.771986607142857,0.6240536556652889
4.805357142857143,0.5668909614250495
4.838727678571429,0.5095262588597723
4.872098214285714,0.4306017563301623
4.90546875,0.32145049931938013
4.938839285714286,0.1900137919756009
4.972209821428572,0.05789843293712009
5.005580357142857,-0.04749171167375729
5.038950892857143,-0.1028124160425018
5.072321428571429,-0.09762899461126939
5.105691964285715,-0.03973562155498412
5.1390625,0.044790298275626875
5.172433035714286,0.11736760103581403
5.2058035714285715,0.13747528109507126
5.2391741071428575,0.07513107494125619
5.2725446428571425,-0.07888559048277617
5.3059151785714285,-0.3090929661645335
5.339285714285714,-0.5795982612966872
5.3726562499999995,-0.8451275691986938
5.406026785714285,-1.0641533264614493
5.439397321428571,-1.2085261858215353
5.472767857142857,-1.2660706252830756
5.506138392857142,-1.2365735132165399
5.539508928571428,-1.1250302471135731
5.572879464285714,-0.9367525147938461
5.60625,-0.6766985430081235
5.639620535714285,-0.35200580188539743
5.672991071428571,0.025204886168478418
5.706361607142857,0.43680029730583597
5.739732142857143,0.8588468522823612
5.773102678571428,1.260960003780048
5.806473214285714,1.6040813300018129
5.83984375,1.839506156147279
5.873214285714286,1.9143018214081216
5.906584821428571,1.7861795219623533
5.939955357142857,1.444473581791491
5.973325892857143,0.9271597637341487
6.006696428571429,0.32218502810149724
6.040066964285714,-0.25261146215284747
6.0734375,-0.6856519082623926
6.106808035714286,-0.9089343259522235
6.140178571428572,-0.9196045905333629
6.173549107142857,-0.7760302311590264
6.206919642857143,-0.5708847309202513
6.240290178571429,-0.39426094491874253
6.273660714285715,-0.30316950693806716
6.30703125,-0.3089420719361956
6.340401785714286,-0.3844685996378139
6.3737723214285715,-0.48421484154511196
6.407142857142857,-0.5657914182949877
6.4405133928571425,-0.6036058666088273
6.4738839285714285,-0.5909079357447239
6.507254464285714,-0.5328868286901648
6.5406249999999995,-0.4373074189217123
6.573995535714285,-0.30906423159856083
6.607366071428571,-0.1515703487298888
6.640736607142857,0.026856031838907002
6.674107142857142,0.20694253592812994
6.707477678571428,0.3583992630717021
6.740848214285714,0.44825285267776893
6.77421875,0.4547918618489049
6.807589285714285,0.38012914762886146
6.840959821428571,0.2538941535543104
6.874330357142857,0.12451175911331169
6.907700892857143,0.040935687469618294
6.941071428571428,0.03300576014690287
6.974441964285714,0.0997687709683851
7.0078125,0.21143261631405355
7.041183035714286,0.3240109677206109
7.074553571428571,0.3995491932994375
7.107924107142857,0.4222082835750157
7.141294642857143,0.40270065478796135
7.174665178571429,0.3694378332101716
7.208035714285714,0.35124657558163713
7.24140625,0.36039781974540175
7.274776785714286,0.384218455314394
7.308147321428572,0.3892368854839919
7.341517857142857,0.3359355705663515
7.374888392857143,0.1974936280766286
7.408258928571429,-0.025684275686353116
7.441629464285715,-0.3019558762030074
7.475,-0.5769319405593788
7.508370535714286,-0.791541772992076
7.5417410714285715,-0.9029528448353055
7.575111607142857,-0.900116436357926
7.6084821428571425,-0.8071132980699759
7.6418526785714285,-0.67181439684035
7.675223214285714,-0.5436326560715687
7.7085937499999995,-0.4499143551294989
7.741964285714285,-0.3826645047346645
7.775334821428571,-0.30370418909196667
7.808705357142857,-0.1676977736352529
7.842075892857142,0.047397663328220506
7.875446428571428,0.31863964297956354
7.908816964285714,0.578922561799378
7.9421875,0.7435360471750401
7.975558035714285,0.7517911398075808
8.008928571428571,0.6032169252644124
8.042299107142856,0.3680868543585582
8.075669642857143,0.1633061727141535
8.109040178571428,0.10182384035350922
8.142410714285715,0.23802793512876777
8.17578125,0.5354510964394802
8.209151785714285,0.8740951936567077
8.242522321428572,1.0967279166303479
8.275892857142857,1.075039217260514
8.309263392857142,0.7664808363065063
8.342633928571429,0.2360383039593494
8.376004464285714,-0.3672790936373641
8.409375,-0.8691724069444853
8.442745535714286,-1.138598213769952
8.47611607142857,-1.1371826403849374
8.509486607142858,-0.9296953394849372
8.542857142857143,-0.6526041051206328
8.576227678571428,-0.4546682325400592
8.609598214285715,-0.4340375110864238
8.64296875,-0.5970815928177177
8.676339285714285,-0.8554262540888269
8.709709821428572,-1.06264214746219
8.743080357142857,-1.0760686872680487
8.776450892857143,-0.8185508879663799
8.809821428571428,-0.3142958160426605
8.843191964285714,0.31638375952699493
8.8765625,0.9011798747181833
8.909933035714285,1.2799966065351835
8.94330357142857,1.3626466347923314
8.976674107142857,1.157520998323043
9.010044642857142,0.7621211716492057
9.04341517857143,0.3223169936603157
9.076785714285714,-0.021379964185439727
9.11015625,-0.1794922398782513
9.143526785714286,-0.13592037474037588
9.176897321428571,0.05766315373135557
9.210267857142856,0.30926782423363935
9.243638392857143,0.523000609092808
9.277008928571428,0.6305512022758748
9.310379464285715,0.6080266433213802
9.34375,0.4753055899457054
9.377120535714285,0.2816028938600065
9.410491071428572,0.08474611792304668
9.443861607142857,-0.0679804969103489
9.477232142857142,-0.1519180191789185
9.510602678571429,-0.16807601448452764
9.543973214285714,-0.1384198674823928
9.57734375,-0.09662397481315302
9.610714285714286,-0.07778340534093077
9.64408482142857,-0.10952890251781411
9.677455357142858,-0.2055366110059085
9.710825892857143,-0.3615722339943468
9.744196428571428,-0.5544052365569021
9.777566964285715,-0.7446635108044192
9.8109375,-0.884797290140472
9.844308035714285,-0.9318507178395888
9.877678571428572,-0.861938262778808
9.911049107142857,-0.6808039588343449
9.944419642857143,-0.4247451341724871
9.977790178571428,-0.14964449036141286
10.011160714285714,0.08826105831730839
10.04453125,0.2512577435383689
10.077901785714285,0.3295734007479268
10.11127232142857,0.3373733683179089
10.144642857142857,0.29930987874556514
10.178013392857142,0.237042348959534
10.21138392857143,0.164151225976478
10.244754464285714,0.09104769705938247
10.278125,0.033761567152256276
10.311495535714286,0.017476446795867382
10.344866071428571,0.06951310203423834
10.378236607142856,0.204355649803057
10.411607142857143,0.4097268635018086
10.444977678571428,0.6432824600015736
10.478348214285715,0.8438603817778728
10.51171875,0.9530076310841415
10.545089285714285,0.9367189468532059
10.578459821428572,0.7971841362007962
10.611830357142857,0.5695859232628895
10.645200892857142,0.30641120310918746
10.678571428571429,0.05732112241553872
10.711941964285714,-0.14623274095474934
10.745312499999999,-0.2958382163483067
10.778683035714286,-0.4003506925930016
10.81205357142857,-0.4745205759623547
10.845424107142858,-0.5288805489654816
10.878794642857143,-0.5657813066929135
10.912165178571428,-0.5821485318744486
10.945535714285715,-0.5755800442586663
10.97890625,-0.5490553226678888
11.012276785714285,-0.5112149523159302
11.045647321428572,-0.47241296549491524
11.079017857142857,-0.43936543198825545
11.112388392857143,-0.4117797623817405
11.145758928571428,-0.3828741845600624
11.179129464285714,-0.3433388059047019
11.2125,-0.28644796198142763
11.245870535714285,-0.21157804805732056
11.27924107142857,-0.12436231274463476
11.312611607142857,-0.03351700991064768
11.345982142857142,0.05387732411765528
11.37935267857143,0.13595967993636435
11.412723214285714,0.21628980556568367
11.44609375,0.3001383145771712
11.479464285714286,0.38866116734708167
11.512834821428571,0.4744759883439712
11.546205357142856,0.5420724436326956
11.579575892857143,0.5741902043261247
11.612946428571428,0.5617223332711877
11.646316964285715,0.5118630833893644
11.6796875,0.44907670111792364
11.713058035714285,0.4065834161326541
11.746428571428572,0.41103437525033676
11.779799107142857,0.46719861124256973
11.813169642857142,0.5504207048243478
11.846540178571429,0.6116233658531797
11.879910714285714,0.5940806980743925
11.913281249999999,0.45572019510101935
11.946651785714286,0.18790595632798315
11.98002232142857,-0.17716773621760745
12.013392857142858,-0.5737001940156252
12.046763392857143,-0.9213805246609494
12.080133928571428,-1.149079835686069
12.113504464285715,-1.2147410224971293
12.146875,-1.1154381053514393
12.180245535714285,-0.8857449802224224
12.213616071428572,-0.5863384050427082
12.246986607142857,-0.28691753134612935
12.280357142857143,-0.048147684076223295
12.313727678571428,0.09288717009270125
12.347098214285714,0.1300240595631626
12.38046875,0.08610926666941754
12.413839285714285,0.002504819133812043
12.44720982142857,-0.07625493755058434
12.480580357142857,-0.11699798665950337
12.513950892857142,-0.10641647461131319
12.54732142857143,-0.05106341697586057
12.580691964285714,0.029944256448449044
12.6140625,0.11551529270269102
12.647433035714286,0.19173307166316778
12.680803571428571,0.25613385296756014
12.714174107142856,0.3160919004068428
12.747544642857143,0.38265395363731003
12.780915178571428,0.46268262409800937
12.814285714285713,0.5525379081074101
12.84765625,0.6358422255198487
12.881026785714285,0.6864631011738801
12.914397321428572,0.6761388300653757
12.947767857142857,0.5845929205467579
12.981138392857142,0.4088901985952185
13.014508928571429,0.16848651165490505
13.047879464285714,-0.09679411066134089
13.081249999999999,-0.33659410678666646
13.114620535714286,-0.5054260601339611
13.14799107142857,-0.5784728950420541
13.181361607142858,-0.561251554538025
13.214732142857143,-0.4880501850615177
13.248102678571428,-0.4083050874279624
13.281473214285715,-0.3655509682276646
13.31484375,-0.3776432862151944
13.348214285714285,-0.4273462010774798
13.381584821428572,-0.4684880766647959
13.414955357142857,-0.4461979168116843
13.448325892857143,-0.3231866119638862
13.481696428571428,-0.10063987748019465
13.515066964285714,0.17623341671254855
13.5484375,0.4319399215051865
13.581808035714285,0.5894193711949794
13.61517857142857,0.6023565522676023
13.648549107142857,0.47702799245303806
13.681919642857142,0.27304049380240963
13.71529017857143,0.08098962677028317
13.748660714285714,-0.014489434322495656
13.78203125,0.0295070659557911
13.815401785714286,0.19558403274404373
13.848772321428571,0.4132483509857986
13.882142857142856,0.5886742771060924
13.915513392857143,0.6435130243983951
13.948883928571428,0.5454171958099074
13.982254464285713,0.31738164694198057
14.015625,0.02331718597589866
14.048995535714285,-0.26167694499806315
14.082366071428572,-0.48145905056569566
14.115736607142857,-0.6156896382654348
14.149107142857142,-0.6774570431327865
14.182477678571429,-0.695891550311123
14.215848214285714,-0.6950692842758165
14.249218749999999,-0.6810811719204937
14.282589285714286,-0.6433736599654175
14.31595982142857,-0.5678913886686436
14.349330357142858,-0.4529455672110687
14.382700892857143,-0.3175021761254643
14.416071428571428,-0.19609748980453612
14.449441964285715,-0.12221593368232642
14.4828125,-0.10863002856522144
14.516183035714285,-0.1354871885173551
14.549553571428572,-0.15367957975481375
14.582924107142857,-0.10380002851182529
14.616294642857143,0.05677337750807463
14.649665178571428,0.33066657992556286
14.683035714285714,0.6722376265694686
14.71640625,0.9991990809194508
14.749776785714285,1.220567469164866
14.78314732142857,1.2702745953087622
14.816517857142857,1.1331526650422918
14.849888392857142,0.8528036660357855
14.88325892857143,0.5177792520742253
14.916629464285714,0.23077943412787713
14.95,0.07213290379672373
14.983370535714286,0.07119533237808616
15.016741071428571,0.1964742590629052
15.050111607142856,0.368173576244393
15.083482142857143,0.4881714882837893
15.116852678571428,0.475757108967482
15.150223214285713,0.29557542688512306
15.18359375,-0.032103909930225896
15.216964285714285,-0.44122087582124875
15.250334821428572,-0.8444079273993869
15.283705357142857,-1.1616989348690436
15.317075892857142,-1.3427456314163866
15.350446428571429,-1.3757439427566431
15.383816964285714,-1.282247624840703
15.417187499999999,-1.1024097726161257
15.450558035714286,-0.8779603898751307
15.48392857142857,-0.6397578302493663
15.517299107142858,-0.4037393545616581
15.550669642857143,-0.17506069818161876
15.584040178571428,0.043206907315077175
15.617410714285715,0.24206207318138415
15.65078125,0.4037750929584072
15.684151785714285,0.506107308197493
15.717522321428572,0.53168417883991
15.750892857142857,0.47774248559023624
15.784263392857143,0.3608748430748848
15.817633928571428,0.21363955651084793
15.851004464285714,0.07397672545478105
15.884375,-0.027846445279876997
15.917745535714285,-0.07860929200942127
15.95111607142857,-0.0834264490104981
15.984486607142857,-0.05857473558841593
16.017857142857142,-0.019692154963066276
16.05122767857143,0.02850823258528131
16.084598214285712,0.09546802369084498
16.11796875,0.19859059904869886
16.151339285714286,0.3497615709027558
16.18470982142857,0.5408502865393825
16.218080357142856,0.736313772186194
16.251450892857143,0.8790313182167028
16.28482142857143,0.9096175688383402
16.318191964285713,0.792105046961814
16.3515625,0.5341505587692653
16.384933035714287,0.19106680376977717
16.41830357142857,-0.14999418007343113
16.451674107142857,-0.40002527547988426
16.485044642857144,-0.49988806360301474
16.518415178571427,-0.44057788338147397
16.551785714285714,-0.2641134988137104
16.58515625,-0.04557832126491295
16.618526785714284,0.13557630450408478
16.65189732142857,0.22325185364531747
16.685267857142858,0.20115075003155733
16.71863839285714,0.09300436963566254
16.752008928571428,-0.05158541583479063
16.785379464285715,-0.17850801940535563
16.81875,-0.24871383715772896
16.852120535714285,-0.2491609358980806
16.88549107142857,-0.1929973877173165
16.91886160714286,-0.11148091932840298
16.95223214285714,-0.04250100563881776
16.98560267857143,-0.02000807748013562
17.018973214285715,-0.06632005424785492
17.05234375,-0.1871725522072757
17.085714285714285,-0.3689633711751929
17.119084821428572,-0.5788707927438699
17.152455357142856,-0.7699018254006046
17.185825892857142,-0.8925331295055865
17.21919642857143,-0.9115884472162668
17.252566964285712,-0.8225848607779236
17.2859375,-0.658981369023882
17.319308035714286,-0.48352107779152376
17.35267857142857,-0.3637120545679169
17.386049107142856,-0.3404661802382994
17.419419642857143,-0.40480181868828313
17.45279017857143,-0.49600503678923863
17.486160714285713,-0.5252848640471923
17.51953125,-0.41593498946705987
17.552901785714287,-0.14116349811189624
17.58627232142857,0.2600718938836984
17.619642857142857,0.6991485222517365
17.653013392857144,1.0795041585550644
17.686383928571427,1.3432261979889863
17.719754464285714,1.497217279123834
17.753125,1.6028514378907643
17.786495535714284,1.7323085082723297
