Time (s),Filtered Signal
0.0,0.03239086877613207
0.033370165745856356,-0.17134873280848986
0.06674033149171271,-0.3127070803166718
0.10011049723756907,-0.35126084566323934
0.13348066298342542,-0.2822979613831469
0.16685082872928178,-0.1372160083498461
0.20022099447513814,0.029574037767222415
0.2335911602209945,0.16207924953826072
0.26696132596685085,0.2238865824910678
0.30033149171270723,0.2105141734030512
0.33370165745856356,0.14820335233791476
0.3670718232044199,0.08032662699791099
0.4004419889502763,0.04787921736643864
0.43381215469613266,0.07268657003423576
0.467182320441989,0.15011533152322964
0.5005524861878453,0.2533584885888667
0.5339226519337017,0.3462061585873163
0.5672928176795581,0.39799572297848745
0.6006629834254145,0.39435475116192736
0.6340331491712707,0.34001747748994066
0.6674033149171271,0.2538455437657369
0.7007734806629835,0.15936790890486
0.7341436464088398,0.07541935780121937
0.7675138121546962,0.01059559435685976
0.8008839779005525,-0.03700929826744631
0.8342541436464089,-0.07577562934390215
0.8676243093922653,-0.1148335387564729
0.9009944751381216,-0.15943973589515748
0.934364640883978,-0.2092084137278441
0.9677348066298344,-0.259331035588678
1.0011049723756906,-0.303572481252408
1.0344751381215471,-0.3373258573457261
1.0678453038674034,-0.35939173088576176
1.1012154696132597,-0.37201615855289066
1.1345856353591162,-0.3795370104056644
1.1679558011049724,-0.3863953977428079
1.201325966850829,-0.39523479688698815
1.2346961325966852,-0.4055480650413678
1.2680662983425415,-0.41310978130816794
1.301436464088398,-0.4103759491714308
1.3348066298342542,-0.3880418116385512
1.3681767955801105,-0.3377733904673131
1.401546961325967,-0.2556167695647676
1.4349171270718233,-0.1449097985936331
1.4682872928176796,-0.017154504886247035
1.501657458563536,0.11026485160792421
1.5350276243093923,0.2193502988985051
1.5683977900552488,0.29797568486377796
1.601767955801105,0.3447953061317981
1.6351381215469614,0.37005110980712036
1.6685082872928179,0.3913742328374764
1.7018784530386741,0.4259484992092571
1.7352486187845306,0.4822209389726735
1.768618784530387,0.5547806166523548
1.8019889502762432,0.6248212718319581
1.8353591160220997,0.6662891549677423
1.868729281767956,0.6554423126705914
1.9020994475138122,0.5801512198618716
1.9354696132596687,0.4454045367961296
1.968839779005525,0.2730022539048857
2.0022099447513813,0.0956099243949486
2.0355801104972375,-0.05269629494058342
2.0689502762430942,-0.1462354860140091
2.1023204419889505,-0.17483427175323998
2.135690607734807,-0.14620646122664654
2.169060773480663,-0.08299161418682852
2.2024309392265193,-0.015311810644854897
2.235801104972376,0.02900400529283985
2.2691712707182323,0.033459746527310916
2.3025414364640886,-0.0020686537958665282
2.335911602209945,-0.06260752092648268
2.369281767955801,-0.12577454754804357
2.402651933701658,-0.17310148034247874
2.436022099447514,-0.19993697866604568
2.4693922651933704,-0.2186442281366005
2.5027624309392267,-0.25234570206945006
2.536132596685083,-0.32112813833486364
2.5695027624309392,-0.42733479965969007
2.602872928176796,-0.5486375420091808
2.636243093922652,-0.6450760607178329
2.6696132596685085,-0.6794153050362343
2.7029834254143648,-0.6418967668870823
2.736353591160221,-0.5653015533221545
2.7697237569060777,-0.5181244981308679
2.803093922651934,-0.5733195345305561
2.8364640883977903,-0.7637962497326881
2.8698342541436466,-1.0465498041372467
2.903204419889503,-1.2979848257394377
2.936574585635359,-1.3509425681573968
2.969944751381216,-1.0633833259072647
3.003314917127072,-0.3897524180728033
3.0366850828729284,0.5801013232706018
3.0700552486187846,1.6374853982575779
3.103425414364641,2.5240890016868107
3.1367955801104976,3.0246837255513324
3.170165745856354,3.0418865238722135
3.20353591160221,2.6206664533334787
3.2369060773480665,1.9156232139613771
3.2702762430939227,1.121426172545461
3.3036464088397794,0.401524101682092
3.3370165745856357,-0.15422829182881648
3.370386740331492,-0.5314560000427524
3.4037569060773483,-0.7627913918182665
3.4371270718232045,-0.8916180987503391
3.4704972375690613,-0.9486211834354178
3.5038674033149175,-0.9489268515367966
3.537237569060774,-0.9031855154758659
3.57060773480663,-0.8286428383459195
3.6039779005524863,-0.7492927100591608
3.6373480662983426,-0.6841888720706225
3.6707182320441993,-0.6327267089104432
3.7040883977900556,-0.5689446632152872
3.737458563535912,-0.4518551118105246
3.770828729281768,-0.2487932065548157
3.8041988950276244,0.04010160397290762
3.837569060773481,0.3705087761197951
3.8709392265193374,0.6640628281835684
3.9043093922651937,0.8373255485828285
3.93767955801105,0.8365298389189045
3.9710497237569062,0.6611531445201484
4.0044198895027625,0.3644620832683741
4.037790055248619,0.03074053044746265
4.071160220994475,-0.25927402039568576
4.104530386740332,-0.4576878219306183
4.1379005524861885,-0.5601135775509006
4.171270718232044,-0.594867525994371
4.204640883977901,-0.5991028013022334
4.238011049723757,-0.5960415299230758
4.271381215469614,-0.5850981394683501
4.30475138121547,-0.5482454127801858
4.338121546961326,-0.4666715873350036
4.371491712707183,-0.3367922159781552
4.404861878453039,-0.17629829264757324
4.438232044198895,-0.017525515409967208
4.471602209944752,0.1072200728093812
4.504972375690608,0.17983787714985475
4.538342541436465,0.20284252946481715
4.5717127071823205,0.19576366602127687
4.605082872928177,0.18471581425056438
4.638453038674034,0.19112079210868507
4.67182320441989,0.22474648638960867
4.7051933701657465,0.28299413751616825
4.738563535911602,0.35497698775714154
4.771933701657459,0.4271828811671852
4.805303867403316,0.48785895372237087
4.8386740331491715,0.5289085327899214
4.872044198895028,0.5457762059344468
4.905414364640884,0.5365959523904953
4.938784530386741,0.5016376339886821
4.972154696132597,0.44329369658776124
5.005524861878453,0.3661643736313056
5.03889502762431,0.2766418814498376
5.072265193370166,0.18175932679807766
5.105635359116023,0.08763584684595971
5.1390055248618784,-0.0017804862046932326
5.172375690607735,-0.08502937714208472
5.205745856353592,-0.1623202356263578
5.239116022099448,-0.23396446278405605
5.272486187845304,-0.2988397047956756
5.30585635359116,-0.3536761556409396
5.339226519337017,-0.39357203378488015
5.372596685082874,-0.41356474465893667
5.4059668508287295,-0.4106021272298781
5.439337016574586,-0.38511143753236865
5.472707182320442,-0.34158164337623925
5.506077348066299,-0.2879673837283363
5.5394475138121555,-0.2340492605294026
5.572817679558011,-0.18906339268474062
5.606187845303868,-0.1590608425264197
5.639558011049724,-0.14469452605964092
5.672928176795581,-0.14034613739231533
5.706298342541437,-0.13537178645232503
5.739668508287293,-0.11754014768453076
5.77303867403315,-0.0776725444841142
5.806408839779006,-0.01368682342961763
5.839779005524862,0.0677162595150703
5.873149171270718,0.1525215057810083
5.906519337016575,0.22344513735906568
5.939889502762432,0.2649418673081651
5.9732596685082875,0.2673309610526247
6.006629834254144,0.2287594627103051
6.04,0.15468461634771027
6.073370165745857,0.055487799584940184
6.1067403314917135,-0.05658103578454253
6.140110497237569,-0.1698617104134058
6.173480662983426,-0.27436797196850576
6.206850828729282,-0.36157006861883256
6.240220994475139,-0.4236901316111425
6.273591160220995,-0.45346632423843847
6.306961325966851,-0.44477934091680865
6.340331491712708,-0.39372216383283626
6.373701657458564,-0.29931704551809796
6.40707182320442,-0.16347827674138946
6.440441988950277,0.00935539064948306
6.473812154696133,0.2120132755264199
6.50718232044199,0.43332879768535826
6.5405524861878455,0.6564869500814848
6.573922651933702,0.858660384776761
6.607292817679559,1.0135721324935139
6.640662983425415,1.0973003385552753
6.674033149171271,1.095677231927588
6.707403314917127,1.0101376611484267
6.740773480662984,0.8587745913709159
6.774143646408841,0.6709716652105355
6.8075138121546965,0.4768341475351515
6.840883977900553,0.295537019277833
6.874254143646409,0.12810253944841807
6.907624309392266,-0.04115527857427213
6.9409944751381225,-0.2341428735663495
6.974364640883978,-0.463848960040021
7.007734806629835,-0.7220187951789405
7.041104972375691,-0.9764331182132603
7.074475138121548,-1.1801140338520195
7.107845303867403,-1.2887307599332007
7.14121546961326,-1.27816711879298
7.174585635359117,-1.1540707343427898
7.207955801104973,-0.9492770131984507
7.241325966850829,-0.710943231549742
7.274696132596685,-0.48378471478482715
7.308066298342542,-0.2967746320677039
7.341436464088399,-0.15805056022039704
7.3748066298342545,-0.05844720538476068
7.408176795580111,0.019568441868182355
7.441546961325967,0.0922462522900699
7.474917127071824,0.1680831036340492
7.5082872928176805,0.24632946677883413
7.541657458563536,0.3200042161075354
7.575027624309393,0.3813162407504527
7.608397790055249,0.42673483615892466
7.641767955801106,0.45932860722794766
7.675138121546962,0.4872614977718576
7.708508287292818,0.5190943161673559
7.741878453038675,0.5581187435047794
7.775248618784531,0.5986096924396584
7.808618784530387,0.6261934041053512
7.841988950276244,0.6226844953941928
7.8753591160221,0.5735610152863413
7.908729281767957,0.4748065427654109
7.9420994475138125,0.33594659130343746
7.975469613259669,0.17778036111073145
8.008839779005525,0.025749578981853573
8.042209944751383,-0.0981617857810316
8.075580110497238,-0.18163780226725437
8.108950276243094,-0.22416642114394503
8.14232044198895,-0.23496826769685186
8.175690607734808,-0.22834270115235825
8.209060773480664,-0.2186723184771983
8.24243093922652,-0.21674755241746316
8.275801104972377,-0.22793879071681825
8.309171270718233,-0.251872296339655
8.342541436464089,-0.28309078160116585
8.375911602209946,-0.3125191321777033
8.409281767955802,-0.3298409590272345
8.442651933701658,-0.32665723589284545
8.476022099447514,-0.29959042009780673
8.509392265193371,-0.251893073207555
8.542762430939227,-0.1923120328706449
8.576132596685083,-0.13117542496798493
8.60950276243094,-0.07535820652967176
8.642872928176796,-0.024857547243836844
8.676243093922652,0.026734125236398013
8.709613259668508,0.0875586405854776
8.742983425414366,0.16083667650056765
8.776353591160222,0.23996145102502028
8.809723756906077,0.30853845311003286
8.843093922651935,0.3460768676536546
8.87646408839779,0.336899287532828
8.909834254143647,0.27784295284782456
8.943204419889504,0.1807026541049656
8.97657458563536,0.06799936402662553
9.009944751381216,-0.03588953296362367
9.043314917127072,-0.11386856306150242
9.07668508287293,-0.16122323556662743
9.110055248618785,-0.18470165172942918
9.143425414364641,-0.1967864492860487
9.176795580110499,-0.2086013676818969
9.210165745856354,-0.22505375055522325
9.24353591160221,-0.24404203630140836
9.276906077348068,-0.25909256829711236
9.310276243093924,-0.263128284616673
9.34364640883978,-0.2510514945108484
9.377016574585635,-0.2201966774579205
9.410386740331493,-0.16941592741930223
9.443756906077349,-0.09844775120392005
9.477127071823205,-0.008747741668572732
9.510497237569062,0.09450720900932537
9.543867403314918,0.2009521411859598
9.577237569060774,0.2961164984562903
9.610607734806631,0.365825377258397
9.643977900552487,0.40248189091134706
9.677348066298343,0.40994218633631635
9.710718232044199,0.40351838162276693
9.744088397790057,0.40363715895513985
9.777458563535912,0.4250877152584976
9.810828729281768,0.466849135759149
9.844198895027626,0.5082880247714663
9.877569060773482,0.5151293335985974
9.910939226519337,0.4538267601825794
9.944309392265193,0.3081723046333651
9.97767955801105,0.08996230286734361
10.011049723756907,-0.16220358905265425
10.044419889502763,-0.396232189865673
10.07779005524862,-0.5660621762429129
10.111160220994476,-0.6483348150509551
10.144530386740332,-0.6486941696560892
10.17790055248619,-0.5955371522768534
10.211270718232045,-0.5251314434091059
10.244640883977901,-0.4656692996527452
10.278011049723757,-0.4274366296639248
10.311381215469615,-0.40253049743374786
10.34475138121547,-0.3727261960558855
10.378121546961326,-0.32064047587170935
10.411491712707184,-0.23866695710796498
10.44486187845304,-0.1321225308769159
10.478232044198895,-0.016272528741941083
10.511602209944753,0.09033046447362691
10.544972375690609,0.172663375555083
10.578342541436465,0.2234407283312327
10.61171270718232,0.24381190631264416
10.645082872928178,0.24141342631825344
10.678453038674034,0.22740652825014362
10.71182320441989,0.2137396922949195
10.745193370165747,0.21092127459995133
10.778563535911603,0.22592911000267002
10.811933701657459,0.2600353748778523
10.845303867403315,0.3071071132699585
10.878674033149172,0.35363098782829444
10.912044198895028,0.3815683489162989
10.945414364640884,0.3739773998563
10.978784530386742,0.32168570141231184
11.012154696132598,0.22815168063835337
11.045524861878453,0.10986607640416558
11.078895027624311,-0.008629721841974757
11.112265193370167,-0.10350488937802726
11.145635359116023,-0.16052703413989813
11.179005524861878,-0.1800293857676754
11.212375690607736,-0.1755566512543967
11.245745856353592,-0.16676326279211406
11.279116022099448,-0.16994336061936322
11.312486187845305,-0.19073110194822926
11.345856353591161,-0.22238412190858056
11.379226519337017,-0.2502117333859848
11.412596685082875,-0.2596021407903864
11.44596685082873,-0.24335593890473367
11.479337016574586,-0.20456611640428723
11.512707182320442,-0.15381590502425052
11.5460773480663,-0.10262139178347032
11.579447513812156,-0.05707649358663694
11.612817679558011,-0.015415897854627962
11.646187845303869,0.029166136156013305
11.679558011049725,0.0822432646026551
11.71292817679558,0.14231006839618382
11.746298342541436,0.19903953263649973
11.779668508287294,0.2369565725203987
11.81303867403315,0.24268643187649946
11.846408839779006,0.21184805783620408
11.879779005524863,0.15185108839560119
11.91314917127072,0.07915812097912156
11.946519337016575,0.012567527337954425
11.979889502762433,-0.0340042611798808
12.013259668508288,-0.055888349607814386
12.046629834254144,-0.05766376365064226
12.08,-0.04955709359387792
12.113370165745858,-0.04243858829932854
12.146740331491714,-0.04367538085667312
12.18011049723757,-0.05515374705329952
12.213480662983427,-0.07360537631233428
12.246850828729283,-0.09258680656425453
12.280220994475139,-0.10521189985594208
12.313591160220996,-0.10679795933982451
12.346961325966852,-0.09669033976636532
12.380331491712708,-0.07863336076299332
12.413701657458564,-0.05932935516614987
12.447071823204421,-0.045424286110155275
12.480441988950277,-0.039957426374963176
12.513812154696133,-0.0398937445515763
12.54718232044199,-0.03625059066531413
12.580552486187846,-0.01736937344796293
12.613922651933702,0.02560111128488749
12.64729281767956,0.09324560572722687
12.680662983425416,0.17509311232540636
12.714033149171271,0.25132587044259275
12.747403314917127,0.29900213561983857
12.780773480662985,0.3007177623787079
12.81414364640884,0.2521955124208442
12.847513812154697,0.16528229298083885
12.880883977900554,0.06448598500891689
12.91425414364641,-0.02204655170083076
12.947624309392266,-0.07352631328565784
12.980994475138122,-0.08466800562531436
13.01436464088398,-0.06714974584657496
13.047734806629835,-0.04350313920245
13.081104972375691,-0.036146871334524856
13.114475138121549,-0.05673989178050095
13.147845303867404,-0.10101422803822438
13.18121546961326,-0.15160758851094175
13.214585635359118,-0.18740124071276212
13.247955801104974,-0.19454650620568123
13.28132596685083,-0.17351452853216565
13.314696132596685,-0.1386048929462693
13.348066298342543,-0.11027362302594662
13.381436464088399,-0.10429834682945673
13.414806629834255,-0.12330745443340897
13.448176795580112,-0.1548861492558385
13.481546961325968,-0.1771259875258303
13.514917127071824,-0.16883666597866134
13.548287292817681,-0.11944526915659553
13.581657458563537,-0.0338492561615794
13.615027624309393,0.07000119491005237
13.648397790055249,0.16943716337936768
13.681767955801106,0.24703886574021416
13.715138121546962,0.2971601215490037
13.748508287292818,0.32576611877323886
13.781878453038676,0.3439472043431541
13.815248618784532,0.35896284955605173
13.848618784530387,0.3680936510222053
13.881988950276245,0.35903583394991473
13.9153591160221,0.3168304369281247
13.948729281767957,0.2334836601639834
13.982099447513813,0.11476492450357771
14.01546961325967,-0.019805987885068814
14.048839779005526,-0.14394739775850876
14.082209944751382,-0.23491561914336817
14.11558011049724,-0.28185533077655084
14.148950276243095,-0.2883530995307555
14.182320441988951,-0.2686995203089849
14.215690607734807,-0.24055942580232584
14.249060773480664,-0.21803921595932943
14.28243093922652,-0.20811486651365635
14.315801104972376,-0.21100379617551498
14.349171270718234,-0.2228894637404629
14.38254143646409,-0.2386210151326575
14.415911602209945,-0.2528128693699968
14.449281767955803,-0.25941260942178446
14.482651933701659,-0.2511316668298394
14.516022099447515,-0.2202799578295362
14.54939226519337,-0.16144634609181277
14.582762430939228,-0.07488244047492251
14.616132596685084,0.03150776172963371
14.64950276243094,0.1432571641980856
14.682872928176797,0.2435698504289457
14.716243093922653,0.3189309857856669
14.749613259668509,0.3634321337391296
14.782983425414367,0.3797627390407055
14.816353591160222,0.376544030801951
14.849723756906078,0.36349365784690174
14.883093922651934,0.3468231616168614
14.916464088397792,0.32691647528121554
14.949834254143648,0.2990721143247383
14.983204419889503,0.25665810363181524
15.016574585635361,0.19508544242993311
15.049944751381217,0.1148455684271049
15.083314917127073,0.022403909765266135
15.116685082872928,-0.07130843449065104
15.150055248618786,-0.15410030570969993
15.183425414364642,-0.216104595054667
15.216795580110498,-0.25237099006854663
15.250165745856355,-0.2635950635687845
15.283535911602211,-0.2549221947248547
15.316906077348067,-0.23353613233233203
15.350276243093925,-0.20615110880665838
15.38364640883978,-0.177415428434908
15.417016574585636,-0.14968448023521722
15.450386740331492,-0.12391896046689013
15.48375690607735,-0.10095698525733622
15.517127071823205,-0.08232323165527815
15.550497237569061,-0.07007627497258995
15.583867403314919,-0.06576162008037391
15.617237569060775,-0.06905354983554497
15.65060773480663,-0.07689210329763546
15.683977900552488,-0.08373885481616967
15.717348066298344,-0.08305702078073963
15.7507182320442,-0.0695126688777351
15.784088397790056,-0.04100394172854636
15.817458563535913,0.00034454094918222984
15.85082872928177,0.048656184727551045
15.884198895027625,0.09606605632822067
15.917569060773483,0.1350686304089504
15.950939226519338,0.16052384452957935
15.984309392265194,0.17057685939720404
16.01767955801105,0.16627068281073604
16.051049723756908,0.15026395023072003
16.084419889502765,0.12547652976018675
16.11779005524862,0.09442865251041353
16.151160220994477,0.05953683149484931
16.18453038674033,0.02398061583994695
16.21790055248619,-0.0076533285702067135
16.251270718232046,-0.029675045693550305
16.2846408839779,-0.036768764313506196
16.318011049723758,-0.026205497842653754
16.351381215469615,0.0001510623718901382
16.38475138121547,0.03509572207606039
16.418121546961327,0.0672895599210323
16.451491712707185,0.08442305700433195
16.48486187845304,0.07752079900997699
16.518232044198896,0.04494218346741086
16.551602209944754,-0.005554843249117528
16.584972375690608,-0.05790563858930768
16.618342541436466,-0.09220894207463658
16.651712707182323,-0.09147456830974433
16.685082872928177,-0.048378559117630976
16.718453038674035,0.030690135074527464
16.751823204419892,0.12633415045334245
16.785193370165747,0.21190779722566921
16.818563535911604,0.2624495945654818
16.851933701657458,0.2632695654300849
16.885303867403316,0.2145222635853049
16.918674033149173,0.12973433358478811
16.952044198895027,0.0290511447110311
16.985414364640885,-0.0694460655854182
17.018784530386743,-0.15603249168391065
17.052154696132597,-0.23020981171547195
17.085524861878454,-0.29609513059035464
17.118895027624312,-0.3553705317370266
17.152265193370166,-0.40232630532848285
17.185635359116024,-0.42445842071165124
17.21900552486188,-0.40887540533998057
17.252375690607735,-0.35113071924792866
