Time (s),Filtered Signal
0.0,-0.016785545845058262
0.033370165745856356,-0.12396675766131963
0.06674033149171271,-0.2093273159323182
0.10011049723756907,-0.25749432854155135
0.13348066298342542,-0.26355933229697137
0.16685082872928178,-0.2333899949917016
0.20022099447513814,-0.18059447324897665
0.2335911602209945,-0.12172018979127311
0.26696132596685085,-0.07154914141040282
0.30033149171270723,-0.03978324335629386
0.33370165745856356,-0.029563786034902
0.3670718232044199,-0.037684556765851286
0.4004419889502763,-0.056177127282629996
0.43381215469613266,-0.07492316073798709
0.467182320441989,-0.08479402086412889
0.5005524861878453,-0.08051701042156797
0.5339226519337017,-0.0622969907826908
0.5672928176795581,-0.035487245048028915
0.6006629834254145,-0.00833118819528669
0.6340331491712707,0.011352168770122436
0.6674033149171271,0.019181403088191384
0.7007734806629835,0.015737986612010913
0.7341436464088398,0.006127364447071505
0.7675138121546962,-0.0020695663096758185
0.8008839779005525,-0.0015583558477343948
0.8342541436464089,0.012187538334726659
0.8676243093922653,0.0394795299263793
0.9009944751381216,0.07636919535036002
0.934364640883978,0.11596658322676212
0.9677348066298344,0.1506938202658253
1.0011049723756906,0.17472306129639492
1.0344751381215471,0.18570339948165632
1.0678453038674034,0.18506102715490944
1.1012154696132597,0.17670670919427284
1.1345856353591162,0.16472983936948007
1.1679558011049724,0.15122591771123226
1.201325966850829,0.1354248527813767
1.2346961325966852,0.11465474423350133
1.2680662983425415,0.0866710041935959
1.301436464088398,0.0520526862464533
1.3348066298342542,0.015220954147389299
1.3681767955801105,-0.01669008538361347
1.401546961325967,-0.03671877352267435
1.4349171270718233,-0.04131376483382899
1.4682872928176796,-0.032227571849837114
1.501657458563536,-0.015982839198815667
1.5350276243093923,-0.0010539594229533593
1.5683977900552488,0.005885149915834274
1.601767955801105,0.0027532892458141003
1.6351381215469614,-0.007551807376702696
1.6685082872928179,-0.019377996713801655
1.7018784530386741,-0.027970152848043044
1.7352486187845306,-0.03258021402266845
1.768618784530387,-0.037319162358710585
1.8019889502762432,-0.0491969865647035
1.8353591160220997,-0.07427563830264591
1.868729281767956,-0.11391228097428423
1.9020994475138122,-0.1631568099568611
1.9354696132596687,-0.21238560140625165
1.968839779005525,-0.25160088337420716
2.0022099447513813,-0.2752870013319156
2.0355801104972375,-0.2851510790598325
2.0689502762430942,-0.28896618312177935
2.1023204419889505,-0.2957969686949002
2.135690607734807,-0.31006659593931396
2.169060773480663,-0.32790605928373673
2.2024309392265193,-0.3382453080734128
2.235801104972376,-0.32851390112336587
2.2691712707182323,-0.2920038284698124
2.3025414364640886,-0.23257522016510504
2.335911602209945,-0.16343723951552777
2.369281767955801,-0.09988634603877174
2.402651933701658,-0.04956670869850015
2.436022099447514,-0.005958377822154981
2.4693922651933704,0.050110936688890606
2.5027624309392267,0.14012148468307564
2.536132596685083,0.2732108222202956
2.5695027624309392,0.43556118838309865
2.602872928176796,0.5918298771225139
2.636243093922652,0.7012788760878024
2.6696132596685085,0.7427979561551221
2.7029834254143648,0.7357092724934688
2.736353591160221,0.7418305767054607
2.7697237569060777,0.8412343526737487
2.803093922651934,1.0875767771283111
2.8364640883977903,1.4625202047545087
2.8698342541436466,1.854677309416758
2.903204419889503,2.0813835034966526
2.936574585635359,1.9526401247080323
2.969944751381216,1.3541187584003498
3.003314917127072,0.31217312252014373
3.0366850828729284,-0.9925035655908592
3.0700552486187846,-2.2743364267035293
3.103425414364641,-3.2377034874528507
3.1367955801104976,-3.6773999265910624
3.170165745856354,-3.542373776519232
3.20353591160221,-2.9384013845195702
3.2369060773480665,-2.073981325920861
3.2702762430939227,-1.177834587568643
3.3036464088397794,-0.4246612809800632
3.3370165745856357,0.1036918130504336
3.370386740331492,0.4145162135846617
3.4037569060773483,0.5701538116844427
3.4371270718232045,0.6454643760844229
3.4704972375690613,0.696465630680188
3.5038674033149175,0.7491971607257092
3.537237569060774,0.8059865866891344
3.57060773480663,0.8591296798817012
3.6039779005524863,0.9018491830964502
3.6373480662983426,0.9315199026598435
3.6707182320441993,0.9464798775542791
3.7040883977900556,0.9415210928027001
3.737458563535912,0.906843401046413
3.770828729281768,0.8319482101581995
3.8041988950276244,0.712205093199114
3.837569060773481,0.5539537265823593
3.8709392265193374,0.3748299798469214
3.9043093922651937,0.1987115189846912
3.93767955801105,0.04756267788019242
3.9710497237569062,-0.06601997688994547
4.0044198895027625,-0.14223909194521123
4.037790055248619,-0.19223282875573575
4.071160220994475,-0.23212297171446197
4.104530386740332,-0.2758700761433861
4.1379005524861885,-0.3300271113598957
4.171270718232044,-0.39228107889066743
4.204640883977901,-0.4538085176680854
4.238011049723757,-0.5038739026869896
4.271381215469614,-0.5344210590698595
4.30475138121547,-0.542779970464568
4.338121546961326,-0.5317007883097996
4.371491712707183,-0.507167527935249
4.404861878453039,-0.4753016710282353
4.438232044198895,-0.43983622304780945
4.471602209944752,-0.4011446989124888
4.504972375690608,-0.35695973818671656
4.538342541436465,-0.3041515210304393
4.5717127071823205,-0.24059711641651896
4.605082872928177,-0.16634053101413152
4.638453038674034,-0.08373654998231084
4.67182320441989,0.003223314685558515
4.7051933701657465,0.08993951960761049
4.738563535911602,0.1721585988035203
4.771933701657459,0.24662599945865035
4.805303867403316,0.31139489066187837
4.8386740331491715,0.3658213349714196
4.872044198895028,0.4102865604076253
4.905414364640884,0.44573279493178247
4.938784530386741,0.47319883792996076
4.972154696132597,0.4935943108175162
5.005524861878453,0.5078321235920807
5.03889502762431,0.5171473075267392
5.072265193370166,0.5231560080315331
5.105635359116023,0.5272251466885381
5.1390055248618784,0.5291701145666592
5.172375690607735,0.5259947898066587
5.205745856353592,0.5118461094530674
5.239116022099448,0.4800462710078432
5.272486187845304,0.42684811938223227
5.30585635359116,0.3549820721045833
5.339226519337017,0.27423330851507904
5.372596685082874,0.197219225285486
5.4059668508287295,0.13129425940049
5.439337016574586,0.07076858115852293
5.472707182320442,-0.0048426638773161005
5.506077348066299,-0.12281487162639891
5.5394475138121555,-0.30112684977765974
5.572817679558011,-0.5321910195536647
5.606187845303868,-0.7773512024387706
5.639558011049724,-0.9798390216848502
5.672928176795581,-1.09440970281556
5.706298342541437,-1.1203933214367015
5.739668508287293,-1.1181442255214202
5.77303867403315,-1.192559450360954
5.806408839779006,-1.442257513756641
5.839779005524862,-1.8932125869620522
5.873149171270718,-2.450348399330346
5.906519337016575,-2.8996065579580206
5.939889502762432,-2.9730671075343853
5.9732596685082875,-2.4581445906657504
6.006629834254144,-1.3045309278401627
6.04,0.3241437796773195
6.073370165745857,2.085902696763057
6.1067403314917135,3.574665470093175
6.140110497237569,4.465205089940885
6.173480662983426,4.624586376483169
6.206850828729282,4.142149593173944
6.240220994475139,3.27008482360672
6.273591160220995,2.308410409297985
6.306961325966851,1.4901061477316118
6.340331491712708,0.9150639939448189
6.373701657458564,0.552332829984421
6.40707182320442,0.2961517770679212
6.440441988950277,0.03967227781673525
6.473812154696133,-0.27062171178880295
6.50718232044199,-0.6202233373663031
6.5405524861878455,-0.9492168586937659
6.573922651933702,-1.1927455580969464
6.607292817679559,-1.3156435264336732
6.640662983425415,-1.325506278272824
6.674033149171271,-1.262312043316866
6.707403314917127,-1.174543587451346
6.740773480662984,-1.09628451528046
6.774143646408841,-1.036261792768619
6.8075138121546965,-0.9816152326938196
6.840883977900553,-0.9112894814045303
6.874254143646409,-0.8102490156486194
6.907624309392266,-0.6772452022794364
6.9409944751381225,-0.5237844105002737
6.974364640883978,-0.367013838904256
7.007734806629835,-0.2217511412599484
7.041104972375691,-0.09601541036182044
7.074475138121548,0.0086426807763877
7.107845303867403,0.09377424636904529
7.14121546961326,0.16068259697326315
7.174585635359117,0.20928700485076407
7.207955801104973,0.2393859826939628
7.241325966850829,0.2528373720662786
7.274696132596685,0.2548024431749951
7.308066298342542,0.2530689732775222
7.341436464088399,0.25577153977822525
7.3748066298342545,0.26869707161198
7.408176795580111,0.29340605657279356
7.441546961325967,0.32680702031639836
7.474917127071824,0.36210168481942734
7.5082872928176805,0.39059937094117264
7.541657458563536,0.4038815739630494
7.575027624309393,0.39596977569105435
7.608397790055249,0.36521378893434275
7.641767955801106,0.3154531322658396
7.675138121546962,0.25579259091073864
7.708508287292818,0.19844953225924689
7.741878453038675,0.15482217054203118
7.775248618784531,0.13100017126999466
7.808618784530387,0.12473807957300255
7.841988950276244,0.12572744316723108
7.8753591160221,0.11964083177894512
7.908729281767957,0.09447802333417098
7.9420994475138125,0.046316946834320166
7.975469613259669,-0.018427813501455042
8.008839779005525,-0.08556839340319855
8.042209944751383,-0.13947680303971674
8.075580110497238,-0.17018738996035118
8.108950276243094,-0.17781054964988177
8.14232044198895,-0.17210813689815796
8.175690607734808,-0.1674806678641953
8.209060773480664,-0.17585240438149907
8.24243093922652,-0.2008760103432366
8.275801104972377,-0.23610314527073217
8.309171270718233,-0.2677719039804653
8.342541436464089,-0.2807156616079701
8.375911602209946,-0.2646448697420888
8.409281767955802,-0.21817806243176363
8.442651933701658,-0.1492443380930693
8.476022099447514,-0.07209256357305285
8.509392265193371,-0.0023546828673738397
8.542762430939227,0.04795736296638754
8.576132596685083,0.073904324152703
8.60950276243094,0.07854676539218035
8.642872928176796,0.07113689394804232
8.676243093922652,0.06315678880292226
8.709613259668508,0.0635264538543963
8.742983425414366,0.07477399817235734
8.776353591160222,0.09181781738444927
8.809723756906077,0.10407668996640287
8.843093922651935,0.10016368013457363
8.87646408839779,0.07313882610915652
8.909834254143647,0.02394819309898329
8.943204419889504,-0.038458462021188876
8.97657458563536,-0.10021106260609079
9.009944751381216,-0.1472168922814652
9.043314917127072,-0.16938351891745995
9.07668508287293,-0.1628999217063552
9.110055248618785,-0.1303121596872685
9.143425414364641,-0.07909830151667356
9.176795580110499,-0.01967488641532135
9.210165745856354,0.03664205115182997
9.24353591160221,0.07970602173765333
9.276906077348068,0.10272274033475941
9.310276243093924,0.10423007935144611
9.34364640883978,0.08903749580745295
9.377016574585635,0.06720062830492572
9.410386740331493,0.05076489005393303
9.443756906077349,0.04919041957156549
9.477127071823205,0.06537797099684922
9.510497237569062,0.09431197166363027
9.543867403314918,0.1252567769944706
9.577237569060774,0.14665537380737934
9.610607734806631,0.15138184924777187
9.643977900552487,0.13971334609608616
9.677348066298343,0.11855608027962071
9.710718232044199,0.09744670014634296
9.744088397790057,0.08351705418856117
9.777458563535912,0.07802825333955746
9.810828729281768,0.07608904064360889
9.844198895027626,0.06942834610913913
9.877569060773482,0.05059983671675109
9.910939226519337,0.016499977462322082
9.944309392265193,-0.03031224823322636
9.97767955801105,-0.08277450745646223
10.011049723756907,-0.13209101042939972
10.044419889502763,-0.17071176120593856
10.07779005524862,-0.1943287105607379
10.111160220994476,-0.2023853636329244
10.144530386740332,-0.1973241230936832
10.17790055248619,-0.18320553304409284
10.211270718232045,-0.164328741195595
10.244640883977901,-0.14422287985096674
10.278011049723757,-0.12511503926407336
10.311381215469615,-0.10784876017062796
10.34475138121547,-0.09217797095434456
10.378121546961326,-0.07728179431717092
10.411491712707184,-0.06223930917750958
10.44486187845304,-0.04621237873004673
10.478232044198895,-0.02830837094445372
10.511602209944753,-0.007411432536121305
10.544972375690609,0.017606754181057036
10.578342541436465,0.04714440721699001
10.61171270718232,0.0799482137640058
10.645082872928178,0.1127217972177699
10.678453038674034,0.1408283805906727
10.71182320441989,0.16000531411388952
10.745193370165747,0.1682567243111904
10.778563535911603,0.16677622513215362
10.811933701657459,0.15917698923333545
10.845303867403315,0.14929161804555466
10.878674033149172,0.13875974008903608
10.912044198895028,0.12590597735609965
10.945414364640884,0.10675763811319676
10.978784530386742,0.07778426952716475
11.012154696132598,0.03881835923328314
11.045524861878453,-0.005632208560726033
11.078895027624311,-0.04762436240729049
11.112265193370167,-0.07904429204359836
11.145635359116023,-0.09515118866360184
11.179005524861878,-0.09644917777133721
11.212375690607736,-0.08788601412918715
11.245745856353592,-0.07591922804719892
11.279116022099448,-0.06519673128996246
11.312486187845305,-0.056750261139153234
11.345856353591161,-0.04862825794378528
11.379226519337017,-0.03840937983987718
11.412596685082875,-0.02592830412339559
11.44596685082873,-0.014436116492456842
11.479337016574586,-0.009332933378433021
11.512707182320442,-0.015021195414450097
11.5460773480663,-0.03157728317427565
11.579447513812156,-0.05322169903521671
11.612817679558011,-0.06979810404250732
11.646187845303869,-0.07097026510014733
11.679558011049725,-0.05132839325141948
11.71292817679558,-0.013864909140759682
11.746298342541436,0.03018302383546923
11.779668508287294,0.0654704469282009
11.81303867403315,0.07901387190790916
11.846408839779006,0.0660499733493783
11.879779005524863,0.032461095007537695
11.91314917127072,-0.007525988518774546
11.946519337016575,-0.03745557165087874
11.979889502762433,-0.04584446514195957
12.013259668508288,-0.031184778810454974
12.046629834254144,-0.002436720313070205
12.08,0.025236812668734496
12.113370165745858,0.03754060683948868
12.146740331491714,0.027666148023729013
12.18011049723757,-0.0005719646524919355
12.213480662983427,-0.034464700798609554
12.246850828729283,-0.058115302188184115
12.280220994475139,-0.05943956455402387
12.313591160220996,-0.03527902582407038
12.346961325966852,0.007572078370005714
12.380331491712708,0.05567918039980647
12.413701657458564,0.0948857944369122
12.447071823204421,0.11599109752137322
12.480441988950277,0.11760983021754942
12.513812154696133,0.10515880941162051
12.54718232044199,0.08691890854827525
12.580552486187846,0.0695403981823998
12.613922651933702,0.05540603031612749
12.64729281767956,0.04294511726649992
12.680662983425416,0.029144254235627626
12.714033149171271,0.012281837551350582
12.747403314917127,-0.006953695948969178
12.780773480662985,-0.02648568432917764
12.81414364640884,-0.04496102755917745
12.847513812154697,-0.06313556152402276
12.880883977900554,-0.08326062056772497
12.91425414364641,-0.10666929942124227
12.947624309392266,-0.13116053744787792
12.980994475138122,-0.15016437846269323
13.01436464088398,-0.15475498644379632
13.047734806629835,-0.13787933547028056
13.081104972375691,-0.09868302299824643
13.114475138121549,-0.04443749705268892
13.147845303867404,0.01138714670720277
13.18121546961326,0.05437314479617564
13.214585635359118,0.07530916718749842
13.247955801104974,0.07411526670447202
13.28132596685083,0.059375089080691425
13.314696132596685,0.04353598821877577
13.348066298342543,0.03615058138383105
13.381436464088399,0.0386744311213452
13.414806629834255,0.04366330541718396
13.448176795580112,0.0390432688265646
13.481546961325968,0.015523669146128011
13.514917127071824,-0.026543533403371417
13.548287292817681,-0.07459274110461736
13.581657458563537,-0.1074804091346139
13.615027624309393,-0.1043067023308752
13.648397790055249,-0.05467687669986814
13.681767955801106,0.03447790857733416
13.715138121546962,0.1392105940689601
13.748508287292818,0.22655581346409379
13.781878453038676,0.2671220684221125
13.815248618784532,0.24683319867503292
13.848618784530387,0.17257291431017766
13.881988950276245,0.06922089647413754
13.9153591160221,-0.030490233167100637
13.948729281767957,-0.09868187726495281
13.982099447513813,-0.12209756596769611
14.01546961325967,-0.10514951553629341
14.048839779005526,-0.06575862186947563
14.082209944751382,-0.026648458232720197
14.11558011049724,-0.006279543842570565
14.148950276243095,-0.013028623357365276
14.182320441988951,-0.044149096357945505
14.215690607734807,-0.0887550444426916
14.249060773480664,-0.13269587368644084
14.28243093922652,-0.16315234349858326
14.315801104972376,-0.17169153353506575
14.349171270718234,-0.15557143358928718
14.38254143646409,-0.11766835690667057
14.415911602209945,-0.06541230689293832
14.449281767955803,-0.00889928547221962
14.482651933701659,0.04166919984238627
14.516022099447515,0.07874427949295129
14.54939226519337,0.09948794098685014
14.582762430939228,0.10614863874386811
14.616132596685084,0.10429520990344292
14.64950276243094,0.09945768036491336
14.682872928176797,0.09372479062683564
14.716243093922653,0.08422787856120857
14.749613259668509,0.06478844033449982
14.782983425414367,0.030415469498319483
14.816353591160222,-0.017484126402922844
14.849723756906078,-0.06830264168398603
14.883093922651934,-0.10426612781415553
14.916464088397792,-0.10739626599110369
14.949834254143648,-0.06858650156954525
14.983204419889503,0.005817065808831752
15.016574585635361,0.0939486155169738
15.049944751381217,0.16590665983238637
15.083314917127073,0.1959089038565781
15.116685082872928,0.1735373930856816
15.150055248618786,0.10859159520506603
15.183425414364642,0.027011951763348654
15.216795580110498,-0.04038001886748038
15.250165745856355,-0.07114648477217318
15.283535911602211,-0.060434173415607265
15.316906077348067,-0.022065770102372394
15.350276243093925,0.01864664185782213
15.38364640883978,0.03671976332415846
15.417016574585636,0.0183733177507978
15.450386740331492,-0.03380930179227271
15.48375690607735,-0.10318670928663691
15.517127071823205,-0.16696924166765492
15.550497237569061,-0.20550778528325309
15.583867403314919,-0.20872424908047016
15.617237569060775,-0.17754704736031487
15.65060773480663,-0.12104223486644405
15.683977900552488,-0.05181438482312084
15.717348066298344,0.017734318431792163
15.7507182320442,0.07720333880830678
15.784088397790056,0.11869927760774304
15.817458563535913,0.1373813780989286
15.85082872928177,0.1326702572713842
15.884198895027625,0.10938699920964075
15.917569060773483,0.07731200609736513
15.950939226519338,0.048217133818631915
15.984309392265194,0.031068702638290816
16.01767955801105,0.027698464090266234
16.051049723756908,0.03157072391188105
16.084419889502765,0.030880378976605508
16.11779005524862,0.014800398462558883
16.151160220994477,-0.020271636221748376
16.18453038674033,-0.06785182661517825
16.21790055248619,-0.11354316979262648
16.251270718232046,-0.1412003565925708
16.2846408839779,-0.139986320004753
16.318011049723758,-0.10894694855986066
16.351381215469615,-0.05723293151655456
16.38475138121547,-0.0003284015567556306
16.418121546961327,0.04569813619600817
16.451491712707185,0.06953844861872853
16.48486187845304,0.06793973303373776
16.518232044198896,0.04640025053954676
16.551602209944754,0.0174904820902578
16.584972375690608,-0.0026993908774015913
16.618342541436466,0.0005924797917794353
16.651712707182323,0.03551878933374104
16.685082872928177,0.09934477760718634
16.718453038674035,0.17705595397248683
16.751823204419892,0.24439931641086562
16.785193370165747,0.2754193843257919
16.818563535911604,0.2523143197346182
16.851933701657458,0.1736142340309974
16.885303867403316,0.05658036176927583
16.918674033149173,-0.06812187312290843
16.952044198895027,-0.1678104169749615
16.985414364640885,-0.22036293928353978
17.018784530386743,-0.22219132010852444
17.052154696132597,-0.18790735315476784
17.085524861878454,-0.14206986134808475
17.118895027624312,-0.107320998796835
17.152265193370166,-0.09482461249955858
17.185635359116024,-0.1013865318630018
