Frequency (Hz),Amplitude
0.0,1.816736540230918
0.019867549668874173,1.8158389739161764
0.039735099337748346,1.8131471995530273
0.059602649006622516,1.8086639902700075
0.07947019867549669,1.8023939659067334
0.09933774834437085,1.794343589977564
0.11920529801324503,1.7845211654730155
0.13907284768211922,1.7729368295531365
0.15894039735099338,1.7596025472055659
0.17880794701986755,1.744532103961722
0.1986754966887417,1.7277410977890846
0.2185430463576159,1.709246930305604
0.23841059602649006,1.6890687974963228
0.2582781456953642,1.6672276801532802
0.27814569536423844,1.6437463343098564
0.2980132450331126,1.6186492820026903
0.31788079470198677,1.5919628027715464
0.33774834437086093,1.5637149264046
0.3576158940397351,1.5339354275600412
0.3774834437086093,1.5026558230528362
0.3973509933774834,1.4699093727987103
0.4172185430463576,1.4357310856727175
0.4370860927152318,1.4001577318874399
0.45695364238410596,1.3632278639559072
0.4768211920529801,1.3249818489202971
0.49668874172185434,1.2854619153574656
0.5165562913907285,1.2447122198053935
0.5364238410596026,1.202778938815739
0.5562913907284769,1.1597103950155714
0.5761589403973509,1.1155572286362432
0.5960264900662252,1.0703726303672687
0.6158940397350993,1.0242126577784303
0.6357615894039735,0.9771366669622891
0.6556291390728477,0.9292079051427271
0.6754966887417219,0.8804943314806853
0.695364238410596,0.8310697666921035
0.7152317880794702,0.7810155250385838
0.7350993377483444,0.7304227680913971
0.7549668874172186,0.6793959621673974
0.7748344370860927,0.6280580638886748
0.7947019867549668,0.5765584821194073
0.8145695364238411,0.525085624796824
0.8344370860927152,0.47388723702391095
0.8543046357615894,0.4233043551984849
0.8741721854304636,0.37382961933121667
0.8940397350993378,0.3262095593950255
0.9139072847682119,0.2816239133646297
0.9337748344370861,0.24198122883819553
0.9536423841059603,0.2102956947688171
0.9735099337748344,0.19072860430309216
0.9933774834437087,0.18720487699033292
1.0132450331125828,0.2005852553383083
1.033112582781457,0.22786633320261931
1.0529801324503312,0.26469775432363407
1.0728476821192052,0.30755089142243486
1.0927152317880795,0.35410892704360936
1.1125827814569538,0.4029375516973002
1.1324503311258278,0.4531408056531576
1.1523178807947019,0.5041381767820724
1.1721854304635762,0.5555356778180781
1.1920529801324504,0.6070526243205171
1.2119205298013245,0.6584794249226477
1.2317880794701985,0.7096525978319823
1.2516556291390728,0.7604395417668199
1.271523178807947,0.8107289804753943
1.2913907284768211,0.8604248032067568
1.3112582781456954,0.9094419957419473
1.3311258278145695,0.9577038929339732
1.3509933774834437,1.005140287365831
1.370860927152318,1.051686105255707
1.390728476821192,1.0972804660082909
1.410596026490066,1.1418660061294683
1.4304635761589404,1.185388388420623
1.4503311258278146,1.2277959430298506
1.4701986754966887,1.2690394036420662
1.4900662251655628,1.3090717131642127
1.5099337748344372,1.3478478807281877
1.5298013245033113,1.385324876947672
1.5496688741721854,1.4214615579185097
1.5695364238410596,1.456218610955848
1.5894039735099337,1.4895585168469918
1.609271523178808,1.5214455246887268
1.6291390728476822,1.551845636319171
1.6490066225165563,1.5807265980488725
1.6688741721854303,1.6080578979140023
1.6887417218543048,1.633810767063287
1.7086092715231789,1.6579581841867403
1.728476821192053,1.6804748821203188
1.7483443708609272,1.7013373559356464
1.7682119205298013,1.7205238719602833
1.7880794701986755,1.7380144772807808
1.8079470198675496,1.7537910093657887
1.8278145695364238,1.7678371055138555
1.847682119205298,1.7801382118853513
1.8675496688741722,1.7906815919221406
1.8874172185430464,1.7994563339953114
1.9072847682119205,1.806453358151609
1.9271523178807946,1.811665421854952
1.9470198675496688,1.8150871246413791
1.9668874172185429,1.8167149116251902
1.9867549668874174,1.8165470758111302
2.0066225165562916,1.8145837591832672
2.0264900662251657,1.8108269525561933
2.0463576158940397,1.805280494188371
2.066225165562914,1.7979500671720297
2.086092715231788,1.7888431956287965
2.1059602649006623,1.777969239756123
2.1258278145695364,1.7653393897866871
2.1456953642384105,1.7509666589424373
2.165562913907285,1.734865875487105
2.185430463576159,1.7170536740066262
2.205298013245033,1.6975484860777807
2.2251655629139075,1.676370530521964
2.2450331125827816,1.65354180348585
2.2649006622516556,1.629086068645887
2.2847682119205297,1.6030288479016919
2.3046357615894038,1.575397413009606
2.324503311258278,1.5462207787156614
2.3443708609271523,1.515529698086032
2.364238410596027,1.483356660910449
2.384105960264901,1.4497358962851947
2.403973509933775,1.4147033807837543
2.423841059602649,1.3782968540215979
2.443708609271523,1.340555843951907
2.463576158940397,1.3015217049421914
2.4834437086092715,1.2612376726508359
2.5033112582781456,1.219748941052306
2.52317880794702,1.1771027688075137
2.543046357615894,1.1333486247719868
2.562913907284768,1.088538386131835
2.5827814569536423,1.0427266079956654
2.6026490066225163,0.9959708910933058
2.622516556291391,0.948332385881234
2.642384105960265,0.8998764890038337
2.662251655629139,0.8506738153013549
2.6821192052980134,0.8008015714590927
2.7019867549668874,0.7503455264429154
2.7218543046357615,0.6994028876243351
2.741721854304636,0.6480865836510039
2.76158940397351,0.5965317883796312
2.781456953642384,0.5449061141919231
2.801324503311258,0.49342599068628457
2.821192052980132,0.44238378421603686
2.8410596026490067,0.3921940921590075
2.8609271523178808,0.3434749364799658
2.8807947019867552,0.2971921742619839
2.9006622516556293,0.25491028633079127
2.9205298013245033,0.21917256763807835
2.9403973509933774,0.19381199109138716
2.9602649006622515,0.1833048125230785
2.9801324503311255,0.19017172819123165
3.0,0.21271315059941667
3.0198675496688745,0.24659545329049823
3.0397350993377485,0.2877334973588003
3.0596026490066226,0.33332111582174256
3.0794701986754967,0.38161966070179065
3.0993377483443707,0.4315606174887566
3.119205298013245,0.4824664555309184
3.1390728476821192,0.5338874161640026
3.1589403973509933,0.5855096962966652
3.1788079470198674,0.6371033379899208
3.198675496688742,0.6884918932302948
3.218543046357616,0.7395342232740086
3.23841059602649,0.7901132425305494
3.2582781456953644,0.8401287560343812
3.2781456953642385,0.8894927818247191
3.2980132450331126,0.938126424265928
3.3178807947019866,0.9859577406677912
3.3377483443708607,1.0329202592921856
3.3576158940397347,1.078951933840392
3.3774834437086096,1.123994396207122
3.3973509933774837,1.167992416707317
3.4172185430463577,1.2108935109562415
3.437086092715232,1.2526476519212808
3.456953642384106,1.2932070583787358
3.47682119205298,1.3325260395165057
3.4966887417218544,1.37056088120957
3.5165562913907285,1.407269763490796
3.5364238410596025,1.4426127015365582
3.556291390728477,1.476551504472328
3.576158940397351,1.5090497477284737
3.596026490066225,1.540072755712896
3.615894039735099,1.569587592327776
3.6357615894039736,1.5975630574223953
3.6556291390728477,1.6239696876971899
3.6754966887417218,1.6487797608939314
3.695364238410596,1.6719673023513542
3.7152317880794703,1.6935080931931428
3.7350993377483444,1.7133796795613137
3.754966887417219,1.7315613824218852
3.774834437086093,1.7480343075599445
3.794701986754967,1.7627813554528464
3.814569536423841,1.7757872307677272
3.834437086092715,1.7870384512763555
3.854304635761589,1.796523356018336
3.8741721854304636,1.804232112575391
3.8940397350993377,1.81015672334609
3.9139072847682117,1.8142910307328621
3.9337748344370858,1.8166307211727926
3.9536423841059607,1.8171733279610933
3.9735099337748347,1.815918232831741
3.993377483443709,1.8128666662744488
4.013245033112583,1.8080217065809405
4.033112582781457,1.8013882776274197
4.052980132450331,1.7929731454138826
4.072847682119205,1.7827849133957305
4.0927152317880795,1.7708340166587324
4.112582781456953,1.7571327150060276
4.132450331125828,1.7416950850454311
4.152317880794702,1.7245370113883154
4.172185430463576,1.7056761770981672
4.19205298013245,1.6851320535590166
4.211920529801325,1.6629258899727808
4.231788079470199,1.6390807027422325
4.251655629139073,1.6136212650550634
4.271523178807947,1.5865740970580204
4.291390728476821,1.5579674571027602
4.311258278145695,1.5278313346627874
4.33112582781457,1.4961974456717906
4.3509933774834435,1.4630992312288906
4.370860927152318,1.4285718608707458
4.390728476821192,1.3926522419454053
4.410596026490066,1.3553790370673946
4.43046357615894,1.3167926922292603
4.450331125827815,1.276935478951836
4.470198675496689,1.2358515549592943
4.490066225165563,1.1935870493924865
4.509933774834438,1.1501901807131205
4.529801324503311,1.1057114184847299
4.549668874172186,1.0602037045779609
4.569536423841059,1.0137227557108686
4.589403973509934,0.9663274786666373
4.6092715231788075,0.9180805437510411
4.629139072847682,0.869049183889056
4.649006622516556,0.8193063209703593
4.66887417218543,0.7689321758161507
4.688741721854305,0.7180166078745289
4.708609271523179,0.6666625815439942
4.728476821192054,0.6149914163636293
4.748344370860927,0.5631509408190963
4.768211920529802,0.5113285157864703
4.788079470198675,0.45977248713824337
4.80794701986755,0.4088287003806976
4.827814569536423,0.3590046973307815
4.847682119205298,0.31108554871821065
4.867549668874172,0.266343701136456
4.887417218543046,0.22689660726665037
4.9072847682119205,0.19616700769287312
4.927152317880794,0.1788558324026389
4.947019867549669,0.17897478021180688
4.966887417218543,0.19649231628493968
4.986754966887418,0.2273655965725026
5.006622516556291,0.26690361992310063
5.026490066225166,0.3117027848032914
5.04635761589404,0.359659536473206
5.066225165562914,0.4095096376640326
5.086092715231788,0.4604726598740093
5.105960264900662,0.5120437122454681
5.125827814569536,0.5638785029321135
5.14569536423841,0.6157296219706263
5.1655629139072845,0.6674102849658312
5.185430463576159,0.7187730231196138
5.205298013245033,0.7696967410482793
5.225165562913908,0.8200786107979444
5.245033112582782,0.8698288506948363
5.264900662251656,0.9188672771873491
5.28476821192053,0.9671209768337213
5.304635761589404,1.0145227040474953
5.324503311258278,1.061009759970438
5.344370860927152,1.1065231969917635
5.364238410596027,1.151007247854681
5.3841059602649,1.1944089122990447
5.403973509933775,1.2366776559021748
5.4238410596026485,1.277765189923114
5.443708609271523,1.3176253103380082
5.463576158940397,1.3562137805861019
5.483443708609272,1.393488246886401
5.503311258278146,1.4294081780044967
5.52317880794702,1.4639348234785572
5.543046357615895,1.4970311858344263
5.562913907284768,1.5286620034189775
5.582781456953643,1.5587937412846093
5.602649006622516,1.587394588151088
5.622516556291391,1.6144344579141077
5.642384105960264,1.6398849945031837
5.662251655629139,1.66371957914537
5.682119205298013,1.6859133392854115
5.701986754966887,1.7064431585636073
5.7218543046357615,1.725287687369545
5.741721854304636,1.7424273535825683
5.7615894039735105,1.7578443731824214
5.781456953642384,1.7715227604725226
5.801324503311259,1.7834483377052606
5.821192052980132,1.793608743937357
5.841059602649007,1.8019934429751234
5.860927152317881,1.8085937302958517
5.880794701986755,1.8134027388542382
5.900662251655629,1.8164154437017517
5.920529801324503,1.817628665364135
5.940397350993377,1.8170410719370842
5.960264900662251,1.8146531798742838
5.980132450331126,1.8104673534549758
6.0,1.8044878029310638
6.0198675496688745,1.7967205813665799
6.039735099337749,1.7871735801953128
6.059602649006623,1.775856523536684
6.079470198675497,1.7627809613250631
6.099337748344371,1.747960261325029
6.119205298013245,1.7314096001244945
6.139072847682119,1.7131459532207791
6.158940397350993,1.6931880843416462
6.178807947019867,1.6715565341760543
6.198675496688741,1.6482736087291558
6.218543046357616,1.623363367564925
6.23841059602649,1.5968516122609258
6.258278145695365,1.5687658754759222
6.2781456953642385,1.5391354111282136
6.298013245033113,1.507991186306324
6.317880794701987,1.475365875693338
6.337748344370861,1.4412938594941145
6.357615894039735,1.405811226126826
6.377483443708609,1.3689557813015738
6.397350993377484,1.3307670655908166
6.417218543046357,1.2912863832482455
6.437086092715232,1.2505568459211462
6.456953642384105,1.2086234361277592
6.47682119205298,1.1655330970831561
6.496688741721854,1.121334857877537
6.516556291390729,1.0760800064798657
6.5364238410596025,1.0298223280838545
6.556291390728477,0.9826184337640134
6.5761589403973515,0.9345282156027558
6.596026490066225,0.8856154815768532
6.6158940397351,0.8359488502260725
6.635761589403973,0.7856030277710536
6.655629139072848,0.7346606599918488
6.675496688741721,0.6832150678747135
6.695364238410596,0.6313743770945424
6.715231788079469,0.5792679083908977
6.735099337748344,0.5270563503909645
6.754966887417219,0.474948476892944
6.774834437086093,0.42322959890815054
6.794701986754967,0.372311822497331
6.814569536423841,0.3228260692669017
6.8344370860927155,0.275794896511162
6.854304635761589,0.2329536060077311
6.874172185430464,0.19727581720117207
6.894039735099337,0.17342304104374248
6.913907284768212,0.16666253024653863
6.933774834437086,0.1789685221658678
6.95364238410596,0.20692700223073737
6.973509933774834,0.24515433807070994
6.993377483443709,0.289493437325493
7.013245033112583,0.33740422670330605
7.033112582781457,0.3874096545543108
7.052980132450331,0.4386292255900947
7.072847682119205,0.490510632645913
7.0927152317880795,0.5426867386706188
7.112582781456954,0.5948990069181711
7.132450331125828,0.6469552527780167
7.152317880794702,0.6987054574787255
7.172185430463576,0.7500274035847418
7.19205298013245,0.8008178474549583
7.211920529801324,0.8509869249705271
7.231788079470198,0.9004545083770007
7.251655629139073,0.9491477764587317
7.271523178807947,0.9969995600931881
7.291390728476822,1.0439471956585722
7.311258278145695,1.0899317185332853
7.33112582781457,1.1348972889365043
7.3509933774834435,1.1787907793714938
7.370860927152318,1.2215614762922153
7.390728476821192,1.263160863670046
7.410596026490066,1.3035424660327555
7.430463576158941,1.3426617351692671
7.450331125827814,1.380475969197227
7.470198675496689,1.4169442558022904
7.490066225165562,1.4520274336373495
7.509933774834438,1.4856880674181532
7.52980132450331,1.517890433364294
7.549668874172186,1.5486005124434759
7.569536423841059,1.5777859894722164
7.589403973509934,1.6054162565678034
7.6092715231788075,1.6314624197778524
7.629139072847682,1.6558973079649497
7.649006622516557,1.6786954832154402
7.66887417218543,1.6998332521893897
7.6887417218543055,1.7192886779434813
7.708609271523178,1.7370415918487505
7.728476821192054,1.7530736052963163
7.748344370860927,1.7673681209408802
7.768211920529802,1.7799103432776309
7.788079470198675,1.7906872883852918
7.80794701986755,1.799687792698559
7.827814569536423,1.8069025206984863
7.847682119205298,1.8123239714308568
7.8675496688741715,1.8159464837807062
7.887417218543046,1.8177662404471875
7.907284768211921,1.8177812705769785
7.927152317880795,1.8159914510272728
7.9470198675496695,1.8123985062414643
7.966887417218543,1.8070060067318798
7.986754966887418,1.7998193661753936
8.006622516556291,1.790845837139212
8.026490066225167,1.7800945054660886
8.046357615894038,1.7675762833613136
8.066225165562914,1.7533039012380727
8.086092715231787,1.7372918983941872
8.105960264900663,1.7195566126116302
8.125827814569536,1.7001161687928623
8.14569536423841,1.678990466773673
8.165562913907285,1.6562011684846623
8.185430463576159,1.6317716846721575
8.205298013245034,1.60572716143798
8.225165562913906,1.5780944669177261
8.245033112582782,1.5489021784938986
8.264900662251655,1.5181805710372882
8.28476821192053,1.4859616067955093
8.304635761589404,1.452278927709779
8.324503311258278,1.417167851153788
8.344370860927151,1.3806653703694272
8.364238410596027,1.3428101612489234
8.3841059602649,1.3036425976176713
8.403973509933774,1.2632047778599116
8.42384105960265,1.2215405666753891
8.443708609271523,1.1786956570742106
8.463576158940398,1.1347176595770199
8.483443708609272,1.0896562282478606
8.503311258278146,1.0435632370468184
8.52317880794702,0.9964930256777624
8.543046357615895,0.9485027426340074
8.562913907284768,0.8996528261653248
8.582781456953642,0.8500076841739899
8.602649006622515,0.7996366663482816
8.62251655629139,0.7486154745242295
8.642384105960264,0.6970282454823896
8.66225165562914,0.6449706924294031
8.682119205298013,0.5925549618967617
8.701986754966887,0.5399173609180083
8.721854304635762,0.4872310616732794
8.741721854304636,0.4347277847100188
8.76158940397351,0.38273637893614854
8.781456953642383,0.33175458848518286
8.801324503311259,0.2825883595281435
8.821192052980132,0.23662941402077473
8.841059602649008,0.19638925514127023
8.86092715231788,0.1662886856424599
8.880794701986755,0.1526006407714724
8.90066225165563,0.15966060484860595
8.920529801324504,0.1850863770194209
8.940397350993377,0.2225947893879779
8.960264900662251,0.26702978494108803
8.980132450331126,0.3153402153931693
9.0,0.36584097559791895
9.019867549668875,0.41757377454511646
9.039735099337747,0.4699596419617727
9.059602649006623,0.5226243812088659
9.079470198675496,0.5753096884698907
9.099337748344372,0.6278260666128896
9.119205298013245,0.6800267410494684
9.139072847682119,0.7317925777970166
9.158940397350994,0.7830230179812572
9.178807947019868,0.8336304383941915
9.198675496688743,0.8835365365135305
9.218543046357615,0.932669952283969
9.23841059602649,0.980964668322538
9.258278145695364,1.0283589133141253
9.27814569536424,1.074794398532653
9.298013245033111,1.1202157796554497
9.317880794701987,1.1645702738752186
9.33774834437086,1.207807385893967
9.357615894039736,1.2498787114140109
9.37748344370861,1.2907377965219764
9.397350993377483,1.3303400378478318
9.417218543046358,1.3686426127582394
9.437086092715232,1.405604431845052
9.456953642384107,1.441186108059079
9.47682119205298,1.475349938313719
9.496688741721854,1.508059894437194
9.516556291390728,1.5392816211148086
9.536423841059603,1.5689824390207432
9.556291390728477,1.5971313517517234
9.57615894039735,1.623699055483462
9.596026490066224,1.648657950503208
9.6158940397351,1.6719821539491004
9.635761589403973,1.6936475132230873
9.655629139072847,1.7136316196495602
9.675496688741722,1.7319138220344719
9.695364238410596,1.7484752398445649
9.715231788079471,1.7632987757782022
9.735099337748345,1.7763691275407436
9.754966887417218,1.7876727986711636
9.774834437086092,1.7971981082941095
9.794701986754967,1.8049351996945178
9.814569536423841,1.8108760476311305
9.834437086092716,1.815014464321428
9.854304635761588,1.817346104044904
9.874172185430464,1.8178684663238092
9.894039735099337,1.8165808976519504
9.913907284768213,1.813484591752359
9.933774834437086,1.8085825883545057
9.95364238410596,1.8018797704913792
9.973509933774835,1.7933828603261759
9.993377483443709,1.7831004135283648
10.013245033112582,1.771042812229347
10.033112582781456,1.757222256599347
10.052980132450331,1.741652755099909
10.072847682119205,1.7243501134810733
10.09271523178808,1.705331922609084
10.112582781456952,1.684617545230654
10.132450331125828,1.662228101803813
10.152317880794701,1.6381864555547883
10.172185430463577,1.6125171969563767
10.192052980132452,1.5852466278682742
10.211920529801324,1.5564027456364373
10.2317880794702,1.5260152275204468
10.251655629139073,1.4941154159098569
10.271523178807948,1.4607363049100952
10.29139072847682,1.42591252903407
10.311258278145695,1.3896803549412569
10.331125827814569,1.352077677439992
10.350993377483444,1.313144021336524
10.370860927152318,1.2729205512155246
10.390728476821192,1.2314500919250737
10.410596026490065,1.1887771634969344
10.43046357615894,1.1449480355831883
10.450331125827816,1.100010808418516
10.470198675496688,1.0540155301125975
10.490066225165563,1.0070143641932388
10.509933774834437,0.9590618274869657
10.529801324503312,0.9102151278344599
10.549668874172186,0.860534645795969
10.56953642384106,0.8100846278482936
10.589403973509933,0.7589341966839597
10.609271523178808,0.7071588481410586
10.629139072847682,0.6548427147689081
10.649006622516556,0.6020820734710959
10.66887417218543,0.5489909408845794
