Time (s),Filtered Signal
0.0,-0.005286858583584563
0.0334075723830735,0.04433793369559408
0.066815144766147,0.08411685544684415
0.1002227171492205,0.10591981148719537
0.133630289532294,0.10612817321634584
0.1670378619153675,0.08738262794786603
0.200445434298441,0.05836027602659257
0.23385300668151449,0.030759298989543257
0.267260579064588,0.014393419922364961
0.3006681514476615,0.012888305217100942
0.334075723830735,0.02251647468977007
0.3674832962138085,0.03493693744598225
0.400890868596882,0.04219247506634233
0.4342984409799555,0.040970168912693
0.46770601336302897,0.033779292772472956
0.5011135857461025,0.026820451565489224
0.534521158129176,0.026367136256063413
0.5679287305122495,0.036055555024699745
0.601336302895323,0.05633373556380924
0.6347438752783965,0.08548795499750148
0.66815144766147,0.12062204125767441
0.7015590200445435,0.1574871179100852
0.734966592427617,0.18962270093001216
0.7683741648106905,0.20847389032346064
0.801781737193764,0.20582850174607423
0.8351893095768375,0.178102110691032
0.868596881959911,0.12998401134758203
0.9020044543429845,0.07440633200190028
0.9354120267260579,0.02749773048465191
0.9688195991091315,0.0003355269157506346
1.002227171492205,-0.00808398702445538
1.0356347438752784,-0.012096794255181025
1.069042316258352,-0.03308649935227285
1.1024498886414256,-0.08820904222322577
1.135857461024499,-0.17991177443114906
1.1692650334075725,-0.29212896665020155
1.202672605790646,-0.39574167025779594
1.2360801781737194,-0.46098920622827955
1.269487750556793,-0.470764874662378
1.3028953229398665,-0.42820417999997085
1.33630289532294,-0.35491238237494505
1.3697104677060135,-0.2809072966226301
1.403118040089087,-0.23132363846807713
1.4365256124721606,-0.21614744751072965
1.469933184855234,-0.22731103267000685
1.5033407572383075,-0.2436312071450277
1.536748329621381,-0.24042467397283562
1.5701559020044544,-0.19896956368998464
1.603563474387528,-0.11187633784073285
1.6369710467706016,0.01690424828273013
1.670378619153675,0.17585818866019362
1.7037861915367485,0.35034351975572897
1.737193763919822,0.5249753178873594
1.7706013363028954,0.6832324173879518
1.804008908685969,0.8058842764862891
1.8374164810690425,0.8710934905626211
1.8708240534521159,0.8583549332659134
1.9042316258351895,0.755987321410118
1.937639198218263,0.5690266021214248
1.9710467706013366,0.3229115124098089
2.00445434298441,0.05953773667260891
2.0378619153674835,-0.17418836248006453
2.071269487750557,-0.3410918643119757
2.1046770601336307,-0.4253702396055899
2.138084632516704,-0.4358567282251958
2.1714922048997773,-0.39956281797026216
2.204899777282851,-0.34876275536500834
2.2383073496659245,-0.30771043823711647
2.271714922048998,-0.2847819552631465
2.3051224944320716,-0.27280612994197323
2.338530066815145,-0.2563087319827323
2.3719376391982183,-0.22138664661017327
2.405345211581292,-0.1632541665671082
2.4387527839643655,-0.08821393384653092
2.472160356347439,-0.009826900759403156
2.5055679287305126,0.058160571448310654
2.538975501113586,0.10828072690102097
2.5723830734966593,0.14198137894947913
2.605790645879733,0.16732119762308598
2.6391982182628064,0.19312269010862865
2.67260579064588,0.22272618862132088
2.7060133630289536,0.25065958688874246
2.739420935412027,0.2640711883602142
2.7728285077951007,0.24838880013271447
2.806236080178174,0.19454528678040398
2.8396436525612474,0.10429675311717428
2.873051224944321,-0.008963736049702497
2.9064587973273945,-0.1243949270266463
2.939866369710468,-0.22112494380516826
2.9732739420935417,-0.2857445902837736
3.006681514476615,-0.31678476230398206
3.0400890868596884,-0.3244224016935852
3.073496659242762,-0.3255928921809122
3.1069042316258355,-0.3364352010055369
3.140311804008909,-0.364991750968275
3.1737193763919826,-0.4070668902624526
3.207126948775056,-0.44710563032413286
3.2405345211581293,-0.46410031877940355
3.273942093541203,-0.44036948888462385
3.3073496659242765,-0.36940812017802516
3.34075723830735,-0.25882707898709056
3.3741648106904236,-0.12623467506630773
3.407572383073497,0.01063576239293307
3.4409799554565703,0.14470023290459885
3.474387527839644,0.28478010649007746
3.5077951002227175,0.4508053549682075
3.541202672605791,0.6594976280086814
3.5746102449888646,0.9069823127028842
3.608017817371938,1.1581288036863446
3.6414253897550113,1.3506366584341685
3.674832962138085,1.4150594748279686
3.7082405345211584,1.3032646947412068
3.7416481069042318,1.0120746227285757
3.7750556792873056,0.589754847204078
3.808463251670379,0.12084415324801846
3.8418708240534527,-0.3042871065376329
3.875278396436526,-0.620813319960875
3.9086859688195994,-0.8070841225249423
3.942093541202673,-0.8814322988775074
3.9755011135857465,-0.8822766289510806
4.00890868596882,-0.8439938812855093
4.042316258351893,-0.7819650354911607
4.075723830734967,-0.693602722716181
4.109131403118041,-0.5722477855474966
4.142538975501114,-0.4234358833599207
4.1759465478841875,-0.2722518882387543
4.209354120267261,-0.15639649625417085
4.242761692650334,-0.10845685379349465
4.276169265033408,-0.1374747714458841
4.309576837416482,-0.22056462172764266
4.342984409799555,-0.3099135018585357
4.3763919821826285,-0.35225950141671586
4.409799554565702,-0.3114879620369474
4.443207126948775,-0.18361450044391273
4.476614699331849,0.002509917448635027
4.510022271714923,0.1984030278788544
4.543429844097996,0.35638098584971567
4.5768374164810695,0.4478333422906655
4.610244988864143,0.47171707152710857
4.643652561247216,0.4505658651311032
4.67706013363029,0.4169220270429401
4.710467706013364,0.39695600351039656
4.743875278396437,0.3987058998929223
4.77728285077951,0.4098363546938755
4.810690423162584,0.40535493143394924
4.844097995545657,0.36130458924251246
4.877505567928731,0.2679366877945927
4.910913140311805,0.13627443891093768
4.944320712694878,-0.0049410887927660635
4.977728285077951,-0.12056494980788846
5.011135857461025,-0.18356015912822862
5.044543429844098,-0.18624179510567399
5.077951002227172,-0.1432917868707701
5.111358574610246,-0.08529336659018268
5.144766146993319,-0.04575750284761359
5.178173719376392,-0.04742776257240584
5.211581291759466,-0.09378302670599838
5.244988864142539,-0.16908855254479283
5.278396436525613,-0.2463394222753597
5.311804008908687,-0.2989505050945825
5.34521158129176,-0.31073765785012264
5.378619153674833,-0.28011676994613965
5.412026726057907,-0.21763032711504338
5.445434298440981,-0.13913315382430863
5.478841870824054,-0.05859325014591678
5.512249443207128,0.016136569333563198
5.545657015590201,0.08339509845456655
5.579064587973274,0.14476815108089525
5.612472160356348,0.2014143988274581
5.645879732739422,0.2515944484561935
5.679287305122495,0.2901054389370525
5.712694877505569,0.309259625165182
5.746102449888642,0.30075390688466996
5.779510022271715,0.25806366213130877
5.812917594654789,0.1791969941395651
5.846325167037863,0.06931870662074356
5.879732739420936,-0.05789554812592706
5.91314031180401,-0.18157753172339675
5.946547884187083,-0.2783360377171147
5.979955456570156,-0.3293314113531834
6.01336302895323,-0.32713521141697943
6.046770601336304,-0.27914809087154835
6.080178173719377,-0.20543108453054384
6.1135857461024505,-0.13123812947980362
6.146993318485524,-0.07714276132971824
6.180400890868597,-0.051048988139627875
6.213808463251671,-0.04575214954590658
6.247216035634745,-0.04328630211789932
6.280623608017818,-0.024206280376979836
6.3140311804008915,0.022314891506950287
6.347438752783965,0.09208159830371211
6.380846325167038,0.16605645079734613
6.414253897550112,0.21720310684010563
6.447661469933186,0.2213218313090148
6.481069042316259,0.16762572292343655
6.5144766146993325,0.0648749415442391
6.547884187082406,-0.059547665677830756
6.581291759465479,-0.16774466400202695
6.614699331848553,-0.22406140349621367
6.648106904231627,-0.2079684836227672
6.6815144766147,-0.12203778254648437
6.7149220489977735,0.008541391801353151
6.748329621380847,0.14521691257272687
6.78173719376392,0.25057282325395097
6.815144766146994,0.30192010371770933
6.848552338530068,0.2979668759864203
6.881959910913141,0.2557466631529064
6.915367483296214,0.1997946454607572
6.948775055679288,0.14945485566575148
6.982182628062361,0.11096121140993336
7.015590200445435,0.07805576030968855
7.048997772828509,0.039989903892545524
7.082405345211582,-0.008392162586788342
7.115812917594655,-0.06080253285387026
7.149220489977729,-0.10155589044617304
7.182628062360802,-0.11444269418947024
7.216035634743876,-0.09328014289408633
7.24944320712695,-0.04788916459774891
7.282850779510023,-0.0017156744678742124
7.316258351893096,0.01807136014790249
7.34966592427617,-0.006977078909658334
7.383073496659243,-0.0779754067305994
7.416481069042317,-0.17820453409424128
7.449888641425391,-0.2806928318555032
7.4832962138084635,-0.35968811012238655
7.516703786191537,-0.40007086449157625
7.550111358574611,-0.40022921664942246
7.583518930957685,-0.3677047486951154
7.616926503340758,-0.3109361727934557
7.650334075723832,-0.23252448310699886
7.683741648106905,-0.12847994048408154
7.717149220489978,0.00566730211124592
7.750556792873052,0.16533302302831102
7.783964365256126,0.33001282059425946
7.817371937639199,0.4644846852783882
7.850779510022273,0.5295331497551812
7.884187082405346,0.498379687472227
7.917594654788419,0.37122638112469647
7.951002227171493,0.18020998121103696
7.984409799554567,-0.019027218257383086
8.01781737193764,-0.16674236659347658
8.051224944320714,-0.2215847419849036
8.084632516703786,-0.17634352920761645
8.118040089086861,-0.05985354942130942
8.151447661469934,0.07584310863511645
8.184855233853007,0.17733797756987157
8.218262806236082,0.21107942927749931
8.251670378619155,0.17498612067243774
8.285077951002227,0.09607855072096894
8.318485523385302,0.01604339409256393
8.351893095768375,-0.028278961825825233
8.385300668151448,-0.02074093726001764
8.418708240534523,0.028559534508730448
8.452115812917596,0.08977936188443095
8.485523385300668,0.12824576773580026
8.518930957683743,0.12060713141565922
8.552338530066816,0.06487129090149571
8.585746102449889,-0.01983998510048192
8.619153674832964,-0.1030462338384025
8.652561247216036,-0.157070911299672
8.68596881959911,-0.16883302931038086
8.719376391982184,-0.14413363499800902
8.752783964365257,-0.10324913839518807
8.78619153674833,-0.07077356671235348
8.819599109131405,-0.06492092093664945
8.853006681514477,-0.09100713022332768
8.88641425389755,-0.1411833771709548
8.919821826280625,-0.199307523520783
8.953229398663698,-0.24777981395761942
8.98663697104677,-0.2730669928089817
9.020044543429846,-0.268171627396571
9.053452115812918,-0.23231283112734433
9.086859688195991,-0.16933421247464447
9.120267260579066,-0.08627567428586458
9.153674832962139,0.007477104418238311
9.187082405345212,0.10103828998307621
9.220489977728286,0.18357220268486996
9.25389755011136,0.24650233520175494
9.287305122494432,0.2854032929694522
9.320712694877507,0.30036629424831146
9.35412026726058,0.2944024622249433
9.387527839643653,0.2707278271081954
9.420935412026727,0.23063021666553793
9.4543429844098,0.17339019704528275
9.487750556792873,0.09850242291152803
9.521158129175948,0.008985503043291392
9.55456570155902,-0.08620874012584291
9.587973273942094,-0.17231015774736802
9.621380846325168,-0.2317390187875648
9.654788418708241,-0.24898921135759602
9.688195991091314,-0.21557868616156672
9.721603563474389,-0.13335267814880328
9.755011135857462,-0.015142550243292757
9.788418708240535,0.117373556586331
9.82182628062361,0.23813374706451781
9.855233853006682,0.32259218521185884
9.888641425389755,0.3537961018336198
9.92204899777283,0.32702382923053047
9.955456570155903,0.2513160348773125
9.988864142538976,0.14688060255603821
10.02227171492205,0.03877240790929072
10.055679287305123,-0.05107910539149712
10.089086859688196,-0.11042896510517354
10.12249443207127,-0.13922673737146113
10.155902004454344,-0.1472600998170181
10.189309576837417,-0.1483989004449602
10.222717149220491,-0.15437813837338457
10.256124721603564,-0.17090483665444703
10.289532293986637,-0.1972797846500807
10.322939866369712,-0.2287263742021547
10.356347438752785,-0.259405565592071
10.389755011135858,-0.28426353265445875
10.423162583518932,-0.2990988996519493
10.456570155902005,-0.29962926031612325
10.489977728285078,-0.280985262049776
10.523385300668153,-0.23863160647731418
10.556792873051226,-0.1705704613757597
10.590200445434299,-0.07960122115477344
10.623608017817373,0.02589638170172711
10.657015590200446,0.1334896676815353
10.69042316258352,0.23005868435549476
10.723830734966594,0.30542848906530096
10.757238307349667,0.3545241691844877
10.790645879732741,0.3771872188765468
10.824053452115814,0.3761492124657182
10.857461024498887,0.35461077238055944
10.890868596881962,0.31486949973349415
10.924276169265035,0.25860464203555716
10.957683741648108,0.18837671221644098
10.991091314031182,0.10925212975016697
11.024498886414255,0.029452848118558594
11.057906458797328,-0.040593678980763756
11.091314031180403,-0.09076065246692133
11.124721603563476,-0.1145908750987115
11.158129175946549,-0.11232246451686508
11.191536748329623,-0.09214577305046791
11.224944320712696,-0.06857781394897279
11.25835189309577,-0.0578288703132286
11.291759465478844,-0.07147916350170573
11.325167037861917,-0.11101172295650631
11.35857461024499,-0.16594096724584992
11.391982182628064,-0.21701488879047165
11.425389755011137,-0.24364908686900127
11.45879732739421,-0.2325133863472317
11.492204899777285,-0.1833143354338188
11.525612472160358,-0.10892802897494108
11.55902004454343,-0.02967283366162326
11.592427616926505,0.03566324163519394
11.625835189309578,0.0778552360806237
11.659242761692651,0.10059247022908413
11.692650334075726,0.11759150914441951
11.726057906458799,0.14476823158989985
11.759465478841872,0.19100363674637783
11.792873051224946,0.2517275028471793
11.82628062360802,0.3084323489815973
11.859688195991092,0.334771866151389
11.893095768374167,0.3070638971822343
11.92650334075724,0.2149619799244645
11.959910913140313,0.06770417396393316
11.993318485523387,-0.10702016025709361
12.02672605790646,-0.2715036084787009
12.060133630289533,-0.3905221123403703
12.093541202672608,-0.4428798539188122
12.12694877505568,-0.4274201673274253
12.160356347438753,-0.3614055082564088
12.193763919821828,-0.2724628380859091
12.227171492204901,-0.18781406729757566
12.260579064587974,-0.12516601965274354
12.293986636971049,-0.0883500774624884
12.327394209354122,-0.06847020774977412
12.360801781737194,-0.04918961691339344
12.39420935412027,-0.013728489721399716
12.427616926503342,0.04875196956795902
12.461024498886415,0.13895893004454174
12.49443207126949,0.24626365744818338
12.527839643652563,0.3506971238342474
12.561247216035635,0.4278500450731945
12.59465478841871,0.4557238151291958
12.628062360801783,0.42180347651080025
12.661469933184856,0.32809830632825665
12.69487750556793,0.1920996087134828
12.728285077951004,0.042761421735287845
12.761692650334076,-0.08758002802345513
12.795100222717151,-0.17273652991256908
12.828507795100224,-0.20030381512921042
12.861915367483297,-0.17471245648243905
12.895322939866372,-0.11476258358492133
12.928730512249444,-0.046761101812555286
12.962138084632517,0.004157863490612966
12.995545657015592,0.021573304664520048
13.028953229398665,0.001905306283841539
13.062360801781738,-0.045814091349637744
13.095768374164813,-0.10403178341145435
13.129175946547885,-0.15301962853454093
13.162583518930958,-0.1773396024944724
13.195991091314033,-0.17041700225135914
13.229398663697106,-0.13591731774442445
13.262806236080179,-0.08570189674446925
13.296213808463254,-0.03525460474736131
13.329621380846326,0.0017495812313746096
13.3630289532294,0.017881882554206325
13.396436525612474,0.013992867109721611
13.429844097995547,-0.0016954572301074312
13.46325167037862,-0.016973143296931115
13.496659242761694,-0.020216551357330463
13.530066815144767,-0.004496408920105203
13.56347438752784,0.030209895752182546
13.596881959910915,0.07735496923533476
13.630289532293988,0.12633256388421243
13.66369710467706,0.16596369825503077
13.697104677060135,0.18752388496766234
13.730512249443208,0.18632962005783524
13.763919821826281,0.16176539581907157
13.797327394209356,0.11640299420691504
13.830734966592429,0.05510805469738826
13.864142538975502,-0.015347697720896055
13.897550111358576,-0.0863361087448382
13.93095768374165,-0.1477416471015557
13.964365256124722,-0.18924579684596313
13.997772828507797,-0.20254567504798338
14.03118040089087,-0.1838293634169424
14.064587973273943,-0.13548816159184196
14.097995545657017,-0.06627638217947884
14.13140311804009,0.01024246638010368
14.164810690423163,0.07850648987136875
14.198218262806238,0.12427372609863006
14.23162583518931,0.13773589163064198
14.265033407572384,0.11585714453733019
14.298440979955458,0.06343240984740783
14.331848552338531,-0.007591281044286413
14.365256124721604,-0.08072537519502875
14.398663697104679,-0.13907799106939076
14.432071269487752,-0.1698712030710266
14.465478841870825,-0.16775424430529992
14.4988864142539,-0.13560830974043905
14.532293986636972,-0.08254683472142411
14.565701559020045,-0.02008630369849945
14.59910913140312,0.04170574313855754
14.632516703786193,0.0963911719268549
14.665924276169266,0.1410022296260552
14.69933184855234,0.17423466052413342
14.732739420935413,0.19457024179420215
14.766146993318486,0.19977064514378728
14.79955456570156,0.1881040006383122
14.832962138084634,0.16033509261472395
14.866369710467707,0.12083084817847267
14.899777282850781,0.076615772314754
14.933184855233854,0.0345921910703375
14.966592427616927,-0.0015009483409496563
15.0,-0.03245050088050993
