Time (s),Filtered Signal
0.0,-0.033692248334874504
0.033370165745856356,-0.15253532838117945
0.06674033149171271,-0.23502261817162276
0.10011049723756907,-0.2546116307229155
0.13348066298342542,-0.20075857584625506
0.16685082872928178,-0.08229255321633479
0.20022099447513814,0.0745025188895071
0.2335911602209945,0.2333733009655827
0.26696132596685085,0.3592733784290392
0.30033149171270723,0.4293819133304671
0.33370165745856356,0.4396197216841638
0.3670718232044199,0.403943320804152
0.4004419889502763,0.34685528094193563
0.43381215469613266,0.2926691473316389
0.467182320441989,0.2564406136415764
0.5005524861878453,0.24037375559067753
0.5339226519337017,0.23654390946867598
0.5672928176795581,0.23356948002752143
0.6006629834254145,0.22313411181534965
0.6340331491712707,0.2028764762144912
0.6674033149171271,0.17467512892598266
0.7007734806629835,0.14025475459894438
0.7341436464088398,0.09762562839349727
0.7675138121546962,0.04121844111692891
0.8008839779005525,-0.03390726555597132
0.8342541436464089,-0.1262178087682213
0.8676243093922653,-0.22407859466871877
0.9009944751381216,-0.3072979955257732
0.934364640883978,-0.35400772069841435
0.9677348066298344,-0.34994003703467735
1.0011049723756906,-0.2955281561238279
1.0344751381215471,-0.20708089249300615
1.0678453038674034,-0.1111786368682264
1.1012154696132597,-0.03484970842103338
1.1345856353591162,0.003836801279176432
1.1679558011049724,0.0004890067440306735
1.201325966850829,-0.037294027262837225
1.2346961325966852,-0.09639709176524021
1.2680662983425415,-0.16550832583336578
1.301436464088398,-0.23919172971676378
1.3348066298342542,-0.3166653680846427
1.3681767955801105,-0.39636788434498826
1.401546961325967,-0.46996070871104234
1.4349171270718233,-0.5200270839825909
1.4682872928176796,-0.5239592609748196
1.501657458563536,-0.4631575269164153
1.5350276243093923,-0.3333981195598685
1.5683977900552488,-0.15087730701043034
1.601767955801105,0.050032649976021415
1.6351381215469614,0.22741773371406065
1.6685082872928179,0.3466768706978779
1.7018784530386741,0.39306287041045884
1.7352486187845306,0.3762795585436231
1.768618784530387,0.3252318804099527
1.8019889502762432,0.275572928055866
1.8353591160220997,0.255708471799081
1.868729281767956,0.27705722339886274
1.9020994475138122,0.33190891081071194
1.9354696132596687,0.3986983366908318
1.968839779005525,0.45166688695589025
2.0022099447513813,0.4707547738073642
2.0355801104972375,0.4481909230164102
2.0689502762430942,0.3899595690137835
2.1023204419889505,0.3122951724522694
2.135690607734807,0.2349577400510673
2.169060773480663,0.173913318108525
2.2024309392265193,0.13604712411902806
2.235801104972376,0.11769832421079798
2.2691712707182323,0.10735418284506297
2.3025414364640886,0.09123467586108557
2.335911602209945,0.05934704790441031
2.369281767955801,0.009428173762411849
2.402651933701658,-0.052819801549633866
2.436022099447514,-0.11705580656337665
2.4693922651933704,-0.17338726467302712
2.5027624309392267,-0.21669079109094416
2.536132596685083,-0.24820237839319115
2.5695027624309392,-0.27391502188370803
2.602872928176796,-0.30090700722213864
2.636243093922652,-0.3335626984579434
2.6696132596685085,-0.3714142630196288
2.7029834254143648,-0.4093287083700564
2.736353591160221,-0.439636604229979
2.7697237569060777,-0.45509687716161223
2.803093922651934,-0.45148966148307373
2.8364640883977903,-0.42895943882536003
2.8698342541436466,-0.391730160019709
2.903204419889503,-0.3463308851473393
2.936574585635359,-0.29897081925317653
2.969944751381216,-0.25311888191314946
3.003314917127072,-0.20846621403995733
3.0366850828729284,-0.16203079182029906
3.0700552486187846,-0.11117272595166126
3.103425414364641,-0.057100596738684825
3.1367955801104976,-0.006729449034828813
3.170165745856354,0.028918584668989583
3.20353591160221,0.04009457793798593
3.2369060773480665,0.025686396194445862
3.2702762430939227,-0.0010130575178552805
3.3036464088397794,-0.01210610036731602
3.3370165745856357,0.027203263793562648
3.370386740331492,0.14412663956015193
3.4037569060773483,0.34221305843018945
3.4371270718232045,0.5914621660717476
3.4704972375690613,0.8316319180442412
3.5038674033149175,0.990891501865222
3.537237569060774,1.014507591765629
3.57060773480663,0.8916342009686288
3.6039779005524863,0.6665000658317328
3.6373480662983426,0.42559557707503987
3.6707182320441993,0.263440482909274
3.7040883977900556,0.2410125533855823
3.737458563535912,0.3564272783784862
3.770828729281768,0.5429872803078956
3.8041988950276244,0.6967484724154624
3.837569060773481,0.7209684627518637
3.8709392265193374,0.5663719144410229
3.9043093922651937,0.24879368378112632
3.93767955801105,-0.1621783445834986
3.9710497237569062,-0.5753574066411671
4.0044198895027625,-0.9135952773080943
4.037790055248619,-1.136337369634316
4.071160220994475,-1.2416584546332412
4.104530386740332,-1.2518795145113386
4.1379005524861885,-1.194234536443061
4.171270718232044,-1.0879015583982004
4.204640883977901,-0.9424063238595677
4.238011049723757,-0.7645928108535113
4.271381215469614,-0.5667693004566019
4.30475138121547,-0.3693418547073341
4.338121546961326,-0.19588580613220943
4.371491712707183,-0.06382293101924373
4.404861878453039,0.02340821392741521
4.438232044198895,0.07775646648036662
4.471602209944752,0.12029060864851326
4.504972375690608,0.17024093516521782
4.538342541436465,0.23489757598793898
4.5717127071823205,0.30560511247711536
4.605082872928177,0.3621249615314279
4.638453038674034,0.3834759040343559
4.67182320441989,0.36003040117083196
4.7051933701657465,0.300786447109589
4.738563535911602,0.23184779598597985
4.771933701657459,0.18630125668755695
4.805303867403316,0.18991112253596343
4.8386740331491715,0.24926723712818552
4.872044198895028,0.34805226677545875
4.905414364640884,0.45332254739694083
4.938784530386741,0.5289401307664274
4.972154696132597,0.5499100009184132
5.005524861878453,0.5110717278361494
5.03889502762431,0.42652838978514085
5.072265193370166,0.320857404719395
5.105635359116023,0.21710773355197352
5.1390055248618784,0.127781016663381
5.172375690607735,0.05287150606513723
5.205745856353592,-0.015104144785929672
5.239116022099448,-0.082931032003632
5.272486187845304,-0.1505429486947659
5.30585635359116,-0.21035925492433155
5.339226519337017,-0.25203290644323245
5.372596685082874,-0.2692942595883596
5.4059668508287295,-0.26448110012167536
5.439337016574586,-0.24789736259306996
5.472707182320442,-0.2323223966251719
5.506077348066299,-0.2259099631457477
5.5394475138121555,-0.22769621125854236
5.572817679558011,-0.22844260097315913
5.606187845303868,-0.21645719219610596
5.639558011049724,-0.1851541162104671
5.672928176795581,-0.1380802368478368
5.706298342541437,-0.08851800914705839
5.739668508287293,-0.05372908247849626
5.77303867403315,-0.04674826485505667
5.806408839779006,-0.06984600143566386
5.839779005524862,-0.11281759634717303
5.873149171270718,-0.15678513988030915
5.906519337016575,-0.18158683711360382
5.939889502762432,-0.17337742265900916
5.9732596685082875,-0.12934108957436397
6.006629834254144,-0.05805809705333203
6.04,0.023933252786936657
6.073370165745857,0.09750489263173034
6.1067403314917135,0.14618728392304994
6.140110497237569,0.1599790868863479
6.173480662983426,0.13733231380939576
6.206850828729282,0.08544435438347704
6.240220994475139,0.018970835084130205
6.273591160220995,-0.042908244106695914
6.306961325966851,-0.0809916028183322
6.340331491712708,-0.08140271760728311
6.373701657458564,-0.040224808988060114
6.40707182320442,0.03449640819333593
6.440441988950277,0.1247050681094544
6.473812154696133,0.2080449899992851
6.50718232044199,0.26536064064683296
6.5405524861878455,0.28696875912883674
6.573922651933702,0.27502131960233145
6.607292817679559,0.240973777850454
6.640662983425415,0.19942844629653908
6.674033149171271,0.16131926213643527
6.707403314917127,0.12968003509116333
6.740773480662984,0.09993056990154771
6.774143646408841,0.06433953385343398
6.8075138121546965,0.01819125553037185
6.840883977900553,-0.03571842005977991
6.874254143646409,-0.086796823271817
6.907624309392266,-0.12092963615694298
6.9409944751381225,-0.1272513149191032
6.974364640883978,-0.10399109504264063
7.007734806629835,-0.06040290702098004
7.041104972375691,-0.013742385318067258
7.074475138121548,0.017331426469473384
7.107845303867403,0.019925960326458575
7.14121546961326,-0.008441864197376636
7.174585635359117,-0.05948907127330677
7.207955801104973,-0.11787089424103406
7.241325966850829,-0.16708182593247636
7.274696132596685,-0.19507915423882505
7.308066298342542,-0.19766056022305484
7.341436464088399,-0.17880671606775939
7.3748066298342545,-0.14840048353536894
7.408176795580111,-0.11846314055905235
7.441546961325967,-0.0991819306192536
7.474917127071824,-0.0957477780954501
7.5082872928176805,-0.10667757620833858
7.541657458563536,-0.12401077624566605
7.575027624309393,-0.13546977855632455
7.608397790055249,-0.12821058219888443
7.641767955801106,-0.09318471055868387
7.675138121546962,-0.028673107471595558
7.708508287292818,0.05837776058443615
7.741878453038675,0.1538393273817345
7.775248618784531,0.24019731596406146
7.808618784530387,0.30125234428877296
7.841988950276244,0.32612964047943865
7.8753591160221,0.31153841496146883
7.908729281767957,0.26202544062397504
7.9420994475138125,0.18853246218947753
7.975469613259669,0.10574389626143092
8.008839779005525,0.028735958241584994
8.042209944751383,-0.03042285548824973
8.075580110497238,-0.06525936352605118
8.108950276243094,-0.07583607023109344
8.14232044198895,-0.0676838273726497
8.175690607734808,-0.049138711086652596
8.209060773480664,-0.02814398991433852
8.24243093922652,-0.009750475699350522
8.275801104972377,0.00480528540279063
8.309171270718233,0.01723274291435398
8.342541436464089,0.03001710747093956
8.375911602209946,0.04395212762131992
8.409281767955802,0.05655874326077261
8.442651933701658,0.06229330851936013
8.476022099447514,0.054705180468456446
8.509392265193371,0.02972288751200735
8.542762430939227,-0.011503017062133173
8.576132596685083,-0.061810831660101824
8.60950276243094,-0.11005564794356232
8.642872928176796,-0.14530884232529145
8.676243093922652,-0.16132364709700198
8.709613259668508,-0.1589856646273357
8.742983425414366,-0.1453125828455324
8.776353591160222,-0.12931690732358775
8.809723756906077,-0.11681291270378284
8.843093922651935,-0.10701558610211663
8.87646408839779,-0.0929857008066633
8.909834254143647,-0.06592569741376837
8.943204419889504,-0.021117538056429554
8.97657458563536,0.037793285469865476
9.009944751381216,0.09871812532714079
9.043314917127072,0.14557699740812735
9.07668508287293,0.16514546878452896
9.110055248618785,0.15284339267709124
9.143425414364641,0.11455780194180423
9.176795580110499,0.06366147206778484
9.210165745856354,0.014837273565471537
9.24353591160221,-0.02213727663653464
9.276906077348068,-0.04560386254829258
9.310276243093924,-0.06084325212722876
9.34364640883978,-0.07540255708891314
9.377016574585635,-0.09358083090546253
9.410386740331493,-0.11305292472469336
9.443756906077349,-0.12539821549304736
9.477127071823205,-0.12022114359338897
9.510497237569062,-0.0906978696010997
9.543867403314918,-0.03768344868458727
9.577237569060774,0.029737249945742575
9.610607734806631,0.09760715979868279
9.643977900552487,0.1528198761224445
9.677348066298343,0.18851510315628842
9.710718232044199,0.2065423930945094
9.744088397790057,0.21567291924368456
9.777458563535912,0.22620086222687608
9.810828729281768,0.24339231166389444
9.844198895027626,0.2630447286002904
9.877569060773482,0.2716805594301076
9.910939226519337,0.25178441273910135
9.944309392265193,0.18996032125564477
9.97767955801105,0.08426144938429132
10.011049723756907,-0.05283120209363539
10.044419889502763,-0.19729321764714702
10.07779005524862,-0.32108704416416844
10.111160220994476,-0.4011077034893136
10.144530386740332,-0.4259599615155343
10.17790055248619,-0.3982588096159435
10.211270718232045,-0.3322117897670176
10.244640883977901,-0.24804226321322867
10.278011049723757,-0.16563385898148186
10.311381215469615,-0.0994969997281882
10.34475138121547,-0.05617434744865891
10.378121546961326,-0.034137317919564626
10.411491712707184,-0.025570302670672243
10.44486187845304,-0.019298321675573965
10.478232044198895,-0.004235343085618777
10.511602209944753,0.027215064210250512
10.544972375690609,0.0764966907702227
10.578342541436465,0.13777946077130263
10.61171270718232,0.1990053274267739
10.645082872928178,0.24513750741685028
10.678453038674034,0.26283103015273435
10.71182320441989,0.2450731391304762
10.745193370165747,0.19416040039194485
10.778563535911603,0.12180073579104098
10.811933701657459,0.04602428293857171
10.845303867403315,-0.014319565225294125
10.878674033149172,-0.045746240744584804
10.912044198895028,-0.04480308254272007
10.945414364640884,-0.019333179531278007
10.978784530386742,0.01440917322666011
11.012154696132598,0.037905079842584406
11.045524861878453,0.03745333467291949
11.078895027624311,0.009329302033977574
11.112265193370167,-0.03911836515391849
11.145635359116023,-0.09285739316427884
11.179005524861878,-0.13553105073952657
11.212375690607736,-0.15600055564943535
11.245745856353592,-0.15226884434340093
11.279116022099448,-0.13121214394708888
11.312486187845305,-0.10444253186913197
11.345856353591161,-0.08233478743225646
11.379226519337017,-0.06902523118104927
11.412596685082875,-0.06069834408668572
11.44596685082873,-0.047938102911190404
11.479337016574586,-0.021017629615675333
11.512707182320442,0.024404503646290585
11.5460773480663,0.08396071605752231
11.579447513812156,0.14534949001566183
11.612817679558011,0.1930318083104799
11.646187845303869,0.21477402094779424
11.679558011049725,0.20696324793937476
11.71292817679558,0.176059568854815
11.746298342541436,0.13532324668071843
11.779668508287294,0.09828441018542233
11.81303867403315,0.07215123159956986
11.846408839779006,0.05452836114576188
11.879779005524863,0.03524586283443536
11.91314917127072,0.002515906169084401
11.946519337016575,-0.04964577903164006
11.979889502762433,-0.11656876335246412
12.013259668508288,-0.18329436859343118
12.046629834254144,-0.2302241821467205
12.08,-0.24145319902054724
12.113370165745858,-0.21183284720969658
12.146740331491714,-0.1494556481687752
12.18011049723757,-0.07252862725158851
12.213480662983427,-0.002280073311962075
12.246850828729283,0.04474900919159587
12.280220994475139,0.06171028210150187
12.313591160220996,0.052018988046682556
12.346961325966852,0.025963643305075824
12.380331491712708,-0.004477779809424247
12.413701657458564,-0.030010760287977143
12.447071823204421,-0.045859917012439896
12.480441988950277,-0.05094254249098802
12.513812154696133,-0.04567979655272592
12.54718232044199,-0.03025785829410737
12.580552486187846,-0.004551246929673804
12.613922651933702,0.030376511274517057
12.64729281767956,0.07048057968039234
12.680662983425416,0.10829815151824336
12.714033149171271,0.13476238106519725
12.747403314917127,0.1426967392812523
12.780773480662985,0.1301526736649376
12.81414364640884,0.10156893313281896
12.847513812154697,0.06586549151218633
12.880883977900554,0.03238260445373627
12.91425414364641,0.006881029452393511
12.947624309392266,-0.010225823385606068
12.980994475138122,-0.022596632079576604
13.01436464088398,-0.03462510047083501
13.047734806629835,-0.04814395728823662
13.081104972375691,-0.06110357306939429
13.114475138121549,-0.06888668988612577
13.147845303867404,-0.06735166612388853
13.18121546961326,-0.05573840666889156
13.214585635359118,-0.03771811082577486
13.247955801104974,-0.019962664829129863
13.28132596685083,-0.008987541478837659
13.314696132596685,-0.007924971609125359
13.348066298342543,-0.014878416422103753
13.381436464088399,-0.02367572404639677
13.414806629834255,-0.026662571051776045
13.448176795580112,-0.018250498795126965
13.481546961325968,0.002352477001768752
13.514917127071824,0.030400349958145407
13.548287292817681,0.05718847051461427
13.581657458563537,0.073369214377669
13.615027624309393,0.07274458015318233
13.648397790055249,0.0550490874009951
13.681767955801106,0.026543364699323675
13.715138121546962,-0.001977387808891485
13.748508287292818,-0.01913726499599899
13.781878453038676,-0.017416670095175692
13.815248618784532,0.003703544336228065
13.848618784530387,0.03721857520966547
13.881988950276245,0.07098122757720132
13.9153591160221,0.09206828947445414
13.948729281767957,0.09137289213654307
13.982099447513813,0.06658252561762679
14.01546961325967,0.022445546017744174
14.048839779005526,-0.0315318203812141
14.082209944751382,-0.08469035016388514
14.11558011049724,-0.12842677381370748
14.148950276243095,-0.15777587438238944
14.182320441988951,-0.17117242312689637
14.215690607734807,-0.1691583033063059
14.249060773480664,-0.15314143642240274
14.28243093922652,-0.12494925404486659
14.315801104972376,-0.08720478313064846
14.349171270718234,-0.043972471088491095
14.38254143646409,-0.0009577444185652101
14.415911602209945,0.035217599209560226
14.449281767955803,0.058685767109547336
14.482651933701659,0.06647583876278561
14.516022099447515,0.0602633650430679
14.54939226519337,0.04673753545529974
14.582762430939228,0.03592422708682763
14.616132596685084,0.03761660065943825
14.64950276243094,0.05708539088608866
14.682872928176797,0.09192580140060228
14.716243093922653,0.13174918628422283
14.749613259668509,0.16135261615551183
14.782983425414367,0.1664388175442451
14.816353591160222,0.13967231527673282
14.849723756906078,0.08450323506018963
14.883093922651934,0.01497061314537898
14.916464088397792,-0.04872644390135899
14.949834254143648,-0.08740515277429872
14.983204419889503,-0.09019765559008502
15.016574585635361,-0.059168276127924746
15.049944751381217,-0.009283641184974357
15.083314917127073,0.03662715083031132
15.116685082872928,0.05639696368386396
15.150055248618786,0.03746886635499811
15.183425414364642,-0.017318105846595624
15.216795580110498,-0.08979062086836662
15.250165745856355,-0.1528299301272753
15.283535911602211,-0.18085133342654408
15.316906077348067,-0.16013745773780344
15.350276243093925,-0.09458098090172538
15.38364640883978,-0.004261694576350134
15.417016574585636,0.08255170998635931
15.450386740331492,0.140435937492545
15.48375690607735,0.1560682475993093
15.517127071823205,0.13189264790411498
15.550497237569061,0.08310989478955631
15.583867403314919,0.02993531481348502
15.617237569060775,-0.011064110189898413
15.65060773480663,-0.03280434288879136
15.683977900552488,-0.038667202357003154
15.717348066298344,-0.0389602043455822
15.7507182320442,-0.04499183693002899
15.784088397790056,-0.06347958825470033
15.817458563535913,-0.09339373965217845
15.85082872928177,-0.1261023609372172
15.884198895027625,-0.14847696448265457
15.917569060773483,-0.14780810878291836
15.950939226519338,-0.1169741137514083
15.984309392265194,-0.058184732582656794
16.01767955801105,0.01619610468810305
16.051049723756908,0.08657502095127519
16.084419889502765,0.13238012744806812
16.11779005524862,0.13969310143438865
16.151160220994477,0.10723987877149088
16.18453038674033,0.04786123263089917
16.21790055248619,-0.015773022023344154
16.251270718232046,-0.0598620942851638
16.2846408839779,-0.06896394608358686
16.318011049723758,-0.041971911686986996
16.351381215469615,0.008257275922082639
16.38475138121547,0.061439720435315454
16.418121546961327,0.09934535516316632
16.451491712707185,0.11358750146891013
16.48486187845304,0.1080654429532328
16.518232044198896,0.09523563858566554
16.551602209944754,0.08851687945267482
16.584972375690608,0.09491039177708124
16.618342541436466,0.11150210111750505
16.651712707182323,0.12728430466322246
16.685082872928177,0.12896781069898036
16.718453038674035,0.10759144568352891
16.751823204419892,0.06262516449112342
16.785193370165747,0.0018049220916152456
16.818563535911604,-0.06277797902262959
16.851933701657458,-0.11998569466632499
16.885303867403316,-0.16352000305224185
16.918674033149173,-0.1926067999906421
16.952044198895027,-0.20962937674351692
16.985414364640885,-0.21658000943272548
17.018784530386743,-0.21273001377168108
17.052154696132597,-0.19498003598960734
17.085524861878454,-0.1605616650114853
17.118895027624312,-0.11025879702770193
