Frequency (Hz),Amplitude
0.0,12.588719356073579
0.01993355481727575,12.58528622872554
0.0398671096345515,12.57499478221336
0.059800664451827246,12.557868834624783
0.079734219269103,12.53394812111426
0.09966777408637874,12.503288351534525
0.11960132890365449,12.465961291348371
0.13953488372093023,12.422054866021734
0.159468438538206,12.371673289117767
0.17940199335548174,12.314937214298173
0.19933554817275748,12.25198391138401
0.21926910299003324,12.1829674665207
0.23920265780730898,12.108059006319158
0.25913621262458475,12.027446945589594
0.27906976744186046,11.94133725792939
0.29900332225913623,11.849953767948064
0.318936877076412,11.753538463286812
0.3388704318936877,11.652351823786967
0.3588039867109635,11.546673164148256
0.37873754152823924,11.436800985156495
0.39867109634551495,11.323053327010637
0.4186046511627907,11.205768116397534
0.4385382059800665,11.085303496705139
0.4584717607973422,10.96203812808825
0.47840531561461797,10.836371440968838
0.49833887043189373,10.708723822938406
0.5182724252491695,10.579536714926276
0.5382059800664452,10.449272587925112
0.5581395348837209,10.318414766586036
0.5780730897009968,10.187467060727576
0.5980066445182725,10.056953160437347
0.6179401993355482,9.92741574526704
0.637873754152824,9.799415253424323
0.6578073089700996,9.673528253371815
0.6777408637873754,9.550345358508455
0.6976744186046512,9.430468626414887
0.717607973421927,9.314508388377893
0.7375415282392027,9.203079463500076
0.7574750830564785,9.096796725540171
0.7774086378737541,8.996270010434035
0.7973421926910299,8.902098378600765
0.8172757475083057,8.814863778499786
0.8372093023255814,8.73512419561799
0.8571428571428572,8.663406412405505
0.877076411960133,8.600198546982744
0.8970099667774087,8.545942578171521
0.9169435215946844,8.501027097387807
0.9368770764119602,8.465780549790056
0.9568106312292359,8.44046523380437
0.9767441860465116,8.425272316794638
0.9966777408637875,8.420318093950609
1.0166112956810631,8.425641668305621
1.036544850498339,8.441204165326887
1.0564784053156147,8.466889520934384
1.0764119601328903,8.50250680369388
1.0963455149501662,8.547793957388269
1.1162790697674418,8.60242278578668
1.1362126245847177,8.666004952379605
1.1561461794019936,8.738098737272344
1.176079734219269,8.818216282190624
1.196013289036545,8.905831061374453
1.2159468438538206,9.00038533806077
1.2358803986710964,9.101297399277028
1.255813953488372,9.20796840140557
1.275747508305648,9.31978870126474
1.2956810631229239,9.43614358875603
1.3156146179401993,9.556418374792784
1.3355481727574752,9.680002820536052
1.3554817275747508,9.80629492006711
1.3754152823920267,9.934704068386422
1.3953488372093024,10.064653660430206
1.4152823920265782,10.195583175358234
1.435215946843854,10.326949804579108
1.4551495016611296,10.458229682772808
1.4750830564784054,10.588918779428717
1.495016611295681,10.718533504922272
1.514950166112957,10.8466110805587
1.5348837209302328,10.972709716838809
1.5548172757475083,11.096408638842309
1.5747508305647842,11.217307992363907
1.5946843853820598,11.33502865946501
1.6146179401993357,11.449212007539105
1.6345514950166113,11.559519591891416
1.6544850498338872,11.665632828225492
1.6744186046511629,11.767252648302158
1.6943521594684385,11.864099149364607
1.7142857142857144,11.955911245669757
1.73421926910299,12.042446328587552
1.754152823920266,12.123479940183252
1.7740863787375416,12.1988054639386
1.7940199335548175,12.268233835256186
1.8139534883720931,12.331593273589977
1.8338870431893688,12.38872903742016
1.8538205980066447,12.439503202813647
1.8737541528239203,12.483794465956825
1.893687707641196,12.521497969792724
1.9136212624584719,12.552525154722186
1.9335548172757475,12.576803633222118
1.9534883720930232,12.594277088179743
1.9734219269102993,12.604905194729096
1.993355481727575,12.608663565394838
2.0132890365448506,12.60554371839043
2.0332225913621262,12.595553068975638
2.0531561461794023,12.578714943845762
2.073089700996678,12.55506861859496
2.0930232558139537,12.524669378363273
2.1129568106312293,12.487588601835075
2.132890365448505,12.443913868798163
2.1528239202657806,12.393749091491705
2.1727574750830567,12.337214669957934
2.1926910299003324,12.274447671557857
2.212624584717608,12.20560203470395
2.2325581395348837,12.130848796689088
2.25249169435216,12.050376345234628
2.2724252491694354,11.964390693023962
2.292358803986711,11.873115774007466
2.312292358803987,11.776793759636261
2.332225913621263,11.675685392375444
2.352159468438538,11.570070332828847
2.3720930232558137,11.460247515539875
2.39202657807309,11.34653550697523
2.4119601328903655,11.229272857306562
2.431893687707641,11.108818435335209
2.4518272425249172,10.985551733213216
2.471760797342193,10.859873124464094
2.4916943521594686,10.73220405517049
2.511627906976744,10.602987144067509
2.5315614617940203,10.472686162680331
2.551495016611296,10.341785861633614
2.5714285714285716,10.210791603958658
2.5913621262458477,10.080228760823857
2.611295681063123,9.950641819900135
2.6312292358803986,9.822593151944966
2.6511627906976742,9.696661377668823
2.6710963455149503,9.573439275198863
2.691029900332226,9.453531169261757
2.7109634551495017,9.33754974746503
2.7308970099667778,9.226112257698516
2.7508305647840534,9.119836054603113
2.770764119601329,9.01933348298296
2.7906976744186047,8.925206112356166
2.810631229235881,8.838038369402899
2.8305647840531565,8.758390653014985
2.850498338870432,8.686792058238883
2.870431893687708,8.623732877950985
2.8903654485049834,8.569657091048024
2.910299003322259,8.52495507907463
2.9302325581395348,8.489956835136628
2.950166112956811,8.464925935638506
2.9700996677740865,8.450054533877024
2.990033222591362,8.44545960356049
3.0099667774086383,8.451180610800645
3.029900332225914,8.467178728233446
3.0498338870431896,8.49333762989844
3.0697674418604657,8.529465826983934
3.089700996677741,8.575300429662057
3.1096345514950166,8.630512155611079
3.129568106312292,8.694711356645533
3.1495016611295683,8.76745480428907
3.169435215946844,8.848252963977748
3.1893687707641196,8.93657749457281
3.2093023255813957,9.031868732002614
3.2292358803986714,9.13354294911225
3.249169435215947,9.240999223767284
3.2691029900332227,9.353625789751908
3.289036544850499,9.47080578647804
3.3089700996677744,9.591922361320423
3.32890365448505,9.716363110796907
3.3488372093023258,9.843523872975114
3.3687707641196014,9.972811903275469
3.388704318936877,10.103648479648271
3.4086378737541527,10.235470991654333
3.428571428571429,10.367734572170404
3.4485049833887045,10.499913331207237
3.46843853820598,10.63150124955654
3.4883720930232562,10.762012786458753
3.508305647840532,10.890983250860751
3.5282392026578075,11.017968980633508
3.548172757475083,11.142547368738212
3.5681063122923593,11.26431677004934
3.588039867109635,11.382896317555323
3.60797342192691,11.497925672078695
3.6279069767441863,11.609064725549656
3.647840531561462,11.715993274250263
3.6677740863787376,11.818410675312316
3.6877076411960132,11.916035497075192
3.7076411960132893,12.00860517165198
3.727574750830565,12.09587565617106
3.7475083056478407,12.177621107610944
3.7674418604651168,12.253633574886349
3.787375415282392,12.323722710829983
3.807308970099668,12.387715505913294
3.8272425249169437,12.445456044924114
3.8471760797342194,12.496805287342433
3.867109634551495,12.541640871800878
3.887043189368771,12.579856944762888
3.9069767441860463,12.611364013379122
3.9269102990033224,12.63608882237704
3.9468438538205985,12.653974254785263
3.9667774086378738,12.664979256282278
3.98671096345515,12.669078782979014
4.0066445182724255,12.666263772487577
4.026578073089701,12.656541138187428
4.046511627906977,12.639933786668639
4.0664451827242525,12.61648065840279
4.086378737541528,12.586236791760586
4.106312292358805,12.549273410553582
4.1262458471760795,12.505678035320702
4.146179401993356,12.45555461859875
4.166112956810632,12.399023704404312
4.186046511627907,12.336222612099382
4.205980066445183,12.267305644705475
4.225913621262459,12.192444321557055
4.245847176079734,12.1118276349269
4.26578073089701,12.02566232989769
4.2857142857142865,11.934173206269998
4.305647840531561,11.837603440664136
4.325581395348838,11.736214926160077
4.345514950166113,11.630288625792838
4.365448504983389,11.520124934942505
4.385382059800665,11.406044046086357
4.40531561461794,11.288386307471525
4.425249169435216,11.167512564975267
4.445182724252492,11.043804473701464
4.465116279069767,10.917664762680223
4.485049833887043,10.789517432363699
4.50498338870432,10.659807860438274
4.524916943521594,10.529002786821898
4.544850498338871,10.397590143647724
4.5647840531561465,10.266078690670334
4.584717607973422,10.134997411064695
4.604651162790698,10.00489461730651
4.624584717607974,9.876336712131605
4.644518272425249,9.749906545997861
4.664451827242526,9.626201310687273
4.6843853820598005,9.50582990948357
4.704318936877076,9.389409748645908
4.724252491694353,9.27756290362068
4.7441860465116275,9.170911627499411
4.764119601328904,9.070073189372883
4.78405315614618,8.975654056841089
4.803986710963455,8.888243469869648
4.823920265780731,8.808406491561303
4.8438538205980075,8.736676663474658
4.863787375415282,8.673548436153624
4.883720930232559,8.61946958591997
4.9036544850498345,8.574833862474872
4.92358803986711,8.539974133987725
4.943521594684386,8.51515630305424
4.963455149501661,8.50057425518779
4.983388704318937,8.49634607010693
5.003322259136213,8.502511675915985
5.023255813953488,8.51903206059298
5.043189368770764,8.545790079307194
5.063122923588041,8.582592816716542
5.083056478405315,8.629175387763771
5.102990033222592,8.68520599528772
5.122923588039868,8.750292013228538
5.142857142857143,8.823986833491372
5.162790697674419,8.905797203470682
5.182724252491695,8.995190788491305
5.20265780730897,9.091603715951624
5.222591362126246,9.194447891667874
5.242524916943522,9.30311791936025
5.262458471760797,9.416997497161328
5.282392026578074,9.535465206894703
5.3023255813953485,9.657899649988805
5.322259136212625,9.7836839165355
5.342192691029901,9.912209400331143
5.362126245847176,10.042878992626463
5.382059800664452,10.17510970116509
5.4019933554817285,10.308334749646324
5.421926910299003,10.4420052169138
5.44186046511628,10.575591275892851
5.4617940199335555,10.708583090471983
5.48172757475083,10.840491424938293
5.501661129568107,10.970848015893246
5.5215946843853825,11.099205751318609
5.541528239202658,11.225138696027788
5.561461794019934,11.348241997411805
5.5813953488372094,11.468131700359814
5.601328903654485,11.584444495621874
5.621262458471762,11.696837421744483
5.641196013289036,11.80498753706914
5.661129568106313,11.90859157513101
5.681063122923589,12.007365594102634
5.700996677740864,12.101044628657695
5.72093023255814,12.189382350739281
5.740863787375416,12.272150744161095
5.760797342192691,12.349139796704234
5.780730897009967,12.420157212356123
5.800664451827243,12.485028145533118
5.820598006644518,12.543594958502721
5.840531561461795,12.595717002742798
5.8604651162790695,12.641270424621291
5.880398671096346,12.680147995525823
5.900332225913622,12.712258966401494
5.920265780730897,12.737528946550142
5.940199335548173,12.755899806492451
5.960132890365449,12.767329604683612
5.980066445182724,12.771792537894543
6.0,12.76927891511542
6.0199335548172765,12.75979515489883
6.039867109634551,12.743363806129565
6.059800664451828,12.720023592281693
6.0797342192691035,12.689829479292428
6.099667774086379,12.652852767243658
6.119601328903655,12.609181206085527
6.139534883720931,12.55891913565722
6.159468438538206,12.502187650248523
6.179401993355482,12.439124787891544
6.1993355481727574,12.369885744464625
6.219269102990033,12.294643112515223
6.23920265780731,12.213587144449072
6.259136212624584,12.126926039371597
6.279069767441861,12.03488625237876
6.299003322259137,11.937712824455685
6.318936877076412,11.835669730318859
6.338870431893688,11.729040240499353
6.3588039867109645,11.61812729267049
6.378737541528239,11.5032538656316
6.398671096345516,11.384763347425086
6.418604651162791,11.263019886741262
6.438538205980066,11.138408714007577
6.458471760797343,11.011336415330488
6.4784053156146175,10.882231138727493
6.498338870431894,10.751542707848328
6.51827242524917,10.619742613655824
6.538205980066445,10.48732384938342
6.558139534883721,10.354800548626017
6.578073089700998,10.222707380853093
6.598006644518272,10.091598653248436
6.617940199335549,9.962047062989088
6.6378737541528245,9.83464204041619
6.6578073089701,9.709987621701533
6.677740863787376,9.588699790388448
6.6976744186046515,9.47140323150358
6.717607973421927,9.358727450765958
6.737541528239203,9.251302225687828
6.7574750830564785,9.149752375816123
6.777408637873754,9.05469186640602
6.797342192691031,8.966717293302631
6.8172757475083055,8.886400835844679
6.837209302325582,8.814282807401561
6.857142857142858,8.75086397694222
6.877076411960133,8.696597876131438
6.897009966777409,8.65188334051869
6.9169435215946855,8.617057555876737
6.93687707641196,8.592389887515266
6.956810631229236,8.578076758396975
6.9767441860465125,8.574237809842035
6.996677740863787,8.580913527474236
7.016611295681064,8.59806444816375
7.036544850498339,8.62557198648149
7.056478405315615,8.66324083846504
7.076411960132891,8.710802843663146
7.096345514950166,8.767922120277083
7.116279069767442,8.834201238067022
7.136212624584719,8.909188162724021
7.156146179401993,8.992383694438082
7.17607973421927,9.08324913102622
7.196013289036546,9.181213909102567
7.21594684385382,9.285683011196184
7.235880398671097,9.396043967911131
7.2558139534883725,9.511673327878166
7.275747508305648,9.631942510748766
7.295681063122924,9.756222997121268
7.3156146179402,9.883890842334019
7.335548172757475,10.014330527668717
7.355481727574752,10.146938182569905
7.3754152823920265,10.281124225424229
7.395348837209303,10.416315479014585
7.415282392026579,10.551956820894956
7.435215946843854,10.687512429584451
7.45514950166113,10.822466685563386
7.475083056478406,10.956324782371407
7.495016611295681,11.088613098326304
7.514950166112956,11.218879374030998
7.5348837209302335,11.34669273531587
7.554817275747508,11.471643595859835
7.574750830564784,11.593343468637512
7.5946843853820605,11.711424710670194
7.614617940199336,11.825540221373076
7.634551495016611,11.935363111111467
7.6544850498338874,12.040586353393216
7.674418604651163,12.140922431406617
7.694352159468439,12.23610298732291
7.714285714285715,12.325878480876218
7.73421926910299,12.410017862165496
7.754152823920266,12.488308262348626
7.774086378737542,12.56055470487594
7.794019933554818,12.626579839101979
7.813953488372093,12.686223697484342
7.83388704318937,12.739343477100297
7.853820598006645,12.785813345855875
7.8737541528239205,12.825524273509567
7.893687707641197,12.85838388746185
7.913621262458472,12.884316353158653
7.9335548172757475,12.903262278906462
7.953488372093024,12.915178644888478
7.9734219269103,12.920038756194716
7.9933554817275745,12.917832219726039
8.013289036544851,12.908564944895629
8.033222591362128,12.892259168123351
8.053156146179402,12.868953501194833
8.073089700996679,12.838703003628986
8.093023255813954,12.801579279260634
8.11295681063123,12.757670597291796
8.132890365448505,12.707082038087135
8.152823920265782,12.649935663979543
8.172757475083056,12.5863707152987
8.192691029900331,12.516543831728294
8.21262458471761,12.440629298921676
8.232558139534884,12.35881932004478
8.252491694352159,12.271324311549295
8.272425249169435,12.178373221985968
8.292358803986712,12.080213872019305
8.312292358803987,11.977113312971971
8.332225913621263,11.869358200172416
8.352159468438538,11.757255176064598
8.372093023255815,11.64113125642004
8.392026578073091,11.521334211024133
8.411960132890366,11.398232927841846
8.43189368770764,11.272217746858866
8.451827242524917,11.143700746499535
8.471760797342194,11.013115961716027
8.491694352159469,10.880919508512388
8.511627906976745,10.747589584833026
8.53156146179402,10.613626312470618
8.551495016611296,10.479551379055033
8.571428571428573,10.345907433473013
8.591362126245848,10.213257182536271
8.611295681063122,10.082182131779613
8.6312292358804,9.953280909482967
8.651162790697676,9.827167111066414
8.67109634551495,9.704466601738817
8.691029900332227,9.585814219632132
8.710963455149502,9.471849830620675
8.730897009966778,9.363213700560854
8.750830564784053,9.260541171565498
8.77076411960133,9.164456656564832
8.790697674418604,9.07556700066021
8.81063122923588,8.994454297740614
8.830564784053157,8.921668294668015
8.850498338870432,8.857718560205152
8.870431893687707,8.803066637979851
8.890365448504983,8.758118437697902
8.91029900332226,8.723217141857125
8.930232558139535,8.69863691212061
8.950166112956811,8.684577667155601
8.970099667774086,8.681161170833755
8.990033222591363,8.688428617210878
9.00996677740864,8.70633983009231
9.029900332225914,8.734774115831243
9.049833887043189,8.773532725363989
9.069767441860467,8.822342802911995
9.089700996677742,8.880862631247524
9.109634551495017,8.948687932354602
9.129568106312293,9.02535895095241
9.14950166112957,9.110368037477564
9.169435215946844,9.203167455275363
9.189368770764121,9.303177160697604
9.209302325581396,9.409792340239116
9.22923588039867,9.522390531106709
9.249169435215949,9.640338196301554
9.269102990033224,9.76299666871587
9.289036544850498,9.889727418145007
9.308970099667773,10.019896628746027
9.328903654485051,10.152879101494976
9.348837209302326,10.288061516514517
9.368770764119601,10.424845104208982
9.388704318936878,10.562647782740592
9.408637873754152,10.700905823463092
9.428571428571429,10.839075106483413
9.448504983388705,10.976632026479162
9.46843853820598,11.11307410507596
9.488372093023255,11.247920361164239
9.508305647840533,11.38071148504737
9.528239202657808,11.511009856666327
9.548172757475083,11.638399442629748
9.56810631229236,11.762485601584496
9.588039867109636,11.88289482270796
9.60797342192691,11.999274417848472
9.627906976744187,12.111292184102139
9.647840531561462,12.21863605038247
9.667774086378738,12.321013718783101
9.687707641196015,12.41815230921446
9.70764119601329,12.509798013865856
9.727574750830565,12.595715766458834
9.747508305647841,12.675688929970308
9.767441860465118,12.749519005471884
9.787375415282392,12.817025363916624
9.807308970099669,12.878045002071495
9.827242524916944,12.932432323312273
9.84717607973422,12.980058943642097
9.867109634551497,13.020813523042055
9.887043189368772,13.054601622093085
9.906976744186046,13.081345583707275
9.926910299003321,13.100984439758873
9.9468438538206,13.113473842399923
9.966777408637874,13.118786019872442
9.986710963455149,13.116909756679656
10.006644518272426,13.10785039804563
10.026578073089702,13.091629878669092
10.046511627906977,13.068286775856606
10.066445182724253,13.037876387196459
10.086378737541528,13.000470833001085
10.106312292358805,12.956159183795858
10.126245847176081,12.905047613157658
10.146179401993356,12.847259576199072
10.16611295681063,12.78293601394344
10.186046511627907,12.712235583729319
10.205980066445184,12.635334915607233
10.225913621262459,12.552428894428479
10.245847176079735,12.463730966956225
10.26578073089701,12.369473472829212
10.285714285714286,12.269907997550074
10.305647840531563,12.165305744822858
10.325581395348838,12.055957924489768
10.345514950166113,11.94217615097694
10.36544850498339,11.824292845505434
10.385382059800666,11.702661633312085
10.40531561461794,11.577657724702481
10.425249169435217,11.449678265880257
10.445182724252492,11.31914264211803
10.465116279069768,11.186492711926265
10.485049833887045,11.05219294642486
10.50498338870432,10.916730443146164
10.524916943521594,10.780614778062693
10.544850498338871,10.64437765385782
10.564784053156147,10.508572296551222
10.584717607973422,10.373772546853843
10.604651162790697,10.240571587490013
10.624584717607974,10.10958024375333
10.64451827242525,9.981424792474062
10.664451827242525,9.856744215230675
10.684385382059801,9.736186836012537
10.704318936877076,9.62040629266768
10.724252491694353,9.510056806341419
10.74418604651163,9.405787734535574
10.764119601328904,9.308237421836973
10.784053156146179,9.218026397640807
10.803986710963457,9.135750011402719
10.823920265780732,9.061970641201457
