Frequency (Hz),Amplitude
0.0,23.223074386060617
0.019823788546255508,23.223595236001888
0.039647577092511016,23.225155682252403
0.059471365638766524,23.227749423493098
0.07929515418502203,23.231365988805035
0.09911894273127755,23.235990784391696
0.11894273127753305,23.241605158598972
0.13876651982378857,23.24818648484605
0.15859030837004406,23.2557082619771
0.17841409691629956,23.26414023144559
0.1982378854625551,23.27344851064914
0.2180616740088106,23.28359574164921
0.2378854625550661,23.29454125442886
0.25770925110132165,23.306241243774156
0.27753303964757714,23.318648958800797
0.29735682819383263,23.331714904096756
0.31718061674008813,23.345387051405307
0.3370044052863437,23.359611060740743
0.3568281938325991,23.374330509801162
0.37665198237885467,23.389487130526643
0.3964757709251102,23.405021051642933
0.41629955947136565,23.420871046029404
0.4361233480176212,23.43697478175898
0.4559471365638767,23.45326907567067
0.4757709251101322,23.469690148357007
0.49559471365638774,23.486173879475984
0.5154185022026433,23.502656062327866
0.5352422907488987,23.519072656675007
0.5550660792951543,23.535360038822198
0.5748898678414097,23.55145524801855
0.5947136563876653,23.56729622828845
0.6145374449339208,23.582822064845505
0.6343612334801763,23.597973214293603
0.6541850220264318,23.61269172786695
0.6740088105726874,23.626921467012647
0.6938325991189428,23.640608310666604
0.7136563876651982,23.653700353623364
0.7334801762114539,23.66614809544795
0.7533039647577093,23.677904619423252
0.7731277533039648,23.688925761071324
0.7929515418502204,23.699170265831132
0.8127753303964759,23.70859993551349
0.8325991189427313,23.7171797631963
0.8524229074889869,23.72487805625789
0.8722466960352424,23.731666547282114
0.8920704845814978,23.737520492603128
0.9118942731277534,23.742418758287567
0.931718061674009,23.746343893383642
0.9515418502202644,23.749282190293503
0.9713656387665199,23.751223732153253
0.9911894273127755,23.752162427130617
1.0110132158590308,23.75209602957622
1.0308370044052866,23.751026147987016
1.0506607929515421,23.748958239767255
1.0704845814977975,23.745901592794155
1.090308370044053,23.741869293820503
1.1101321585903086,23.736878183770695
1.1299559471365639,23.730948800012097
1.1497797356828194,23.724105305708868
1.1696035242290752,23.716375406393364
1.1894273127753305,23.707790253917427
1.209251101321586,23.69838433797659
1.2290748898678416,23.6881953654311
1.248898678414097,23.67726412768102
1.2687224669603525,23.665634356387606
1.288546255506608,23.65335256787015
1.3083700440528636,23.640467896547108
1.3281938325991192,23.627031917829694
1.3480176211453747,23.61309846092065
1.36784140969163,23.598723412015016
1.3876651982378856,23.58396450844481
1.4074889867841411,23.568881124359063
1.4273127753303965,23.553534048577934
1.4471365638766522,23.537985255309945
1.4669603524229078,23.522297668470806
1.4867841409691631,23.506534920392852
1.5066079295154187,23.490761105762694
1.5264317180616742,23.475040531674008
1.5462555066079295,23.4594374647273
1.5660792951541853,23.44401587615494
1.5859030837004409,23.42883918598867
1.6057268722466962,23.41397000732665
1.6255506607929517,23.399469891788137
1.6453744493392073,23.385399077273878
1.6651982378854626,23.371816239171395
1.6850220264317182,23.35877824616106
1.7048458149779737,23.346339921787347
1.7246696035242293,23.334553812961058
1.7444933920704848,23.323469966552
1.7643171806167404,23.31313571521503
1.7841409691629957,23.303595473570443
1.8039647577092512,23.29489054582373
1.8237885462555068,23.28705894586997
1.8436123348017623,23.280135230875324
1.863436123348018,23.274150349267995
1.8832599118942732,23.26913150400258
1.9030837004405288,23.265102031883252
1.9229074889867843,23.262081299648944
1.9427312775330399,23.26008461742854
1.9625550660792954,23.259123170079594
1.982378854625551,23.259203966818347
2.002202643171806,23.26032980944351
2.0220264317180616,23.262499279344304
2.041850220264317,23.265706743372334
2.061674008810573,23.269942378541884
2.0814977973568287,23.275192215412527
2.1013215859030843,23.281438199894723
2.1211453744493394,23.28865827311164
2.140969162995595,23.29682646884538
2.1607929515418505,23.30591302799581
2.180616740088106,23.315884529386143
2.2004405286343616,23.326704036162162
2.220264317180617,23.338331256951115
2.2400881057268722,23.350722720875876
2.2599118942731278,23.363831965454118
2.2797356828193833,23.377609736359403
2.299559471365639,23.39200419797448
2.319383259911895,23.406961153630274
2.3392070484581504,23.42242427439691
2.3590308370044055,23.438335335274523
2.378854625550661,23.45463445762106
2.3986784140969166,23.471260356652294
2.418502202643172,23.488150592857085
2.4383259911894277,23.50524182618092
2.4581497797356833,23.52247007185351
2.4779735682819384,23.539770956760538
2.497797356828194,23.557079975290925
2.5176211453744495,23.574332743627124
2.537444933920705,23.591465251485026
2.5572687224669606,23.608414110353525
2.577092511013216,23.62511679732884
2.5969162995594717,23.641511893685866
2.6167400881057272,23.657539317378113
2.6365638766519828,23.673140548706446
2.6563876651982383,23.68825884844692
2.676211453744494,23.702839467777245
2.6960352422907494,23.71682984938991
2.715859030837005,23.730179819228113
2.73568281938326,23.742841768326734
2.7555066079295156,23.754770824285323
2.775330396475771,23.76592501194426
2.7951541850220267,23.776265402874568
2.8149779735682823,23.785756253333712
2.834801762114538,23.794365130374644
2.854625550660793,23.8020630258334
2.874449339207049,23.808824457951577
2.8942731277533045,23.8146275604239
2.91409691629956,23.819454158690263
2.9339207048458156,23.82328983332015
2.953744493392071,23.826123970365334
2.9735682819383262,23.827949798581905
2.993392070484582,23.82876441344979
3.0132158590308373,23.828568787939595
3.033039647577093,23.827367770004333
3.0528634361233484,23.825170066794595
3.072687224669604,23.82198821562173
3.092511013215859,23.81783854171724
3.1123348017621146,23.812741102861953
3.1321585903083706,23.806719620984197
3.151982378854626,23.799801400853465
3.1718061674008817,23.792017236024176
3.1916299559471373,23.783401302213704
3.2114537444933924,23.773991038330465
3.231277533039648,23.763827015400828
3.2511013215859035,23.752952793679118
3.270925110132159,23.74141476826104
3.2907488986784146,23.729262003561256
3.31057268722467,23.716546057055872
3.3303964757709252,23.703320792734015
3.350220264317181,23.68964218474778
3.3700440528634363,23.67556811179582
3.389867841409692,23.66115814282489
3.4096916299559474,23.64647331468181
3.4295154185022034,23.6315759023992
3.4493392070484585,23.616529182849366
3.469162995594714,23.60139719255046
3.4889867841409696,23.58624448045976
3.508810572687225,23.57113585663935
3.5286343612334807,23.556136137725165
3.5484581497797363,23.54130989017771
3.5682819383259914,23.526721172334472
3.588105726872247,23.51243327632369
3.6079295154185025,23.49850847093304
3.627753303964758,23.48500774655789
3.6475770925110136,23.47199056337659
3.667400881057269,23.459514603918862
3.6872246696035247,23.447635531203517
3.7070484581497802,23.436406753625302
3.726872246696036,23.42587919776507
3.7466960352422913,23.416101090284233
3.7665198237885464,23.40711775004245
3.7863436123348024,23.398971391544546
3.8061674008810575,23.39170094078314
3.8259911894273135,23.38534186449284
3.8458149779735686,23.379926013772256
3.8656387665198246,23.37548148296265
3.8854625550660797,23.372032484595103
3.905286343612335,23.36959924113426
3.925110132158591,23.368197894154363
3.9449339207048464,23.367840431486318
3.964757709251102,23.368534632770775
3.9845814977973575,23.37028403374387
4.004405286343612,23.373087909472147
4.024229074889869,23.376941276638775
4.044052863436123,23.381834914868925
4.06387665198238,23.387755406968427
4.083700440528634,23.394685197835706
4.103524229074891,23.40260267169767
4.123348017621146,23.411482247212778
4.143171806167401,23.421294489882637
4.162995594713657,23.43200624111699
4.182819383259912,23.443580763207773
4.2026431718061685,23.455977899384028
4.222466960352423,23.46915424804767
4.242290748898679,23.483063350220448
4.262114537444934,23.497655889179597
4.28193832599119,23.51287990120822
4.301762114537445,23.528680996349774
4.321585903083701,23.54500258802583
4.3414096916299565,23.561786130355976
4.361233480176212,23.578971362006886
4.381057268722468,23.596496555394552
4.400881057268723,23.614298770067993
4.420704845814979,23.632314109114915
4.440528634361234,23.650477977449523
4.46035242290749,23.6687253408657
4.4801762114537445,23.686990984771906
4.500000000000001,23.705209771557122
4.5198237885462555,23.723316895578094
4.539647577092512,23.74124813480022
4.559471365638767,23.758940098169553
4.579295154185023,23.77633046784216
4.599118942731278,23.79335823544403
4.618942731277533,23.80996393158604
4.63876651982379,23.826089847908044
4.658590308370044,23.841680250975045
4.678414096916301,23.856681587399354
4.6982378854625555,23.871042679609122
4.718061674008811,23.884714911732008
4.737885462555067,23.89765240510694
4.757709251101322,23.90981218298202
4.777533039647578,23.921154323997058
4.797356828193833,23.93164210409027
4.817180616740089,23.94124212650618
4.837004405286344,23.94992443961694
4.856828193832599,23.957662642305735
4.876651982378855,23.96443397668947
4.896475770925111,23.970219407992094
4.9162995594713665,23.975003691406652
4.936123348017622,23.978775425812092
4.955947136563877,23.9815270942379
4.975770925110133,23.98325509099473
4.995594713656388,23.98395973541345
5.015418502202644,23.98364527216067
5.035242290748899,23.98231985812111
5.055066079295155,23.97999553586331
5.07488986784141,23.976688193727995
5.094713656387666,23.972417512604462
5.114537444933921,23.967206899486147
5.134361233480177,23.961083407923287
5.154185022026432,23.954077645518893
5.174008810572688,23.946223668644144
5.193832599118943,23.937558864580993
5.213656387665199,23.92812382133237
5.2334801762114544,23.917962185376325
5.25330396475771,23.907120507677558
5.2731277533039655,23.895648078308312
5.292951541850221,23.883596750074066
5.312775330396477,23.871020751580144
5.332599118942731,23.857976490223667
5.352422907488988,23.84452234564021
5.372246696035242,23.830718454185188
5.392070484581499,23.81662648507836
5.4118942731277535,23.802309408893272
5.43171806167401,23.787831259123035
5.451541850220265,23.773256887607264
5.47136563876652,23.758651714656587
5.491189427312777,23.744081474761455
5.511013215859031,23.72961195882171
5.530837004405288,23.71530875388087
5.550660792951542,23.70123698139312
5.570484581497798,23.68746103509254
5.5903083700440535,23.67404431957042
5.610132158590309,23.661048990698557
5.6299559471365646,23.64853569906292
5.64977973568282,23.636563337591294
5.669603524229076,23.62518879457148
5.689427312775331,23.614466713262072
5.709251101321586,23.60444925929447
5.729074889867842,23.595185897052612
5.748898678414098,23.586723176197093
5.768722466960353,23.579104529469067
5.788546255506609,23.572370082870734
5.808370044052864,23.56655647926937
5.82819383259912,23.561696716414126
5.848017621145375,23.55782000028677
5.867841409691631,23.554951614631076
5.887665198237886,23.553112807422647
5.907488986784142,23.552320694946452
5.927312775330397,23.552588184053754
5.9471365638766525,23.553923913062885
5.966960352422908,23.55633221166109
5.986784140969164,23.559813080051175
6.00660792951542,23.5643621874706
6.026431718061675,23.56997089009517
6.04625550660793,23.576626268221933
6.066079295154186,23.584311182510145
6.085903083700441,23.593004348946668
6.105726872246697,23.602680432091585
6.125550660792952,23.613310156055263
6.145374449339208,23.624860432558556
6.1651982378854635,23.63729450533482
6.185022026431718,23.6505721100471
6.204845814977975,23.66464964881671
6.224669603524229,23.67948037838965
6.244493392070486,23.695014610908927
6.264317180616741,23.711199926209254
6.284140969162996,23.727981394509925
6.303964757709252,23.745301808349858
6.323788546255507,23.763101922586607
6.3436123348017635,23.781320701267806
6.363436123348018,23.79989557017762
6.3832599118942746,23.81876267386654
6.403083700440529,23.837857135981146
6.422907488986785,23.85711332173088
6.44273127753304,23.876465101352327
6.462555066079296,23.89584611346143
6.482378854625551,23.91519002722068
6.502202643171807,23.93443080228573
6.5220264317180625,23.953502945541153
6.541850220264318,23.972341763678816
6.561674008810574,23.99088361072203
6.581497797356829,24.00906612964672
6.601321585903085,24.02682848730293
6.62114537444934,24.044111601888616
6.640969162995596,24.060858362280765
6.6607929515418505,24.077013838577116
6.680616740088107,24.092525483251183
6.700440528634362,24.10734332237287
6.720264317180618,24.12142013639043
6.740088105726873,24.134711630016326
6.759911894273129,24.147176590801664
6.779735682819384,24.15877703602401
6.799559471365639,24.169478347552573
6.819383259911895,24.179249394391626
6.83920704845815,24.188062642636602
6.859030837004407,24.195894252611538
6.8788546255506615,24.20272416298619
6.898678414096917,24.2085361617015
6.918502202643173,24.213317943559247
6.938325991189428,24.21706115435906
6.958149779735684,24.2197614214913
6.977973568281939,24.22141837091951
6.997797356828195,24.22203563051013
7.01762114537445,24.22162081969249
7.037444933920705,24.220185525454593
7.0572687224669615,24.217745264707037
7.077092511013216,24.214319433069946
7.096916299559473,24.209931240166743
7.116740088105728,24.20460763153256
7.136563876651983,24.198379197276097
7.156387665198239,24.191280067661918
7.176211453744494,24.18334779581262
7.19603524229075,24.17462322776379
7.215859030837005,24.16515036013946
7.235682819383261,24.154976185755093
7.255506607929516,24.144150527492613
7.275330396475772,24.132725860836615
7.295154185022027,24.12075712550288
7.314977973568283,24.108301526638428
7.334801762114538,24.09541832611874
7.354625550660794,24.08216862451988
7.374449339207049,24.068615134392846
7.394273127753305,24.05482194552116
7.4140969162995605,24.04085428289553
7.433920704845816,24.026778258194277
7.453744493392072,24.01266061561012
7.473568281938327,23.998568472918144
7.493392070484583,23.98456905873166
7.513215859030838,23.970729446939945
7.533039647577093,23.95711628937207
7.552863436123348,23.943795547771725
7.572687224669605,23.930832226208683
7.59251101321586,23.918290105086545
7.612334801762115,23.90623147793556
7.6321585903083715,23.894716892200524
7.651982378854627,23.883804895250538
7.671806167400882,23.87355178684364
7.691629955947137,23.864011379278544
7.711453744493394,23.85523476645714
7.731277533039649,23.847270103060374
7.751101321585904,23.84016239501347
7.7709251101321595,23.833953302376862
7.790748898678416,23.82868095575162
7.81057268722467,23.824379787229887
7.830396475770926,23.821080376854123
7.850220264317182,23.818809315471373
7.870044052863436,23.81758908478519
7.889867841409693,23.81743795531369
7.909691629955948,23.818369902862507
7.929515418502204,23.820394544015166
7.9493392070484585,23.823517091032684
7.969162995594715,23.82773832643673
7.9889867841409705,23.833054597435133
8.008810572687224,23.839457830225584
8.02863436123348,23.846935564096093
8.048458149779737,23.85547100511899
8.068281938325994,23.865043099119227
8.088105726872246,23.875626623484514
8.107929515418503,23.887192297274446
8.12775330396476,23.89970690898352
8.147577092511014,23.913133461215168
8.167400881057269,23.927431331435265
8.187224669603525,23.942556447891967
8.207048458149782,23.958461479716547
8.226872246696036,23.97509604015668
8.246696035242293,23.992406901840187
8.266519823788547,24.010338222923174
8.286343612334802,24.02883178294226
8.306167400881058,24.04782722716647
8.325991189427315,24.067262318228195
8.345814977973568,24.08707319380726
8.365638766519824,24.107194629143965
8.38546255506608,24.127560303166955
8.405286343612337,24.148103067039656
8.42511013215859,24.168755213953553
8.444933920704846,24.189448749025615
8.464757709251103,24.21011565819439
8.484581497797357,24.2306881750477
8.504405286343614,24.251099044559016
8.524229074889869,24.27128178275697
8.544052863436125,24.291170931400323
8.56387665198238,24.310702306782044
8.583700440528636,24.329813241837456
8.60352422907489,24.34844282078403
8.623348017621145,24.366532105571135
8.643171806167402,24.384024353470934
8.662995594713658,24.400865225191072
8.682819383259913,24.4170029829392
8.702643171806168,24.432388677916943
8.722466960352424,24.44697632676712
8.74229074889868,24.460723076540887
8.762114537444935,24.47358935779403
8.78193832599119,24.48553902546138
8.801762114537446,24.496539487194546
8.821585903083701,24.506561818885835
8.841409691629957,24.515580867132094
8.861233480176212,24.523575338426205
8.881057268722468,24.530527874891977
8.900881057268723,24.536425116408036
8.92070484581498,24.541257748992134
8.940528634361234,24.54502053934434
8.960352422907489,24.547712355472306
8.980176211453745,24.549336173346198
9.000000000000002,24.549899069555977
9.019823788546258,24.549412199967396
9.039647577092511,24.54789076439809
9.059471365638768,24.54535395736034
9.079295154185024,24.541824904943283
9.099118942731279,24.537330587934026
9.118942731277533,24.53190175130641
9.13876651982379,24.525572800235427
9.158590308370046,24.518381682828164
9.1784140969163,24.51036975979512
9.198237885462555,24.501581661322255
9.218061674008812,24.492065131442406
9.237885462555067,24.48187086024491
9.257709251101323,24.471052304305445
9.27753303964758,24.459665495763385
9.297356828193834,24.447768840521082
9.317180616740089,24.43542290608936
9.337004405286345,24.42269019965503
9.356828193832602,24.409634936999115
9.376651982378855,24.39632280294955
9.396475770925111,24.38282070410696
9.416299559471367,24.369196514638933
9.436123348017622,24.35551881599366
9.455947136563877,24.341856631439878
9.475770925110133,24.32827915639383
9.49559471365639,24.314855485547476
9.515418502202644,24.30165433786059
9.5352422907489,24.288743780527767
9.555066079295155,24.27619095307256
9.57488986784141,24.26406179275909
9.594713656387666,24.252420762543277
9.614537444933923,24.241330582811184
9.634361233480178,24.230851968170672
9.654185022026432,24.221043370571465
9.674008810572689,24.21196073003228
9.693832599118945,24.20365723424453
9.713656387665198,24.196183088306224
9.733480176211454,24.189585295812215
9.75330396475771,24.183907452489745
9.773127753303967,24.179189553521578
9.792951541850222,24.17546781564033
9.812775330396477,24.172774515011405
9.832599118942733,24.171137841843564
9.852422907488988,24.170581772580856
9.872246696035244,24.171125960434363
9.892070484581499,24.172785644910324
9.911894273127754,24.175571580881424
9.93171806167401,24.179489987634486
9.951541850220266,24.18454251820772
9.971365638766521,24.190726249208577
9.991189427312776,24.198033691179102
10.011013215859032,24.20645281945027
10.030837004405289,24.215967125302903
10.050660792951543,24.22655568713038
10.070484581497798,24.238193261179273
10.090308370044054,24.25085039132995
10.11013215859031,24.264493537270354
10.129955947136565,24.279085220314048
10.14977973568282,24.29458418601981
10.169603524229077,24.310945582683313
10.189427312775331,24.32812115469565
10.209251101321588,24.34605944969541
10.229074889867842,24.3647060383838
10.248898678414099,24.384003745825403
10.268722466960353,24.403892893019638
10.28854625550661,24.424311547500754
10.308370044052865,24.445195781707564
10.32819383259912,24.466479937855055
10.348017621145376,24.488096898042127
10.367841409691632,24.50997835833834
10.387665198237887,24.532055105610066
10.407488986784141,24.554257295870634
10.427312775330398,24.57651473296959
10.447136563876654,24.598757146471893
10.466960352422909,24.620914467619336
10.486784140969164,24.642917102311042
10.50660792951542,24.66469620008717
10.526431718061675,24.68618391815189
10.546255506607931,24.707313679522656
10.566079295154186,24.72802042444662
10.585903083700442,24.748240854279135
10.605726872246697,24.76791366707232
10.625550660792953,24.786979784175813
10.645374449339208,24.8053825672033
10.665198237885463,24.823068024769654
10.685022026431719,24.83998500845263
10.704845814977975,24.85608539748044
