Time (s),Filtered Signal
0.0,-0.006020308392185698
0.03337008452774715,0.261209447372285
0.0667401690554943,0.5104605302584534
0.10011025358324147,0.7144004476347211
0.1334803381109886,0.8353000567471449
0.16685042263873576,0.8346369397227358
0.20022050716648293,0.6903446300090431
0.23359059169423008,0.41308129605822086
0.2669606762219772,0.0518890155156485
0.30033076074972437,-0.31605375656167106
0.3337008452774715,-0.6091381182174381
0.36707092980521866,-0.7689057890641477
0.40044101433296586,-0.7793208041312928
0.433811098860713,-0.6690375209644129
0.46718118338846015,-0.49584929778444586
0.5005512679162073,-0.3207634756363761
0.5339213524439544,-0.1836567959451094
0.5672914369717016,-0.09111072342613599
0.6006615214994487,-0.020728564290186872
0.6340316060271959,0.06167036311785357
0.667401690554943,0.18117954167223205
0.7007717750826902,0.33923475996377334
0.7341418596104373,0.5113310955356439
0.7675119441381845,0.6566506104718424
0.8008820286659317,0.7338670468936097
0.8342521131936789,0.7155963189072597
0.867622197721426,0.5961250155154313
0.9009922822491732,0.3913376194603792
0.9343623667769203,0.13336569634948822
0.9677324513046675,-0.13653902935322032
1.0011025358324146,-0.37492305633879475
1.0344726203601617,-0.5429785887648592
1.0678427048879089,-0.61409618676503
1.101212789415656,-0.5814234507208814
1.1345828739434032,-0.4624749202666272
1.1679529584711503,-0.29705218807329953
1.2013230429988975,-0.13676425969793907
1.2346931275266446,-0.02854466714130866
1.2680632120543918,0.001696790855163051
1.301433296582139,-0.04176111158181377
1.334803381109886,-0.1267856051835252
1.3681734656376332,-0.20649715300916138
1.4015435501653803,-0.23766092519425236
1.4349136346931275,-0.19671565423495363
1.4682837192208746,-0.08711842701850891
1.5016538037486218,0.06432363407260128
1.535023888276369,0.21973014940199462
1.568393972804116,0.34522324357133927
1.6017640573318634,0.42227647973522114
1.6351341418596106,0.4509537540443925
1.6685042263873577,0.4446136697053705
1.7018743109151049,0.4196048612487245
1.735244395442852,0.3855969114966037
1.7686144799705992,0.3415046274151339
1.8019845644983463,0.2788340152382956
1.8353546490260935,0.19026992448556437
1.8687247335538406,0.07846210606495542
1.9020948180815878,-0.040276443559314194
1.935464902609335,-0.14011534589892394
1.968834987137082,-0.19641458994206185
2.002205071664829,-0.19817218683375612
2.0355751561925763,-0.1560753449699406
2.0689452407203235,-0.10158565251587448
2.1023153252480706,-0.07630352136754093
2.1356854097758178,-0.11529817201752479
2.169055494303565,-0.23118911603233513
2.202425578831312,-0.4060223804071034
2.235795663359059,-0.5950813425007359
2.2691657478868064,-0.7418269142886939
2.3025358324145535,-0.7983081341399183
2.3359059169423007,-0.7428169881208844
2.369276001470048,-0.5875057905679748
2.402646085997795,-0.37279633572371496
2.436016170525542,-0.15091455060358983
2.4693862550532892,0.034591623441715326
2.5027563395810364,0.16485268614084939
2.5361264241087835,0.25059379292076517
2.5694965086365307,0.3240091335844461
2.602866593164278,0.4211491171107076
2.636236677692025,0.5624766456744756
2.669606762219772,0.74014550925235
2.7029768467475193,0.9177470570573176
2.7363469312752664,1.042908596759692
2.7697170158030135,1.0675762223560763
2.8030871003307607,0.9675574523232802
2.836457184858508,0.7533138883493231
2.869827269386255,0.46772664928125285
2.903197353914002,0.17182010647987103
2.9365674384417493,-0.07600864286497809
2.9699375229694964,-0.23948485455371488
3.0033076074972436,-0.3155599571749145
3.0366776920249907,-0.33308708539901777
3.070047776552738,-0.33948120187896624
3.103417861080485,-0.3802291853702023
3.136787945608232,-0.47907167528120914
3.1701580301359793,-0.6268506398225399
3.203528114663727,-0.7839242958951328
3.236898199191474,-0.895568730752465
3.270268283719221,-0.9141201437401596
3.3036383682469683,-0.8184418039225366
3.3370084527747155,-0.622387230050456
3.3703785373024626,-0.3689856254372159
3.4037486218302098,-0.11366100042319845
3.437118706357957,0.09547223544835337
3.470488790885704,0.23172709797697033
3.503858875413451,0.2936232718090464
3.5372289599411983,0.2991019789540742
3.5705990444689455,0.274987466917295
3.6039691289966926,0.24711029783869695
3.63733921352444,0.2341559925429257
3.670709298052187,0.2452439144030127
3.704079382579934,0.27967644076987036
3.7374494671076812,0.32780424288831833
3.7708195516354284,0.3733039187523196
3.8041896361631755,0.3975935456187223
3.8375597206909227,0.3859353242680802
3.87092980521867,0.33299629374042244
3.904299889746417,0.24502218983769378
3.937669974274164,0.13721769292454822
3.9710400588019112,0.027581628409883357
4.004410143329658,-0.0695681347745111
4.0377802278574055,-0.14720564674461045
4.071150312385153,-0.2051035765528764
4.1045203969129,-0.2463721438651147
4.137890481440647,-0.2734978032380131
4.171260565968394,-0.28609984702245234
4.204630650496141,-0.2813052576442816
4.238000735023888,-0.25617968977001554
4.2713708195516356,-0.21071949202615106
4.304740904079383,-0.14972008907181195
4.33811098860713,-0.0823166902083523
4.371481073134877,-0.018979771139890047
4.404851157662624,0.03301614527678916
4.438221242190371,0.07358834508143387
4.471591326718118,0.110965734058835
4.504961411245866,0.15848872740499484
4.538331495773613,0.22760629447165479
4.57170158030136,0.31982714036587667
4.605071664829107,0.4216829909568216
4.638441749356854,0.5060956637895643
4.671811833884601,0.5408048893572608
4.7051819184123485,0.5008947580732084
4.738552002940096,0.37995431068734836
4.771922087467843,0.19463121808160427
4.80529217199559,-0.019654391926583095
4.838662256523337,-0.21992915740812238
4.872032341051084,-0.368948414027765
4.905402425578831,-0.44534705197316976
4.9387725101065785,-0.44757663177072615
4.972142594634326,-0.3915776779207978
5.005512679162073,-0.3043933950501178
5.03888276368982,-0.2165515213807665
5.072252848217567,-0.15527732777268113
5.105622932745314,-0.13938504060163498
5.138993017273061,-0.1759241059992012
5.1723631018008085,-0.258653836917735
5.205733186328556,-0.3688192252777538
5.239103270856303,-0.4787859000270679
5.27247335538405,-0.5583938567070597
5.305843439911797,-0.5826304730152508
5.339213524439544,-0.5382287694896679
5.372583608967291,-0.42687599672174886
5.4059536934950385,-0.26399592992410975
5.439323778022786,-0.0738435178252298
5.472693862550533,0.11708895941743715
5.50606394707828,0.28619292373905286
5.539434031606027,0.4189800654610782
5.572804116133774,0.5110005432398591
5.606174200661521,0.5676048222156619
5.6395442851892685,0.6017799539649454
5.672914369717016,0.6301487497352742
5.706284454244763,0.6673511816299345
5.73965453877251,0.719714320465643
5.773024623300257,0.7801639494170616
5.806394707828004,0.8270244760458224
5.839764792355751,0.8287990777897585
5.873134876883499,0.7548130953362187
5.906504961411246,0.5884363960798331
5.939875045938993,0.3372258739413695
5.97324513046674,0.034580625252336475
6.006615214994487,-0.2690859174042072
6.039985299522234,-0.5225688167123422
6.073355384049981,-0.6904770518598545
6.106725468577729,-0.7628464778624724
6.140095553105476,-0.7539363825461414
6.173465637633223,-0.69187746949276
6.20683572216097,-0.6052040314819398
6.240205806688717,-0.5132069387797322
6.273575891216464,-0.42415928905219874
6.3069459757442115,-0.34056742310852417
6.340316060271959,-0.26653655619455474
6.373686144799706,-0.21144436465439048
6.407056229327454,-0.18687057987508274
6.440426313855201,-0.19846077605234325
6.473796398382948,-0.23820927390838825
6.507166482910695,-0.2830880891131677
6.540536567438442,-0.3025312684763518
6.5739066519661895,-0.27187894960628933
6.607276736493937,-0.18473896073918805
6.640646821021684,-0.057026570133535605
6.674016905549431,0.08037792324926905
6.707386990077178,0.19706856675597656
6.740757074604925,0.278469470167837
6.774127159132672,0.3324271266027858
6.8074972436604195,0.3828224977304693
6.840867328188167,0.45317556848221996
6.874237412715914,0.5491917037967031
6.907607497243661,0.6504319741466965
6.940977581771408,0.7167336841564577
6.974347666299155,0.7069380488878959
7.007717750826902,0.6003939978563966
7.0410878353546495,0.4097324883732702
7.074457919882397,0.17780356838031322
7.107828004410144,-0.039966420400244305
7.141198088937891,-0.1988462430726906
7.174568173465638,-0.28192122842039774
7.207938257993385,-0.3027863652981491
7.241308342521132,-0.29337635111058485
7.27467842704888,-0.28437871378653223
7.308048511576627,-0.2892938040637716
7.341418596104374,-0.3006140710978113
7.374788680632121,-0.29931683806181986
7.408158765159868,-0.27108899338358694
7.441528849687615,-0.21891931984780427
7.4748989342153624,-0.16407528018965276
7.50826901874311,-0.13457288862630126
7.541639103270857,-0.14783762991860938
7.575009187798604,-0.19789314967108906
7.608379272326351,-0.2550305799149817
7.641749356854098,-0.27892583640341667
7.675119441381845,-0.2385646232619144
7.7084895259095925,-0.1283516309042877
7.74185961043734,0.028365840117287607
7.775229694965087,0.19039933299173392
7.808599779492834,0.31850530147253076
7.841969864020581,0.39309676733715104
7.875339948548328,0.420272962704645
7.908710033076075,0.4232014514773564
7.9420801176038225,0.4243233599315459
7.97545020213157,0.42918999078428643
8.008820286659317,0.42179213008845456
8.042190371187063,0.3745010591005367
8.075560455714811,0.26710528106195075
8.108930540242557,0.10389061089199923
8.142300624770305,-0.08156324568328265
8.175670709298052,-0.23764366262377018
8.2090407938258,-0.31710843407722256
8.242410878353546,-0.2996644629522937
8.275780962881294,-0.20349674944649765
8.30915104740904,-0.07994953449176237
8.342521131936788,0.006399412246773583
8.375891216464534,0.00350098279677081
8.409261300992283,-0.10743455834390381
8.442631385520029,-0.30432957606695893
8.476001470047777,-0.532022233718884
8.509371554575523,-0.7216642577191733
8.542741639103271,-0.8140666721311411
8.57611172363102,-0.778656055920935
8.609481808158765,-0.6219373275370674
8.642851892686513,-0.38330002372105415
8.67622197721426,-0.1202290156479128
8.709592061742008,0.11169202314816516
8.742962146269754,0.2769599298698876
8.776332230797502,0.37002694789747914
8.809702315325248,0.41321648971690533
8.843072399852996,0.44356966985020685
8.876442484380743,0.4941871070188821
8.90981256890849,0.5782340669451013
8.943182653436237,0.6826800381979464
8.976552737963985,0.7742430860772421
9.009922822491731,0.8141677550866491
9.04329290701948,0.7745173315427945
9.076662991547225,0.6486902373763149
9.110033076074973,0.4525885643048206
9.14340316060272,0.2178359179689792
9.176773245130468,-0.01830930685410441
9.210143329658214,-0.2217532476714481
9.243513414185962,-0.36710218973009795
9.276883498713708,-0.44075046427978765
9.310253583241456,-0.44311280399241826
9.343623667769203,-0.39002715224123474
9.37699375229695,-0.31121397032147624
9.410363836824697,-0.24336994379595128
9.443733921352445,-0.21800732956944305
9.477104005880191,-0.24815680008989363
9.51047409040794,-0.32064821142437455
9.543844174935685,-0.3995194644379531
9.577214259463434,-0.4410992449505391
9.61058434399118,-0.41491943329478564
9.643954428518928,-0.32047727381488644
9.677324513046674,-0.1906901498105954
9.710694597574422,-0.07878528566158183
9.744064682102168,-0.03363812162619866
9.777434766629916,-0.0750001876762625
9.810804851157663,-0.18107878782362027
9.84417493568541,-0.29556683326284094
9.877545020213157,-0.35179379927376764
9.910915104740905,-0.3028582139244516
9.944285189268651,-0.14312790216922566
9.9776552737964,0.08949222364867042
10.011025358324146,0.33146304308542174
10.044395442851894,0.522373510411848
10.07776552737964,0.6299588936797643
10.111135611907388,0.6592732001551979
10.144505696435134,0.6426714579823073
10.177875780962882,0.6173272505261588
10.211245865490628,0.6029968060525864
10.244615950018376,0.5917767483806181
10.277986034546123,0.5546261181652544
10.31135611907387,0.46034476508442984
10.344726203601617,0.29624806497939327
10.378096288129365,0.07916236087559234
10.411466372657111,-0.14925433695256993
10.44483645718486,-0.34043087299178426
10.478206541712606,-0.4606266329650159
10.511576626240354,-0.5052055016909072
10.5449467107681,-0.4982106050060256
10.578316795295848,-0.4777319871482931
10.611686879823594,-0.47486389651858574
10.645056964351342,-0.4972316127586396
10.678427048879088,-0.5255821449761341
10.711797133406836,-0.5250670911015085
10.745167217934583,-0.46511170068477364
10.77853730246233,-0.33722196062986476
10.811907386990077,-0.16123370727286224
10.845277471517825,0.023191720523320886
10.878647556045571,0.17503065286029956
10.91201764057332,0.27030038462770684
10.945387725101066,0.31077129354805144
10.978757809628814,0.31895936844378836
11.01212789415656,0.32290724859792036
11.045497978684308,0.33956108040639965
11.078868063212054,0.36587686514604056
11.112238147739802,0.38219535528976983
11.145608232267548,0.36555493212129225
11.178978316795297,0.3052150814125545
11.212348401323043,0.21159305015604143
11.24571848585079,0.11353765816415608
11.279088570378537,0.04524844617263732
11.312458654906285,0.029686501892653108
11.345828739434031,0.06707209040832786
11.37919882396178,0.1342231498565778
11.412568908489526,0.19475126778321386
11.445938993017274,0.21466497132957674
11.47930907754502,0.17559613539950103
11.512679162072768,0.07969425349912128
11.546049246600514,-0.05502721219888266
11.579419331128262,-0.20518186309427483
11.612789415656009,-0.35214252894391906
11.646159500183757,-0.4866711650684571
11.679529584711503,-0.6065657854207385
11.71289966923925,-0.7098566724426207
11.746269753766997,-0.7882652697947063
11.779639838294745,-0.8250900267015021
11.813009922822491,-0.7990801808681168
11.84638000735024,-0.6927885213805529
11.879750091877986,-0.5018203316210043
11.913120176405734,-0.2409744441467031
11.94649026093348,0.05563995413458132
11.979860345461228,0.34134779290808004
12.013230429988974,0.5688693629362296
12.046600514516722,0.7036785317087071
12.079970599044469,0.7339583351131441
12.113340683572217,0.6732890237190348
12.146710768099963,0.5549639083523248
12.180080852627711,0.420253036983252
12.213450937155457,0.30533937187407273
12.246821021683205,0.23185141390736613
12.280191106210951,0.20392572974426032
12.3135611907387,0.2116784714514337
12.346931275266446,0.2383789007610124
12.380301359794194,0.2676326289167201
12.41367144432194,0.2877323682834649
12.447041528849688,0.292332076261061
12.480411613377434,0.27856441052614095
12.513781697905182,0.24465431020204312
12.547151782432929,0.18872332608321457
12.580521866960677,0.10935406000568648
12.613891951488423,0.007405235679354744
12.647262036016171,-0.11197019333803894
12.680632120543917,-0.23817327617505168
12.714002205071665,-0.3556960092676937
12.747372289599411,-0.4467551286860131
12.78074237412716,-0.49577958669100286
12.814112458654908,-0.4946487850101209
12.847482543182654,-0.4468263410695805
12.880852627710402,-0.36837197975216157
12.914222712238148,-0.2845712216352562
12.947592796765896,-0.22250334912929612
12.980962881293642,-0.20169911778071645
13.01433296582139,-0.2262787268359603
13.047703050349137,-0.2818962818909226
13.081073134876885,-0.33926590503375365
13.114443219404631,-0.36352156533774577
13.147813303932379,-0.32621351965559703
13.181183388460125,-0.21550105401400685
13.214553472987873,-0.04073568901227562
13.24792355751562,0.1700566150881281
13.281293642043368,0.37837547493418333
13.314663726571114,0.5456646882102975
13.348033811098862,0.6422920843817247
13.381403895626608,0.6529353645153353
13.414773980154356,0.5782064366819029
13.448144064682102,0.4334655139258722
13.48151414920985,0.24559745460089163
13.514884233737597,0.04783746469735082
13.548254318265345,-0.1272559291052133
13.581624402793091,-0.25546453562521887
13.614994487320839,-0.3266278134500755
13.648364571848585,-0.34564257409115756
13.681734656376333,-0.327700343650317
13.71510474090408,-0.28965653112312423
13.748474825431828,-0.24179003291869663
13.781844909959574,-0.18432622525265624
13.815214994487322,-0.11059918540928168
13.848585079015068,-0.014946764440252067
13.881955163542816,0.09938421021112398
13.915325248070562,0.21714866138350666
13.94869533259831,0.31494176975075105
13.982065417126057,0.37016523542451907
14.015435501653805,0.370527801589081
14.048805586181551,0.31936502788443744
14.082175670709299,0.2344830302655687
14.115545755237045,0.14159093971267803
14.148915839764793,0.06574193441372345
14.18228592429254,0.024449785405583745
14.215656008820288,0.024520310632635035
14.249026093348034,0.06237125903680318
14.282396177875782,0.1261397658396041
14.315766262403528,0.197979942324771
14.349136346931276,0.25629870438309243
14.382506431459023,0.2789940748323419
14.41587651598677,0.2487191409266882
14.449246600514517,0.1594919175044862
14.482616685042265,0.021764327738513032
14.515986769570011,-0.13773823287033718
14.54935685409776,-0.2832991149949527
14.582726938625505,-0.3827483359433694
14.616097023153253,-0.41993005938083977
14.649467107681,-0.40100557894151173
14.682837192208748,-0.3512253914810872
14.716207276736494,-0.3035767182744514
14.749577361264242,-0.28474503367808573
14.782947445791988,-0.304840393332234
14.816317530319736,-0.3549886387395755
14.849687614847483,-0.4128064376027329
14.88305769937523,-0.452332934985605
14.916427783902977,-0.4537744152352343
14.949797868430725,-0.40952201688580436
14.983167952958471,-0.32522072485590475
15.01653803748622,-0.216784439814174
15.049908122013965,-0.1052485112550874
15.083278206541713,-0.011153968489943489
15.11664829106946,0.05061692339574449
15.150018375597208,0.07516421577755318
15.183388460124954,0.0704785658616185
15.216758544652702,0.057691141438257404
15.250128629180448,0.06711000874737483
15.283498713708196,0.1294109289214696
15.316868798235943,0.2636519921674912
15.35023888276369,0.4664331097167277
15.383608967291437,0.7076971239817054
15.416979051819185,0.9369125858828175
15.450349136346931,1.0988566634508494
15.48371922087468,1.1530631390362631
15.517089305402425,1.088257118491711
15.550459389930174,0.9248102930093827
15.58382947445792,0.7039674855004833
15.617199558985668,0.469352844872939
15.650569643513414,0.2502053855343047
15.683939728041162,0.054514034130220136
15.717309812568908,-0.12562661611323717
15.750679897096656,-0.3010814354571139
15.784049981624403,-0.47370055145951906
15.81742006615215,-0.6324244243737499
15.850790150679897,-0.7589742656146391
15.884160235207645,-0.8385645965279365
15.917530319735391,-0.8683696353161718
15.95090040426314,-0.8585417634140923
15.984270488790886,-0.825671481074185
16.017640573318634,-0.7832091239382044
16.05101065784638,-0.7347383136525644
16.084380742374126,-0.6736769551559143
16.117750826901876,-0.5888770318480865
16.151120911429622,-0.4723842140288366
16.18449099595737,-0.32500590861410433
16.217861080485115,-0.15718863241133496
16.251231165012864,0.014516549167521091
16.28460124954061,0.17314107218434172
16.317971334068357,0.3064981444103633
16.351341418596103,0.41009071176962186
16.384711503123853,0.4870494098083954
16.4180815876516,0.5452587378602038
16.451451672179346,0.5924949834740271
16.484821756707092,0.6312143454044074
16.51819184123484,0.6553884175547458
16.551561925762588,0.651657176326568
16.584932010290334,0.6053974102454978
16.61830209481808,0.5095417040086487
16.65167217934583,0.37174626109072373
16.685042263873576,0.21548687430392388
16.718412348401323,0.07329371276543883
16.75178243292907,-0.0256423702873802
16.78515251745682,-0.06801600289773617
16.818522601984565,-0.06294654683876978
16.85189268651231,-0.038722316068864934
16.885262771040058,-0.030445255730499027
16.918632855567807,-0.06388446563207341
16.952002940095554,-0.1432884949333229
16.9853730246233,-0.24956347268647905
17.018743109151046,-0.3502265692042109
17.052113193678796,-0.41619248157988686
17.085483278206542,-0.4363259476195956
17.11885336273429,-0.4215739008927958
17.15222344726204,-0.39632187273315
17.185593531789785,-0.3821366000002342
17.21896361631753,-0.38365567187278354
17.252333700845277,-0.38510930408223887
17.285703785373027,-0.359517482290962
