Time (s),Filtered Signal
0.0,-0.0009470811779011189
0.03337008452774715,-0.12195651330032214
0.0667401690554943,-0.27470499790380487
0.10011025358324147,-0.4672084809684054
0.1334803381109886,-0.670654845135323
0.16685042263873576,-0.8247537972833177
0.20022050716648293,-0.8596738497255416
0.23359059169423008,-0.7258477262441563
0.2669606762219772,-0.41929597968222826
0.30033076074972437,0.008613437411674238
0.3337008452774715,0.4624055313016467
0.36707092980521866,0.8320623956893864
0.40044101433296586,1.030486533899439
0.433811098860713,1.0242188505580214
0.46718118338846015,0.8444729280299083
0.5005512679162073,0.5732905743373714
0.5339213524439544,0.31037966428994157
0.5672914369717016,0.1348277333860892
0.6006615214994487,0.07792070057858899
0.6340316060271959,0.11767929918710207
0.667401690554943,0.19550582588069448
0.7007717750826902,0.24575806454030336
0.7341418596104373,0.2245007645338325
0.7675119441381845,0.12549575684086675
0.8008820286659317,-0.021977772068412477
0.8342521131936789,-0.17083373289896717
0.867622197721426,-0.280385487215945
0.9009922822491732,-0.3355415866638951
0.9343623667769203,-0.351915207551644
0.9677324513046675,-0.3643843496537475
1.0011025358324146,-0.4048071332690673
1.0344726203601617,-0.4804720579150717
1.0678427048879089,-0.5651670580909621
1.101212789415656,-0.6087841059005664
1.1345828739434032,-0.5618437548749042
1.1679529584711503,-0.40315482925711865
1.2013230429988975,-0.15649312074009047
1.2346931275266446,0.11288650642905726
1.2680632120543918,0.32141430995341214
1.301433296582139,0.4001563141096747
1.334803381109886,0.32319148751059323
1.3681734656376332,0.11934242378079586
1.4015435501653803,-0.1373620710942207
1.4349136346931275,-0.3542346056210268
1.4682837192208746,-0.45277748533784345
1.5016538037486218,-0.39543723024929667
1.535023888276369,-0.1970613425311623
1.568393972804116,0.08192549420540964
1.6017640573318634,0.3570921487980189
1.6351341418596106,0.5482872143448081
1.6685042263873577,0.6051853180722154
1.7018743109151049,0.5221202337273202
1.735244395442852,0.3378247534756402
1.7686144799705992,0.12044961710220081
1.8019845644983463,-0.05696442548272929
1.8353546490260935,-0.1419434723742732
1.8687247335538406,-0.11970909691000761
1.9020948180815878,-0.015620852069610131
1.935464902609335,0.11771167874358307
1.968834987137082,0.22301032787223665
2.002205071664829,0.2609812037836534
2.0355751561925763,0.22371365208291916
2.0689452407203235,0.13399137186693102
2.1023153252480706,0.0321435063591508
2.1356854097758178,-0.0426730598383991
2.169055494303565,-0.06820007922726426
2.202425578831312,-0.04561287956903851
2.235795663359059,0.004505596973447323
2.2691657478868064,0.05336698756132391
2.3025358324145535,0.07645979835626247
2.3359059169423007,0.06194577178115327
2.369276001470048,0.012436820509592337
2.402646085997795,-0.058937008417988344
2.436016170525542,-0.134924793126549
2.4693862550532892,-0.19952020341884072
2.5027563395810364,-0.24046616491556072
2.5361264241087835,-0.24948607451203383
2.5694965086365307,-0.2224001808736688
2.602866593164278,-0.16091295978746828
2.636236677692025,-0.07572603248000245
2.669606762219772,0.011722006485911365
2.7029768467475193,0.07219923916735714
2.7363469312752664,0.07753971162329236
2.7697170158030135,0.012853119964507371
2.8030871003307607,-0.11357636673473182
2.836457184858508,-0.2685215817243184
2.869827269386255,-0.40273540431637367
2.903197353914002,-0.46805990120586116
2.9365674384417493,-0.4359936906013193
2.9699375229694964,-0.30977174294675514
3.0033076074972436,-0.124409658117249
3.0366776920249907,0.0659058031511052
3.070047776552738,0.2083833740852895
3.103417861080485,0.27198051649628113
3.136787945608232,0.2591756944122706
3.1701580301359793,0.20404931326076511
3.203528114663727,0.1571345427224217
3.236898199191474,0.16321117181531467
3.270268283719221,0.24152903265363715
3.3036383682469683,0.37705541251993446
3.3370084527747155,0.5263289756705927
3.3703785373024626,0.634731011872792
3.4037486218302098,0.6570154212867741
3.437118706357957,0.5723892709353074
3.470488790885704,0.3892361672675885
3.503858875413451,0.14005020718473765
3.5372289599411983,-0.12904481143134705
3.5705990444689455,-0.3693945381018577
3.6039691289966926,-0.5388823890564831
3.63733921352444,-0.6087138500037527
3.670709298052187,-0.5684507483935295
3.704079382579934,-0.42892464406852443
3.7374494671076812,-0.22150721628968856
3.7708195516354284,0.007634142404882519
3.8041896361631755,0.20791478508432257
3.8375597206909227,0.3367283200921296
3.87092980521867,0.37002307816256313
3.904299889746417,0.30769775228551355
3.937669974274164,0.17217556719640345
3.9710400588019112,0.0005926356689534431
4.004410143329658,-0.16711317916283688
4.0377802278574055,-0.3005274745466104
4.071150312385153,-0.3872210634267219
4.1045203969129,-0.43392850128740945
4.137890481440647,-0.459660002207491
4.171260565968394,-0.48361114693253465
4.204630650496141,-0.513543802984678
4.238000735023888,-0.5404341654860093
4.2713708195516356,-0.5421614961004501
4.304740904079383,-0.49433075147645206
4.33811098860713,-0.3826152499627318
4.371481073134877,-0.21039676136732086
4.404851157662624,0.0017656044184602025
4.438221242190371,0.22390765696406256
4.471591326718118,0.42724929232120124
4.504961411245866,0.5923844130498552
4.538331495773613,0.7118528062347295
4.57170158030136,0.7872116565582418
4.605071664829107,0.8234388798795842
4.638441749356854,0.8242641122066015
4.671811833884601,0.7907456141748909
4.7051819184123485,0.7230919277314403
4.738552002940096,0.6237804204537195
4.771922087467843,0.4995049899699041
4.80529217199559,0.3605587305296539
4.838662256523337,0.21812518455391125
4.872032341051084,0.08130778222879559
4.905402425578831,-0.0443780160846463
4.9387725101065785,-0.15673213503923533
4.972142594634326,-0.2559771143325766
5.005512679162073,-0.3446319244146724
5.03888276368982,-0.4282643296966123
5.072252848217567,-0.5155708885392358
5.105622932745314,-0.6157702523944635
5.138993017273061,-0.7327839024989368
5.1723631018008085,-0.8583649001955571
5.205733186328556,-0.968387943525466
5.239103270856303,-1.0262208641260384
5.27247335538405,-0.9940645699888606
5.305843439911797,-0.8487419006959401
5.339213524439544,-0.5951025781074787
5.372583608967291,-0.2701195006892839
5.4059536934950385,0.06567291115750092
5.439323778022786,0.3471119038468556
5.472693862550533,0.5265191085602211
5.50606394707828,0.59004645265593
5.539434031606027,0.5615155890142799
5.572804116133774,0.492125953291102
5.606174200661521,0.44017318888722085
5.6395442851892685,0.4488862661840181
5.672914369717016,0.5309538751807853
5.706284454244763,0.6650710584988204
5.73965453877251,0.8045139057726985
5.773024623300257,0.893122389748336
5.806394707828004,0.8824335773843628
5.839764792355751,0.7452833993351463
5.873134876883499,0.4840228762718189
5.906504961411246,0.13309926260456018
5.939875045938993,-0.24470242920809737
5.97324513046674,-0.5700176547508572
6.006615214994487,-0.7672349915087062
6.039985299522234,-0.7898264885778687
6.073355384049981,-0.6418415927028003
6.106725468577729,-0.3843624958656814
6.140095553105476,-0.11944103832415043
6.173465637633223,0.046417588681599155
6.20683572216097,0.04608222848721713
6.240205806688717,-0.11659997728419627
6.273575891216464,-0.36410069948539536
6.3069459757442115,-0.5760235523220062
6.340316060271959,-0.6419646044579144
6.373686144799706,-0.5128793756940473
6.407056229327454,-0.2261571443263429
6.440426313855201,0.10907755588961258
6.473796398382948,0.36081586321791
6.507166482910695,0.4341511357795073
6.540536567438442,0.3131414439951431
6.5739066519661895,0.06425787561001622
6.607276736493937,-0.19894095087183447
6.640646821021684,-0.37019101980829655
6.674016905549431,-0.3953433250713478
6.707386990077178,-0.28618097118348135
6.740757074604925,-0.10036175977035389
6.774127159132672,0.0967283424713847
6.8074972436604195,0.26446503424599876
6.840867328188167,0.3965691245221969
6.874237412715914,0.506444740216216
6.907607497243661,0.6020276037399425
6.940977581771408,0.6691572209920892
6.974347666299155,0.6753819085136721
7.007717750826902,0.5917628224606405
7.0410878353546495,0.41796198668355566
7.074457919882397,0.1932766688342092
7.107828004410144,-0.015359884047352595
7.141198088937891,-0.14348176388054515
7.174568173465638,-0.1613948053697129
7.207938257993385,-0.09102319028195782
7.241308342521132,0.002296927309158652
7.27467842704888,0.03966441068600973
7.308048511576627,-0.03415947242232881
7.341418596104374,-0.22375758238039758
7.374788680632121,-0.47869460920440776
7.408158765159868,-0.7135508828821601
7.441528849687615,-0.8433624586957815
7.4748989342153624,-0.8192473159284989
7.50826901874311,-0.6493624230442299
7.541639103270857,-0.39651132654891563
7.575009187798604,-0.15304246293132584
7.608379272326351,-0.002788377134883282
7.641749356854098,0.014545290640664732
7.675119441381845,-0.07866517582477323
7.7084895259095925,-0.20623272011689503
7.74185961043734,-0.2702892595739462
7.775229694965087,-0.19421317210477232
7.808599779492834,0.04208499688452991
7.841969864020581,0.3900943097987182
7.875339948548328,0.7493593642699798
7.908710033076075,1.0058049586734554
7.9420801176038225,1.075584006556451
7.97545020213157,0.9367094503834159
8.008820286659317,0.636712008503245
8.042190371187063,0.27465294791141603
8.075560455714811,-0.03467006388645483
8.108930540242557,-0.20096099203753254
8.142300624770305,-0.18925142476977433
8.175670709298052,-0.031213953016264312
8.2090407938258,0.1866789790807971
8.242410878353546,0.3543673451866597
8.275780962881294,0.3785229724946388
8.30915104740904,0.21814282763786727
8.342521131936788,-0.09761969443935942
8.375891216464534,-0.4769926576817747
8.409261300992283,-0.7973276620933807
8.442631385520029,-0.9505199026536504
8.476001470047777,-0.8852333642302498
8.509371554575523,-0.6288723548078096
8.542741639103271,-0.27921034687466045
8.57611172363102,0.03249210929603504
8.609481808158765,0.19299749775584985
8.642851892686513,0.15248224610320416
8.67622197721426,-0.05527449175978264
8.709592061742008,-0.32699391897037966
8.742962146269754,-0.5329100439336453
8.776332230797502,-0.5705337938727677
8.809702315325248,-0.4059415912633322
8.843072399852996,-0.0848880549676925
8.876442484380743,0.29002057198625336
8.90981256890849,0.6041997410484713
8.943182653436237,0.7765964887276327
8.976552737963985,0.7857216517190992
9.009922822491731,0.6670568015986514
9.04329290701948,0.4871339879655999
9.076662991547225,0.3098998782411535
9.110033076074973,0.17232657553438901
9.14340316060272,0.07891336922971166
9.176773245130468,0.013526670270959697
9.210143329658214,-0.04172444184525294
9.243513414185962,-0.09280642021493786
9.276883498713708,-0.132336884835591
9.310253583241456,-0.1488899707066096
9.343623667769203,-0.13881653525623977
9.37699375229695,-0.11146679065816205
9.410363836824697,-0.08381525366162383
9.443733921352445,-0.068127864562457
9.477104005880191,-0.06149461990529596
9.51047409040794,-0.04540180117480422
9.543844174935685,0.002648347059492651
9.577214259463434,0.09136936311344018
9.61058434399118,0.20243702143840406
9.643954428518928,0.29100740038403383
9.677324513046674,0.3022626858598216
9.710694597574422,0.197412455871778
9.744064682102168,-0.02328751936126779
9.777434766629916,-0.3126042121999808
9.810804851157663,-0.5890151215947167
9.84417493568541,-0.7658729324966498
9.877545020213157,-0.7848827647231993
9.910915104740905,-0.6393227819929216
9.944285189268651,-0.37683466359032447
9.9776552737964,-0.08066151913467025
10.011025358324146,0.1623988028047631
10.044395442851894,0.2936515326715699
10.07776552737964,0.3009688649002126
10.111135611907388,0.21766589279399293
10.144505696435134,0.1040863811997378
10.177875780962882,0.021088128924290482
10.211245865490628,0.006851715297618848
10.244615950018376,0.06563434976634491
10.277986034546123,0.17118753540513537
10.31135611907387,0.28148009146362746
10.344726203601617,0.35750693675516454
10.378096288129365,0.3783374024551012
10.411466372657111,0.3468761415302586
10.44483645718486,0.2849584646192664
10.478206541712606,0.22081330802543223
10.511576626240354,0.17489986089591328
10.5449467107681,0.15041655837527676
10.578316795295848,0.13234411475328323
10.611686879823594,0.09501645889757303
10.645056964351342,0.014764989729910845
10.678427048879088,-0.11756744292577241
10.711797133406836,-0.289238115133012
10.745167217934583,-0.4665369959413373
10.77853730246233,-0.6043378357207193
10.811907386990077,-0.661231125651741
10.845277471517825,-0.6145609319324252
10.878647556045571,-0.46913814771551443
10.91201764057332,-0.2557165587100925
10.945387725101066,-0.019762886876458097
10.978757809628814,0.19451728059282034
11.01212789415656,0.35786787509251095
11.045497978684308,0.4617489585635925
11.078868063212054,0.5146194587018962
11.112238147739802,0.5317842234128737
11.145608232267548,0.5246668135179184
11.178978316795297,0.49502001846484806
11.212348401323043,0.43637361590836865
11.24571848585079,0.3408299073293287
11.279088570378537,0.2066137265071665
11.312458654906285,0.04206076120137824
11.345828739434031,-0.135517859372274
11.37919882396178,-0.30454353231657233
11.412568908489526,-0.44451811723948226
11.445938993017274,-0.5399112821557428
11.47930907754502,-0.582237697150405
11.512679162072768,-0.5709275341739136
11.546049246600514,-0.513193992564665
11.579419331128262,-0.4223123908147004
11.612789415656009,-0.31389946636630695
11.646159500183757,-0.20119308999085703
11.679529584711503,-0.09179343284939032
11.71289966923925,0.011760752798264223
11.746269753766997,0.1073539914258096
11.779639838294745,0.18739170746587658
11.813009922822491,0.23620593157912234
11.84638000735024,0.2342706015287349
11.879750091877986,0.16891937501757254
11.913120176405734,0.04667726090356891
11.94649026093348,-0.10021263595605967
11.979860345461228,-0.218960277075812
12.013230429988974,-0.25362296330988354
12.046600514516722,-0.16860351651618985
12.079970599044469,0.032215066875496086
12.113340683572217,0.3006305121639155
12.146710768099963,0.5579016855388229
12.180080852627711,0.72313193819133
12.213450937155457,0.7449817462842013
12.246821021683205,0.6228604328000055
12.280191106210951,0.407528527106813
12.3135611907387,0.1799165080549669
12.346931275266446,0.017000654469445084
12.380301359794194,-0.040089414073963596
12.41367144432194,-0.0012498659337084764
12.447041528849688,0.08093894150285326
12.480411613377434,0.13875855133578072
12.513781697905182,0.12256833128763324
12.547151782432929,0.02345575841310547
12.580521866960677,-0.12552011183623313
12.613891951488423,-0.26931387886074676
12.647262036016171,-0.36088932977524446
12.680632120543917,-0.3849176418103447
12.714002205071665,-0.36267852333734235
12.747372289599411,-0.3363290987025067
12.78074237412716,-0.3421921743084657
12.814112458654908,-0.38852972957128223
12.847482543182654,-0.4502788978168369
12.880852627710402,-0.4833734960759609
12.914222712238148,-0.4502539777585724
12.947592796765896,-0.3421189650965027
12.980962881293642,-0.18558067023852784
13.01433296582139,-0.030238195645364226
13.047703050349137,0.07584684550232847
13.081073134876885,0.10956704156614938
13.114443219404631,0.08313894518963783
13.147813303932379,0.03705780652410008
13.181183388460125,0.020449323981995386
13.214553472987873,0.06920895981630605
13.24792355751562,0.19171814718883431
13.281293642043368,0.366504287353509
13.314663726571114,0.5499884207495874
13.348033811098862,0.6892234251216368
13.381403895626608,0.7352929050841022
13.414773980154356,0.6556973899708823
13.448144064682102,0.44534757718015416
13.48151414920985,0.13423275613690738
13.514884233737597,-0.21281645727797033
13.548254318265345,-0.5089883690709355
13.581624402793091,-0.6711051587687148
13.614994487320839,-0.6504565733699563
13.648364571848585,-0.4554725055824064
13.681734656376333,-0.15364150018899864
13.71510474090408,0.1514448742942989
13.748474825431828,0.3598152861155958
13.781844909959574,0.41430519339707805
13.815214994487322,0.3212224718369921
13.848585079015068,0.1431089526832736
13.881955163542816,-0.0323740846067945
13.915325248070562,-0.13223584653732126
13.94869533259831,-0.12808196815337172
13.982065417126057,-0.043352747625367644
14.015435501653805,0.0635909830727196
14.048805586181551,0.13083291803286762
14.082175670709299,0.12317902311347266
14.115545755237045,0.04744178729790364
14.148915839764793,-0.05345789749305904
14.18228592429254,-0.12378147267558769
14.215656008820288,-0.12404685627540434
14.249026093348034,-0.05188306744145355
14.282396177875782,0.05536442844150751
14.315766262403528,0.13771116235114977
14.349136346931276,0.14132694842228796
14.382506431459023,0.045242413739826945
14.41587651598677,-0.12713970075129205
14.449246600514517,-0.3176058673014504
14.482616685042265,-0.4591627926758591
14.515986769570011,-0.5054854357878892
14.54935685409776,-0.4489580177602812
14.582726938625505,-0.3186892315819863
14.616097023153253,-0.16089050531499038
14.649467107681,-0.013665169855478347
14.682837192208748,0.10906351383659436
14.716207276736494,0.2157298935604852
14.749577361264242,0.3198136896487037
14.782947445791988,0.41912745392722484
14.816317530319736,0.48613067131994014
14.849687614847483,0.4772053313817623
14.88305769937523,0.3573149770020102
14.916427783902977,0.1266703767109912
14.949797868430725,-0.1664283898664912
14.983167952958471,-0.4361066374773685
15.01653803748622,-0.5905975424380607
15.049908122013965,-0.571761824888591
15.083278206541713,-0.38407818416601136
15.11664829106946,-0.09829584333591944
15.150018375597208,0.17434961647729505
15.183388460124954,0.3281419819344489
15.216758544652702,0.30974847526136073
15.250128629180448,0.14440960120565688
15.283498713708196,-0.07238681828218105
15.316868798235943,-0.21640566758483137
15.35023888276369,-0.19179955161848078
15.383608967291437,0.02268371136738781
15.416979051819185,0.36119471496979577
15.450349136346931,0.6989083549007811
15.48371922087468,0.9075208263819418
15.517089305402425,0.9111061456033067
15.550459389930174,0.7156323250615004
15.58382947445792,0.3995770668465827
15.617199558985668,0.0730285157947758
15.650569643513414,-0.1725431773107812
15.683939728041162,-0.29940966182229184
15.717309812568908,-0.3293899567163194
15.750679897096656,-0.32204960766363466
15.784049981624403,-0.339751719054259
15.81742006615215,-0.41769343604189996
15.850790150679897,-0.5514132427970431
15.884160235207645,-0.7038088846057116
15.917530319735391,-0.824525022192657
15.95090040426314,-0.8708212717582248
15.984270488790886,-0.8212283497688279
16.017640573318634,-0.6788360526169737
16.05101065784638,-0.4662944043285121
16.084380742374126,-0.21705981821233813
16.117750826901876,0.03320597047885882
16.151120911429622,0.2533681617470566
16.18449099595737,0.42175484759390724
16.217861080485115,0.5296388431416225
16.251231165012864,0.5826472473907407
16.28460124954061,0.5985781421837241
16.317971334068357,0.6005582051995583
16.351341418596103,0.6066311998439636
16.384711503123853,0.6197045642271153
16.4180815876516,0.6233448468872583
16.451451672179346,0.5874909994219275
16.484821756707092,0.48360909205039004
16.51819184123484,0.3031540848603907
16.551561925762588,0.06977586626276695
16.584932010290334,-0.16279562321280905
16.61830209481808,-0.32873672060200876
16.65167217934583,-0.37707395051595255
16.685042263873576,-0.29501551573392426
16.718412348401323,-0.11590233618105353
16.75178243292907,0.09264039424636036
16.78515251745682,0.2547641266432865
16.818522601984565,0.3141176882602881
16.85189268651231,0.25069457471482254
16.885262771040058,0.08092246560594754
16.918632855567807,-0.15591569805780578
16.952002940095554,-0.4157965121570871
16.9853730246233,-0.6632061812802357
17.018743109151046,-0.8747309810005309
17.052113193678796,-1.034283850377371
17.085483278206542,-1.1254341361218465
17.11885336273429,-1.126960241521269
17.15222344726204,-1.0153531362800514
17.185593531789785,-0.7741928814991492
17.21896361631753,-0.40676722922985015
17.252333700845277,0.05386182706744409
17.285703785373027,0.543251863055199
17.319073869900773,0.9760726356893074
