Frequency (Hz),Amplitude
0.0,0.4869772022560228
0.019801980198019802,0.4915408960793386
0.039603960396039604,0.5049671771303832
0.0594059405940594,0.5265285713027609
0.07920792079207921,0.5551994141177028
0.09900990099009901,0.5898406227189703
0.1188118811881188,0.6293432715130615
0.13861386138613863,0.6727108155064393
0.15841584158415842,0.7190899869858369
0.1782178217821782,0.7677699072320581
0.19801980198019803,0.8181660368979785
0.21782178217821782,0.8697993886023405
0.2376237623762376,0.9222763029394713
0.25742574257425743,0.9752709246347957
0.27722772277227725,1.0285108766566526
0.297029702970297,1.081765908588644
0.31683168316831684,1.1348390496192184
0.33663366336633666,1.187559768432452
0.3564356435643564,1.239778699321296
0.37623762376237624,1.2913635739279932
0.39603960396039606,1.3421960751981792
0.4158415841584158,1.3921693955329624
0.43564356435643564,1.4411863332774704
0.45544554455445546,1.4891578019730012
0.4752475247524752,1.5360016573927542
0.495049504950495,1.5816417704107057
0.5148514851485149,1.6260072910254773
0.5346534653465347,1.6690320618118644
0.5544554455445545,1.7106541487996823
0.5742574257425742,1.750815465108956
0.594059405940594,1.7894614682157868
0.613861386138614,1.8265409159384056
0.6336633663366337,1.8620056694537668
0.6534653465346534,1.8958105341288756
0.6732673267326733,1.9279131308619721
0.6930693069306931,1.9582737921127182
0.7128712871287128,1.9868554779595708
0.7326732673267327,2.0136237084331414
0.7524752475247525,2.038546509093132
0.7722772277227723,2.061594367387829
0.7920792079207921,2.082740197791582
0.8118811881188118,2.101959314082282
0.8316831683168316,2.119229407417697
0.8514851485148516,2.134530529111167
0.8712871287128713,2.1478450772048707
0.891089108910891,2.159157786103134
0.9108910891089109,2.1684557186646507
0.9306930693069307,2.1757282602679124
0.9504950495049505,2.180967114462817
0.9702970297029703,2.18416629990704
0.99009900990099,2.185322148361483
1.00990099009901,2.1844333035875967
1.0297029702970297,2.1815007210530695
1.0495049504950495,2.1765276684126675
1.0693069306930694,2.1695197267909947
1.0891089108910892,2.1604847929538615
1.108910891089109,2.149433082518641
1.1287128712871286,2.1363771344214095
1.1485148514851484,2.1213318169338238
1.1683168316831685,2.1043143356071945
1.188118811881188,2.085344243618234
1.2079207920792079,2.0644434551044846
1.227722772277228,2.041636262211789
1.2475247524752475,2.0169493567367263
1.2673267326732673,1.9904118574413914
1.2871287128712872,1.9620553443542919
1.3069306930693068,1.9319139016618072
1.3267326732673268,1.900024171153492
1.3465346534653466,1.8664254186305782
1.3663366336633662,1.8311596162455654
1.3861386138613863,1.7942715444429116
1.405940594059406,1.7558089180595577
1.4257425742574257,1.7158225422749904
1.4455445544554455,1.674366505547574
1.4653465346534653,1.6314984185363968
1.4851485148514851,1.5872797104175147
1.504950495049505,1.541775997139647
1.5247524752475248,1.4950575402661856
1.5445544554455446,1.447199820445107
1.5643564356435644,1.398284256675117
1.5841584158415842,1.3483991119929324
1.6039603960396038,1.2976406387950747
1.6237623762376237,1.2461145337979627
1.6435643564356437,1.1939377950358685
1.6633663366336633,1.1412411030714398
1.683168316831683,1.0881718878672695
1.7029702970297032,1.0348982937472426
1.7227722772277227,0.9816143191196245
1.7425742574257426,0.9285464841688379
1.7623762376237624,0.8759624608298839
1.782178217821782,0.8241821616090089
1.801980198019802,0.7735917702301188
1.8217821782178218,0.7246609843690148
1.8415841584158414,0.6779630867129016
1.8613861386138615,0.6341959428714146
1.881188118811881,0.5941990418905395
1.900990099009901,0.5589567558656208
1.920792079207921,0.5295717502335402
1.9405940594059405,0.5071888179376457
1.9603960396039604,0.4928571101212221
1.98019801980198,0.4873468267566154
2.0,0.49097814510478116
2.01980198019802,0.5035408325803672
2.0396039603960396,0.524347827441673
2.0594059405940595,0.5523934985741519
2.0792079207920793,0.5865404525245255
2.099009900990099,0.6256695039333502
2.118811881188119,0.6687683691445461
2.1386138613861387,0.7149670511469908
2.1584158415841586,0.7635393291437972
2.1782178217821784,0.8138876164379137
2.1980198019801978,0.8655222733697633
2.217821782178218,0.9180411266362116
2.237623762376238,0.9711115792062661
2.257425742574257,1.0244559241112865
2.2772277227722775,1.0778396821368588
2.297029702970297,1.1310625032798653
2.3168316831683167,1.183951129611663
2.336633663366337,1.236353969730204
2.3564356435643563,1.288136914753535
2.376237623762376,1.3391801042143283
2.3960396039603964,1.3893754172036912
2.4158415841584158,1.4386245177539734
2.4356435643564356,1.4868373249749625
2.455445544554456,1.5339308100227702
2.4752475247524752,1.5798280457509213
2.495049504950495,1.6244574527216644
2.514851485148515,1.6677521986202721
2.5346534653465347,1.7096497181488846
2.5544554455445545,1.7500913280334662
2.5742574257425743,1.7890219174916322
2.594059405940594,1.826389698850318
2.6138613861386135,1.862146006316885
2.633663366336634,1.8962451334521595
2.6534653465346536,1.9286442018578083
2.673267326732673,1.9593030551151511
2.6930693069306932,1.9881841732024483
2.712871287128713,2.015252603551542
2.7326732673267324,2.0404759056423787
2.7524752475247527,2.063824106618826
2.7722772277227725,2.0852696658769165
2.792079207920792,2.104787446951783
2.811881188118812,2.1223546953329486
2.8316831683168315,2.137951021084763
2.8514851485148514,2.1515583853504743
2.8712871287128716,2.163161089986129
2.891089108910891,2.172745769709336
2.910891089108911,2.1803013862656107
2.9306930693069306,2.185819224215146
2.9504950495049505,2.1892928880296156
2.9702970297029703,2.190718300265664
2.99009900990099,2.1900937006505137
3.00990099009901,2.187419645979401
3.0297029702970297,2.1826990107853166
3.0495049504950495,2.175936988801156
3.0693069306930694,2.1671410952947503
3.089108910891089,2.1563211704199405
3.108910891089109,2.143489383794418
3.128712871287129,2.128660240589096
3.148514851485148,2.1118505894972595
3.1683168316831685,2.0930796330475663
3.1881188118811883,2.07236894083676
3.2079207920792077,2.049742466389899
3.227722772277228,2.0252265685140443
3.2475247524752473,1.9988500382019043
3.267326732673267,1.9706441323741661
3.2871287128712874,1.94064261603399
3.3069306930693068,1.9088818147589146
3.3267326732673266,1.8754006798923752
3.346534653465347,1.8402408693435062
3.366336633663366,1.8034468475911523
3.386138613861386,1.7650660093570365
3.4059405940594063,1.7251488325185174
3.4257425742574257,1.6837490672454882
3.4455445544554455,1.640923970164816
3.4653465346534653,1.596734594708706
3.485148514851485,1.5512461518637353
3.504950495049505,1.504528459540027
3.5247524752475248,1.4566565040414794
3.5445544554455446,1.407711144069202
3.564356435643564,1.3577799969122226
3.5841584158415842,1.3069585587575885
3.603960396039604,1.2553516274346863
3.6237623762376234,1.203075117774732
3.6435643564356437,1.1502583888745272
3.6633663366336635,1.0970472410232552
3.683168316831683,1.0436077901552077
3.702970297029703,0.9901314911840926
3.722772277227723,0.9368416579914239
3.7425742574257423,0.8840019105999432
3.762376237623762,0.8319270481246583
3.7821782178217824,0.780996847194951
3.801980198019802,0.7316731049619742
3.8217821782178216,0.6845196551132914
3.841584158415842,0.6402236787232535
3.8613861386138613,0.5996138116209099
3.881188118811881,0.5636657670532534
3.9009900990099013,0.5334798836467863
3.9207920792079207,0.5102106347094983
3.9405940594059405,0.4949341152450443
3.96039603960396,0.4884656397486255
3.98019801980198,0.49118168644320237
4.0,0.5029258675186609
4.01980198019802,0.5230492182210705
4.03960396039604,0.5505625913022488
4.0594059405940595,0.5843261137371943
4.079207920792079,0.6232061942795932
4.099009900990099,0.6661711345858541
4.118811881188119,0.7123311926725591
4.138613861386139,0.7609424498193494
4.158415841584159,0.8113924803544781
4.178217821782178,0.8631796436230845
4.198019801980198,0.9158922348355105
4.217821782178218,0.9691901386248513
4.237623762376238,1.0227897146884732
4.257425742574258,1.0764517756220102
4.2772277227722775,1.1299722018889753
4.297029702970297,1.183174683041962
4.316831683168317,1.2359051232309592
4.336633663366336,1.288027329301445
4.356435643564357,1.339419680060069
4.376237623762377,1.3899725443363327
4.3960396039603955,1.43958627093123
4.415841584158416,1.488169616536638
4.435643564356436,1.5356385104050374
4.455445544554455,1.5819150791693573
4.475247524752476,1.626926873672651
4.4950495049504955,1.6706062534971275
4.514851485148514,1.7128898952588392
4.534653465346535,1.7537183985434934
4.554455445544555,1.7930359692596716
4.574257425742574,1.8307901646648348
4.594059405940594,1.8669316877373991
4.613861386138614,1.901414221189522
4.633663366336633,1.9341942934374512
4.653465346534653,1.9652311704144536
4.673267326732674,1.9944867683346519
4.693069306930693,2.0219255834755057
4.712871287128713,2.047514635803455
4.732673267326733,2.0712234238677225
4.752475247524752,2.093023888866329
4.772277227722772,2.112890386172757
4.792079207920793,2.130799662922434
4.811881188118812,2.14673084051047
4.8316831683168315,2.1606654010589357
4.851485148514852,2.1725871770824177
4.871287128712871,2.1824823437227843
4.891089108910891,2.190339413043629
4.910891089108912,2.1961492299768475
4.930693069306931,2.1999049696019473
4.9504950495049505,2.2016021355165476
4.97029702970297,2.2012385591263364
4.99009900990099,2.1988143997474605
5.00990099009901,2.194332145475273
5.02970297029703,2.1877966148334607
5.0495049504950495,2.179214959277541
5.069306930693069,2.168596666689473
5.089108910891089,2.155953566067117
5.108910891089109,2.141299833685706
5.128712871287129,2.1246520010911016
5.148514851485149,2.10602896537933
5.1683168316831685,2.085452002326989
5.188118811881188,2.062944783067292
5.207920792079208,2.0385333951620415
5.227722772277227,2.012246369107374
5.247524752475248,1.984114711539177
5.267326732673268,1.9541719466840566
5.2871287128712865,1.922454167946754
5.306930693069307,1.8890001019541358
5.326732673267327,1.8538511879114983
5.346534653465346,1.8170516758011221
5.366336633663367,1.7786487478045825
5.3861386138613865,1.738692668413712
5.405940594059405,1.6972369700800403
5.425742574257426,1.6543386830337268
5.445544554455446,1.61005862020642
5.465346534653465,1.564461731187934
5.485148514851486,1.517617543063426
5.504950495049505,1.4696007111264684
5.524752475247524,1.4204917092651714
5.544554455445545,1.3703776988440444
5.564356435643565,1.3193536269247497
5.584158415841584,1.2675236207182785
5.603960396039604,1.2150027666030079
5.623762376237624,1.1619193906318759
5.643564356435643,1.1084179953253224
5.663366336633663,1.0546630570599964
5.683168316831684,1.0008439514902292
5.702970297029703,0.9471813512291594
5.7227722772277225,0.8939355249931737
5.742574257425743,0.8414170417962719
5.762376237623762,0.7900003996474122
5.782178217821782,0.7401409485741465
5.801980198019803,0.6923949463301301
5.821782178217822,0.6474412800154749
5.841584158415841,0.606100711412565
5.861386138613861,0.5693438523639351
5.881188118811881,0.538272685797077
5.900990099009901,0.5140553794771924
5.920792079207921,0.4977984875326946
5.9405940594059405,0.4903648854533037
5.96039603960396,0.4921882895565676
5.98019801980198,0.5031653520356112
6.0,0.5226826994709193
6.01980198019802,0.5497638595961563
6.03960396039604,0.5832620502331596
6.0594059405940595,0.6220249216458014
6.079207920792079,0.6649975538102555
6.099009900990099,0.7112673814293761
6.118811881188119,0.7600704178301222
6.138613861386139,0.8107776209754566
6.158415841584159,0.8628740281008839
6.178217821782178,0.9159374168429345
6.198019801980198,0.969619407151935
6.217821782178218,1.023629848573018
6.237623762376237,1.0777243882647378
6.257425742574258,1.1316947645784947
6.2772277227722775,1.1853613024530076
6.297029702970296,1.238567133254767
6.316831683168317,1.2911737433955561
6.336633663366337,1.3430575389120147
6.356435643564356,1.394107184812937
6.376237623762377,1.4442215356351924
6.396039603960396,1.4933080183498195
6.415841584158415,1.541281362748249
6.435643564356436,1.5880626000189164
6.455445544554456,1.6335782693892138
6.475247524752475,1.6777597870536785
6.495049504950495,1.7205429423628837
6.514851485148515,1.7618674943331691
6.534653465346534,1.8016768476407015
6.554455445544554,1.8399177918923626
6.574257425742575,1.876540291494612
6.594059405940594,1.911497316145716
6.6138613861386135,1.9447447040609043
6.633663366336634,1.9762410516547757
6.653465346534653,2.0059476246641967
6.673267326732673,2.0338282866811954
6.693069306930694,2.059849441843047
6.712871287128713,2.083979989042906
6.732673267326732,2.1061912855159943
6.752475247524753,2.1264571180503102
6.772277227722772,2.1447536803890186
6.792079207920792,2.1610595556499237
6.811881188118813,2.175355702798939
6.8316831683168315,2.1876254463886027
6.851485148514851,2.197854468917759
6.871287128712871,2.2060308052904447
6.891089108910891,2.21214483895572
6.910891089108911,2.2161892993999155
6.930693069306931,2.218159260741583
6.9504950495049505,2.218052141250143
6.97029702970297,2.2158677036745362
6.99009900990099,2.211608056329671
7.00990099009901,2.2052776549484374
7.02970297029703,2.1968833053674772
7.0495049504950495,2.1864341671773166
7.069306930693069,2.1739417585341587
7.089108910891089,2.159419962403524
7.108910891089109,2.1428850345880748
7.128712871287128,2.124355613985268
7.148514851485149,2.10385273562976
7.1683168316831685,2.081399847203641
7.188118811881187,2.057022829851228
7.207920792079208,2.030750024319855
7.227722772277228,2.0026122636729444
7.247524752475247,1.9726429140971693
7.267326732673268,1.9408779256651922
7.287128712871287,1.9073558953376055
7.306930693069306,1.8721181450147757
7.326732673267327,1.8352088181117598
7.346534653465347,1.796674998966875
7.366336633663366,1.7565668604588895
7.3861386138613865,1.7149378465685043
7.405940594059406,1.6718448983697156
7.425742574257425,1.6273487341986093
7.445544554455446,1.58151419768941
7.465346534653466,1.534410691214014
7.485148514851485,1.4861127173184117
7.504950495049505,1.4367005574312317
7.524752475247524,1.3862611259893585
7.544554455445544,1.334889049945424
7.564356435643565,1.2826880394165041
7.584158415841584,1.229772636362519
7.603960396039604,1.1762704564052062
7.623762376237624,1.1223250763899029
7.643564356435643,1.0680997695050274
7.663366336633663,1.0137823529214172
7.683168316831684,0.9595914905602468
7.702970297029703,0.9057848813392224
7.7227722772277225,0.8526698444125985
7.742574257425743,0.8006168435516599
7.762376237623762,0.7500763728182371
7.782178217821782,0.7015991491771342
7.801980198019803,0.6558583441877293
7.821782178217822,0.6136700380067286
7.841584158415841,0.5760035331300984
7.861386138613862,0.5439666720750999
7.881188118811881,0.5187455562683407
7.900990099009901,0.5014808628400713
7.92079207920792,0.4930854613861409
7.9405940594059405,0.49405099130387925
7.96039603960396,0.5043258444044866
7.980198019801979,0.5233290916058152
8.0,0.5500924942162347
8.01980198019802,0.5834574356625221
8.03960396039604,0.6222481478229277
8.05940594059406,0.6653825453311337
8.07920792079208,0.7119221446000699
8.099009900990099,0.7610805724855365
8.118811881188119,0.8122104741929083
8.138613861386139,0.8647823305645914
8.158415841584159,0.9183624960354162
8.178217821782178,0.9725936486059957
8.198019801980198,1.0271786074883584
8.217821782178218,1.081867442176026
8.237623762376238,1.1364474112881697
8.257425742574258,1.1907351896547094
8.277227722772277,1.24457088734571
8.297029702970297,1.2978134485852435
8.316831683168317,1.3503371047151245
8.336633663366337,1.4020286301080287
8.356435643564357,1.452785210101714
8.376237623762377,1.5025127766744577
8.396039603960396,1.5511247030227342
8.415841584158416,1.5985407748463107
8.435643564356436,1.6446863760856136
8.455445544554456,1.689491841763855
8.475247524752476,1.732891941748352
8.495049504950495,1.7748254676279884
8.514851485148515,1.8152349012242703
8.534653465346535,1.8540661480420255
8.554455445544555,1.89126832261197
8.574257425742575,1.9267935754691445
8.594059405940595,1.9605969536606858
8.613861386138613,1.9926362883403446
8.633663366336634,2.022872104302945
8.653465346534654,2.051267547326808
8.673267326732672,2.077788325991078
8.693069306930694,2.1024026652680434
8.712871287128714,2.1250812696947374
8.732673267326732,2.1457972943321533
8.752475247524753,2.164526322046514
8.772277227722773,2.1812463459112252
8.792079207920791,2.1959377557446103
8.811881188118813,2.208583327976427
8.831683168316832,2.2191682181842483
8.85148514851485,2.2276799557651366
8.871287128712872,2.2341084403136726
8.891089108910892,2.2384459393685012
8.91089108910891,2.2406870872697375
8.930693069306932,2.2408288849410676
8.950495049504951,2.2388707004764283
8.97029702970297,2.234814270472987
8.990099009900991,2.2286637021127587
9.00990099009901,2.220425476055349
9.029702970297029,2.2101084502670743
9.04950495049505,2.1977238649779425
9.06930693069307,2.1832853490309057
9.089108910891088,2.1668089279689284
9.10891089108911,2.1483130342985053
9.12871287128713,2.1278185204761413
9.148514851485148,2.10534867529146
9.16831683168317,2.080929244472517
9.188118811881187,2.054588456521391
9.207920792079207,2.0263570550106142
9.227722772277229,1.996268338842738
9.247524752475247,1.9643582123111756
9.267326732673267,1.9306652472167851
9.287128712871288,1.8952307598150935
9.306930693069306,1.8580989060225672
9.326732673267326,1.819316799136622
9.346534653465348,1.778934655373688
9.366336633663366,1.7370059738722834
9.386138613861386,1.6935877595332451
9.405940594059407,1.6487407993010084
9.425742574257425,1.6025300053913387
9.445544554455445,1.555024842765971
9.465346534653467,1.5062998631445943
9.485148514851485,1.4564353744409628
9.504950495049505,1.405518283270348
9.524752475247526,1.3536431598596352
9.544554455445544,1.3009135903208306
9.564356435643564,1.247443902188933
9.584158415841586,1.1933613771538096
9.603960396039604,1.138809102259916
9.623762376237623,1.0839496600791334
9.643564356435645,1.0289699219470565
9.663366336633663,0.9740872873751388
9.683168316831683,0.9195578038290915
9.702970297029704,0.8656866894779297
9.722772277227723,0.8128418268492916
9.742574257425742,0.7614707034442165
9.762376237623764,0.7121208490231292
9.782178217821782,0.6654626863742178
9.801980198019802,0.6223112693281315
9.821782178217823,0.5836389111902859
9.841584158415841,0.5505640829750217
9.861386138613861,0.5242955447276265
9.881188118811881,0.5060120158997315
9.900990099009901,0.4966786177156598
9.92079207920792,0.4968448609881335
9.94059405940594,0.5065083533055734
9.96039603960396,0.5251160472994519
9.98019801980198,0.551702246236397
10.0,0.5850907177227258
10.01980198019802,0.6240771874404378
10.03960396039604,0.6675483651568789
10.05940594059406,0.7145368585636966
10.07920792079208,0.7642317858857643
10.099009900990099,0.8159660019692427
10.118811881188119,0.8691944018763869
10.138613861386139,0.9234711873044821
10.158415841584159,0.9784295611357278
10.178217821782178,1.0337649064629442
10.198019801980198,1.0892213918856535
10.217821782178218,1.1445815268904362
10.237623762376238,1.199658102339209
10.257425742574258,1.2542879970795713
10.277227722772277,1.3083274197954653
10.297029702970297,1.3616482456949328
10.316831683168317,1.4141351860476568
10.336633663366337,1.465683591653685
10.356435643564357,1.5161977401490634
10.376237623762377,1.5655894940893267
10.396039603960396,1.6137772445508367
10.415841584158416,1.6606850757611433
10.435643564356436,1.7062421017756857
10.455445544554454,1.7503819378114416
10.475247524752476,1.793042277542722
10.495049504950495,1.8341645542117941
10.514851485148514,1.8736936683611978
10.534653465346535,1.9115777687629174
10.554455445544555,1.9477680760015124
10.574257425742573,1.9822187403847698
10.594059405940595,2.0148867275698765
10.613861386138614,2.045731726626776
10.633663366336632,2.0747160763039
10.653465346534654,2.1018047060825005
10.673267326732674,2.1269650892556844
10.693069306930692,2.1501672057855035
