Time (s),Filtered Signal
0.0,0.0022589600646754156
0.033370165745856356,0.28133386261580035
0.06674033149171271,0.5305307538101585
0.10011049723756907,0.7227134106556762
0.13348066298342542,0.8372875005970095
0.16685082872928178,0.8645757295522223
0.20022099447513814,0.8091707810706782
0.2335911602209945,0.6900621627208492
0.26696132596685085,0.5363753709055679
0.30033149171270723,0.3796594970613837
0.33370165745856356,0.24548715692278597
0.3670718232044199,0.14752506979071267
0.4004419889502763,0.0860277403011371
0.43381215469613266,0.050736883169441194
0.467182320441989,0.026554479191548564
0.5005524861878453,-0.00027127617909530666
0.5339226519337017,-0.037442630410003674
0.5672928176795581,-0.08468552456196773
0.6006629834254145,-0.1350563886969247
0.6340331491712707,-0.17895645907330432
0.6674033149171271,-0.20922613927914813
0.7007734806629835,-0.22493117475279512
0.7341436464088398,-0.23175710121953907
0.7675138121546962,-0.23855792446444113
0.8008839779005525,-0.25180465132169405
0.8342541436464089,-0.2710365041026102
0.8676243093922653,-0.2879448199006034
0.9009944751381216,-0.28968248349343484
0.934364640883978,-0.26471080030712396
0.9677348066298344,-0.20833270610600216
1.0011049723756906,-0.12549460869636178
1.0344751381215471,-0.02991936016880981
1.0678453038674034,0.05983038442687043
1.1012154696132597,0.12585566771749354
1.1345856353591162,0.15628183061878975
1.1679558011049724,0.14893402681731827
1.201325966850829,0.11211042085372155
1.2346961325966852,0.06184550262784773
1.2680662983425415,0.016170038941475187
1.301436464088398,-0.011686915493147848
1.3348066298342542,-0.018209985194237235
1.3681767955801105,-0.01003347821252659
1.401546961325967,0.0007138998671118947
1.4349171270718233,0.004014793494405012
1.4682872928176796,-0.0015644817354110046
1.501657458563536,-0.007398935606640827
1.5350276243093923,0.00034700464999113686
1.5683977900552488,0.03181383856840219
1.601767955801105,0.08537401918820711
1.6351381215469614,0.14531646689208305
1.6685082872928179,0.18740423359495348
1.7018784530386741,0.19013753025438868
1.7352486187845306,0.14613591795511846
1.768618784530387,0.06752347200162051
1.8019889502762432,-0.01796343514062224
1.8353591160220997,-0.07867821341562645
1.868729281767956,-0.09303746546302012
1.9020994475138122,-0.05904160631775962
1.9354696132596687,0.005112430052143976
1.968839779005525,0.06936357179619648
2.0022099447513813,0.10487815257961822
2.0355801104972375,0.09575543602386583
2.0689502762430942,0.044282043763831366
2.1023204419889505,-0.03197067243321582
2.135690607734807,-0.10904130574378973
2.169060773480663,-0.16676808764908846
2.2024309392265193,-0.1954692229440922
2.235801104972376,-0.19651187637902914
2.2691712707182323,-0.17747861920914815
2.3025414364640886,-0.1453675793501814
2.335911602209945,-0.10204344257972936
2.369281767955801,-0.04462813469839174
2.402651933701658,0.029483149372730385
2.436022099447514,0.11614552757488512
2.4693922651933704,0.2008116370783848
2.5027624309392267,0.2607101283595973
2.536132596685083,0.2728462330282778
2.5695027624309392,0.22467618766587433
2.602872928176796,0.12267635574337699
2.636243093922652,-0.005379514712306463
2.6696132596685085,-0.11626711648859524
2.7029834254143648,-0.16414115839144225
2.736353591160221,-0.11669178767560405
2.7697237569060777,0.030469109541579484
2.803093922651934,0.24640555404601705
2.8364640883977903,0.4682905350701983
2.8698342541436466,0.6166230138483553
2.903204419889503,0.6191266298004547
2.936574585635359,0.43623107410441736
2.969944751381216,0.07894112448225607
3.003314917127072,-0.38866653586604066
3.0366850828729284,-0.8648764337623986
3.0700552486187846,-1.2391337490388878
3.103425414364641,-1.4239693102177289
3.1367955801104976,-1.378603352823758
3.170165745856354,-1.1167292551328867
3.20353591160221,-0.6978488871294833
3.2369060773480665,-0.20763277495644938
3.2702762430939227,0.2646578200953892
3.3036464088397794,0.6449646872184814
3.3370165745856357,0.8861292729541369
3.370386740331492,0.9723415058373416
3.4037569060773483,0.9177347195474729
3.4371270718232045,0.7605573551543758
3.4704972375690613,0.5539088989753385
3.5038674033149175,0.35405610208566546
3.537237569060774,0.20804960546413076
3.57060773480663,0.14320108656476407
3.6039779005524863,0.16119240769770704
3.6373480662983426,0.23875054795817702
3.6707182320441993,0.33509280944653524
3.7040883977900556,0.40430820984379773
3.737458563535912,0.40919264382992016
3.770828729281768,0.3323835317467175
3.8041988950276244,0.18128341968560346
3.837569060773481,-0.014827594441527021
3.8709392265193374,-0.21447486693195628
3.9043093922651937,-0.37710754443753036
3.93767955801105,-0.4751842747831605
3.9710497237569062,-0.5013144511887342
4.0044198895027625,-0.4684416852855523
4.037790055248619,-0.40348273946252067
4.071160220994475,-0.33693930214803497
4.104530386740332,-0.2921877058208947
4.1379005524861885,-0.2781328100701022
4.171270718232044,-0.2876868772138486
4.204640883977901,-0.3024390489826621
4.238011049723757,-0.3015957393525268
4.271381215469614,-0.27163975299162546
4.30475138121547,-0.21284082681718403
4.338121546961326,-0.1399263002241137
4.371491712707183,-0.07647367386259407
4.404861878453039,-0.0450793472841902
4.438232044198895,-0.05714962979383018
4.471602209944752,-0.10653619460096277
4.504972375690608,-0.1699555258993311
4.538342541436465,-0.21455206372965
4.5717127071823205,-0.2100164926817633
4.605082872928177,-0.14057148076782905
4.638453038674034,-0.011894598973740997
4.67182320441989,0.15006419814157293
4.7051933701657465,0.30810068110713457
4.738563535911602,0.42704103559052825
4.771933701657459,0.48593821684068844
4.805303867403316,0.4843702489233247
4.8386740331491715,0.44063993816649266
4.872044198895028,0.3831407290413918
4.905414364640884,0.3389130131988116
4.938784530386741,0.32427311794601704
4.972154696132597,0.34104892911674284
5.005524861878453,0.37911493197584867
5.03889502762431,0.4229941626416801
5.072265193370166,0.45872313852135843
5.105635359116023,0.4776899775935533
5.1390055248618784,0.47636664232670245
5.172375690607735,0.4534453342808893
5.205745856353592,0.4073397230518958
5.239116022099448,0.33646172398845514
5.272486187845304,0.24242157408252377
5.30585635359116,0.133655171471687
5.339226519337017,0.025693197636372258
5.372596685082874,-0.06443411827556682
5.4059668508287295,-0.1284701472834822
5.439337016574586,-0.1764356151366348
5.472707182320442,-0.2379754386280522
5.506077348066299,-0.3508371296077766
5.5394475138121555,-0.5388946658166219
5.572817679558011,-0.7903152622258941
5.606187845303868,-1.0504168774356322
5.639558011049724,-1.239365211642584
5.672928176795581,-1.292291987472902
5.706298342541437,-1.2042521385642644
5.739668508287293,-1.05353740705917
5.77303867403315,-0.9816696272660679
5.806408839779006,-1.1278903241699854
5.839779005524862,-1.5423402471903815
5.873149171270718,-2.121348865620921
5.906519337016575,-2.6071447753899797
5.939889502762432,-2.66876474735765
5.9732596685082875,-2.040482054989325
6.006629834254144,-0.658877855722476
6.04,1.269439692973566
6.073370165745857,3.311416117631099
6.1067403314917135,4.953115025153491
6.140110497237569,5.787088586641372
6.173480662983426,5.658576110747578
6.206850828729282,4.70622754968523
6.240220994475139,3.283857324600428
6.273591160220995,1.8057088949434685
6.306961325966851,0.5898469986437279
6.340331491712708,-0.23226776761683232
6.373701657458564,-0.7107624705093984
6.40707182320442,-0.9960722556781715
6.440441988950277,-1.2334278194014092
6.473812154696133,-1.4880048936927959
6.50718232044199,-1.73112055551103
6.5405524861878455,-1.8821082189891372
6.573922651933702,-1.8731122715841
6.607292817679559,-1.6976168931086515
6.640662983425415,-1.418220516709713
6.674033149171271,-1.134365897225594
6.707403314917127,-0.9319523509241157
6.740773480662984,-0.8435846145111641
6.774143646408841,-0.8391104505543705
6.8075138121546965,-0.8479861755654556
6.840883977900553,-0.7985276399420015
6.874254143646409,-0.6525589839282939
6.907624309392266,-0.41931170889160846
6.9409944751381225,-0.14513115985303096
6.974364640883978,0.11204592065402366
7.007734806629835,0.308659268533529
7.041104972375691,0.4297380481370674
7.074475138121548,0.48728072005757844
7.107845303867403,0.5071928508805812
7.14121546961326,0.5136630848901914
7.174585635359117,0.5190071616757476
7.207955801104973,0.522468439649431
7.241325966850829,0.5163037461758869
7.274696132596685,0.49430034584418175
7.308066298342542,0.45768315978693963
7.341436464088399,0.4156120589787209
7.3748066298342545,0.38064176276456885
7.408176795580111,0.3620194243129103
7.441546961325967,0.3604838229735923
7.474917127071824,0.3671736431656507
7.5082872928176805,0.36707732274010874
7.541657458563536,0.34531678547421635
7.575027624309393,0.29343415934128053
7.608397790055249,0.21309797460205956
7.641767955801106,0.11590838247139788
7.675138121546962,0.019523036244790733
7.708508287292818,-0.058470904457378126
7.741878453038675,-0.10685768615292031
7.775248618784531,-0.12502711939234082
7.808618784530387,-0.1232868085240388
7.841988950276244,-0.11855179296810471
7.8753591160221,-0.12664587796294574
7.908729281767957,-0.15448536207868985
7.9420994475138125,-0.1962725394393267
7.975469613259669,-0.23644246563994564
8.008839779005525,-0.25864718769846085
8.042209944751383,-0.25624431156984934
8.075580110497238,-0.23803191453881442
8.108950276243094,-0.22492109090252513
8.14232044198895,-0.23824791385754873
8.175690607734808,-0.28571651974064327
8.209060773480664,-0.3531853027229178
8.24243093922652,-0.4079425021290676
8.275801104972377,-0.41294477294781506
8.309171270718233,-0.3451931142952759
8.342541436464089,-0.20869330770507852
8.375911602209946,-0.0349686465115007
8.409281767955802,0.12949684708592077
8.442651933701658,0.2427818386962555
8.476022099447514,0.28454914802490244
8.509392265193371,0.26274845016086296
8.542762430939227,0.20766301721971114
8.576132596685083,0.1571104769876853
8.60950276243094,0.14022939641087792
8.642872928176796,0.16690523624243803
8.676243093922652,0.22631716767156487
8.709613259668508,0.29361897012265115
8.742983425414366,0.34069893525135997
8.776353591160222,0.34635990406822703
8.809723756906077,0.30266444021424793
8.843093922651935,0.21629221760714984
8.87646408839779,0.10542321074563787
8.909834254143647,-0.006445484141894477
8.943204419889504,-0.09791054360322775
8.97657458563536,-0.15617579385134972
9.009944751381216,-0.18053275909580968
9.043314917127072,-0.1813777381769177
9.07668508287293,-0.17491491799327968
9.110055248618785,-0.17561087483774854
9.143425414364641,-0.18967521084923183
9.176795580110499,-0.2125123739191188
9.210165745856354,-0.2312470463022863
9.24353591160221,-0.23101044635621987
9.276906077348068,-0.2019641157191807
9.310276243093924,-0.14387411548245446
9.34364640883978,-0.06640243109177865
9.377016574585635,0.014642070405786238
9.410386740331493,0.08312056468352587
9.443756906077349,0.12786682679993283
9.477127071823205,0.14553327085332446
9.510497237569062,0.14041202360989274
9.543867403314918,0.1219539272984475
9.577237569060774,0.10130298139951487
9.610607734806631,0.08799197698081619
9.643977900552487,0.08742875303651988
9.677348066298343,0.09945135770427943
9.710718232044199,0.1182139455557441
9.744088397790057,0.13371248329539634
9.777458563535912,0.13496902591347554
9.810828729281768,0.11417747587459434
9.844198895027626,0.07036199665353662
9.877569060773482,0.010897594090064992
9.910939226519337,-0.050106008191924054
9.944309392265193,-0.09628842465424677
9.97767955801105,-0.11485941755190492
10.011049723756907,-0.10157333641778236
10.044419889502763,-0.06290079981891084
10.07779005524862,-0.014419298312993956
10.111160220994476,0.024207332057512975
10.144530386740332,0.03603633836235415
10.17790055248619,0.013084334181330854
10.211270718232045,-0.040284635566724486
10.244640883977901,-0.10819780087321869
10.278011049723757,-0.1682656631006978
10.311381215469615,-0.19915279469868613
10.34475138121547,-0.188125502655609
10.378121546961326,-0.13581782320876268
10.411491712707184,-0.05632540928091432
10.44486187845304,0.02757175591601082
10.478232044198895,0.09234235219968366
10.511602209944753,0.12176445927504938
10.544972375690609,0.11202413198612524
10.578342541436465,0.07203054621096934
10.61171270718232,0.019148192716197786
10.645082872928178,-0.027622758819638594
10.678453038674034,-0.05416895577157716
10.71182320441989,-0.055122227950932204
10.745193370165747,-0.03409924833137138
10.778563535911603,-0.0009236285707829257
10.811933701657459,0.032603646124763304
10.845303867403315,0.056723090063780304
10.878674033149172,0.06638920217598886
10.912044198895028,0.062130065326744296
10.945414364640884,0.04910982704135042
10.978784530386742,0.03471213044489667
11.012154696132598,0.025292727121608096
11.045524861878453,0.02319180411199083
11.078895027624311,0.025394432550067268
11.112265193370167,0.024916901406385014
11.145635359116023,0.014846025096176984
11.179005524861878,-0.006641782688321006
11.212375690607736,-0.03304935730378221
11.245745856353592,-0.05053340430585681
11.279116022099448,-0.04353506393488
11.312486187845305,-0.0028570191310582243
11.345856353591161,0.06779493699136291
11.379226519337017,0.1504642837374309
11.412596685082875,0.2180624650355531
11.44596685082873,0.24408767524023256
11.479337016574586,0.21290832584240826
11.512707182320442,0.12641147269936828
11.5460773480663,0.004481846382422139
11.579447513812156,-0.12077818339593667
11.612817679558011,-0.2150737070868764
11.646187845303869,-0.2529871819137331
11.679558011049725,-0.22663084667077485
11.71292817679558,-0.14893633222621758
11.746298342541436,-0.049959951877455784
11.779668508287294,0.0332547718187332
11.81303867403315,0.07015009221734415
11.846408839779006,0.0484595796845753
11.879779005524863,-0.020677823181942237
11.91314917127072,-0.1069909261259029
11.946519337016575,-0.17352724812868298
11.979889502762433,-0.19233984043872973
12.013259668508288,-0.15673086913497275
12.046629834254144,-0.0845669026129116
12.08,-0.01087803345586112
12.113370165745858,0.02742779122392384
12.146740331491714,0.008366174881776064
12.18011049723757,-0.06407905544717224
12.213480662983427,-0.1597469286532055
12.246850828729283,-0.23353055300227726
12.280220994475139,-0.24370338189468865
12.313591160220996,-0.16969694413872288
12.346961325966852,-0.02161038185893172
12.380331491712708,0.16287018050357918
12.413701657458564,0.3329379719596963
12.447071823204421,0.44414932229981025
12.480441988950277,0.4742956153518632
12.513812154696133,0.42894170257005243
12.54718232044199,0.3351092812278012
12.580552486187846,0.2273244328287249
12.613922651933702,0.13341026577113158
12.64729281767956,0.06642000989198836
12.680662983425416,0.024926242570816517
12.714033149171271,-0.0007404851348184798
12.747403314917127,-0.021092436709859188
12.780773480662985,-0.04289454333532393
12.81414364640884,-0.06846970342491426
12.847513812154697,-0.09726841052746085
12.880883977900554,-0.12724802822622738
12.91425414364641,-0.15483020318126114
12.947624309392266,-0.17417331901768138
12.980994475138122,-0.1775545612491217
13.01436464088398,-0.15799768400892078
13.047734806629835,-0.11343870614455273
13.081104972375691,-0.05009307640276
13.114475138121549,0.017473887704122927
13.147845303867404,0.07052427180481044
13.18121546961326,0.09316924781913002
13.214585635359118,0.0790760876344815
13.247955801104974,0.03454798547524412
13.28132596685083,-0.023814691998223354
13.314696132596685,-0.07622521783331701
13.348066298342543,-0.10868480607964971
13.381436464088399,-0.11976736439925208
13.414806629834255,-0.12166377424039665
13.448176795580112,-0.1341020777199801
13.481546961325968,-0.17301222053992157
13.514917127071824,-0.23889988119018923
13.548287292817681,-0.311177645065747
13.581657458563537,-0.352899860297003
13.615027624309393,-0.32562248553818535
13.648397790055249,-0.20851653804414141
13.681767955801106,-0.012517838393299067
13.715138121546962,0.21847181884733421
13.748508287292818,0.42158685107775273
13.781878453038676,0.5389439992787063
13.815248618784532,0.5409138996857528
13.848618784530387,0.4378831346638833
13.881988950276245,0.2749477381025238
13.9153591160221,0.11217368117704238
13.948729281767957,-4.853494488030825e-05
13.982099447513813,-0.039068686324856564
14.01546961325967,-0.013932824493391399
14.048839779005526,0.044724583648542725
14.082209944751382,0.10191222901974005
14.11558011049724,0.13320703449895352
14.148950276243095,0.13081053574912374
14.182320441988951,0.10015562959776245
14.215690607734807,0.051729638079935636
14.249060773480664,-0.005670839143221699
14.28243093922652,-0.06654376366096483
14.315801104972376,-0.12582336622183496
14.349171270718234,-0.17543888720073417
14.38254143646409,-0.20421469989087365
14.415911602209945,-0.20218812990754975
14.449281767955803,-0.16682556786013386
14.482651933701659,-0.10680704922512918
14.516022099447515,-0.040270442344908355
14.54939226519337,0.012164109484611746
14.582762430939228,0.035921197414700026
14.616132596685084,0.02782125342976084
14.64950276243094,-0.0045616967934637
14.682872928176797,-0.048715823461640904
14.716243093922653,-0.09430574482526632
14.749613259668509,-0.13712131344354808
14.782983425414367,-0.17758436278992482
14.816353591160222,-0.21512366423833146
14.849723756906078,-0.24254888791760387
14.883093922651934,-0.24491659724922368
14.916464088397792,-0.20496600565086004
14.949834254143648,-0.11322120314127057
14.983204419889503,0.022523130946941278
15.016574585635361,0.17434494512307233
15.049944751381217,0.30127315924517517
15.083314917127073,0.364566078975984
15.116685082872928,0.3446717943242976
15.150055248618786,0.2515586739792548
15.183425414364642,0.12258901192927826
15.216795580110498,0.007882237625355447
15.250165745856355,-0.05066990988306503
15.283535911602211,-0.03715112433646804
15.316906077348067,0.032186227393455134
15.350276243093925,0.11715448051696842
15.38364640883978,0.17226192534768087
15.417016574585636,0.16687080339034557
15.450386740331492,0.09765407733975422
15.48375690607735,-0.011705882126872076
15.517127071823205,-0.12226590720005033
15.550497237569061,-0.196528373957502
15.583867403314919,-0.21217663831581496
15.617237569060775,-0.16755646334931373
15.65060773480663,-0.07843741660977241
15.683977900552488,0.030319362238605475
15.717348066298344,0.13328998152892785
15.7507182320442,0.2099986351053406
15.784088397790056,0.24714028335691737
15.817458563535913,0.2392266353100247
15.85082872928177,0.1891767156474815
15.884198895027625,0.10859369125637906
15.917569060773483,0.015953135493301965
15.950939226519338,-0.06866907806172882
15.984309392265194,-0.13128918783240068
16.01767955801105,-0.1703818522982586
16.051049723756908,-0.19751773252641286
16.084419889502765,-0.2304201357336718
16.11779005524862,-0.28119069323474993
16.151160220994477,-0.346167147089445
16.18453038674033,-0.40393079723955655
16.21790055248619,-0.42382684259461223
16.251270718232046,-0.3812759793421679
16.2846408839779,-0.27186641234649955
16.318011049723758,-0.11644310278162527
16.351381215469615,0.04591421151921864
16.38475138121547,0.17375907967658882
16.418121546961327,0.24026221647059656
16.451491712707185,0.24331392661888435
16.48486187845304,0.20450383211654968
16.518232044198896,0.15825872615569633
16.551602209944754,0.1367988390238409
16.584972375690608,0.15779957669997077
16.618342541436466,0.21950308199284013
16.651712707182323,0.30399840823336005
16.685082872928177,0.3857301310365446
16.718453038674035,0.4407404058822517
16.751823204419892,0.4530360587410414
16.785193370165747,0.41676474314605705
16.818563535911604,0.33503741135108855
16.851933701657458,0.2172150911195452
16.885303867403316,0.07622393103677105
16.918674033149173,-0.07339870693632473
16.952044198895027,-0.2167916811057672
16.985414364640885,-0.33978805789574
17.018784530386743,-0.43001523990761215
17.052154696132597,-0.4782286777154274
17.085524861878454,-0.47982011519689527
17.118895027624312,-0.4362208420728012
17.152265193370166,-0.3556727157041886
17.185635359116024,-0.2526801527126077
