Frequency (Hz),Amplitude
0.0,3.10829743110884
0.019801980198019802,3.1068223793417773
0.039603960396039604,3.102398825870046
0.0594059405940594,3.0950315761804803
0.07920792079207921,3.0847286394448212
0.09900990099009901,3.071501228673191
0.1188118811881188,3.055363761158724
0.13861386138613863,3.0363338594519322
0.15841584158415842,3.0144323531847577
0.1782178217821782,2.98968328215646
0.19801980198019803,2.9621139011997664
0.21782178217821782,2.9317546874705718
0.2376237623762376,2.8986393509528656
0.25742574257425743,2.8628048491492653
0.27722772277227725,2.8242914071443335
0.297029702970297,2.783142544494267
0.31683168316831684,2.739405110724633
0.33663366336633666,2.693129331627472
0.3564356435643564,2.644368869060951
0.37623762376237624,2.59318089760178
0.39603960396039606,2.5396262022210614
0.4158415841584158,2.483769302203921
0.43564356435643564,2.4256786078832624
0.45544554455445546,2.3654266185071453
0.4752475247524752,2.303090171841539
0.495049504950495,2.238750759107612
0.5148514851485149,2.1724949228210715
0.5346534653465347,2.104414760390974
0.5544554455445545,2.0346085634439204
0.5742574257425742,1.9631816324638964
0.594059405940594,1.8902473194717078
0.613861386138614,1.815928369528944
0.6336633663366337,1.740358656874084
0.6534653465346534,1.6636854464078281
0.6732673267326733,1.5860723602422009
0.6930693069306931,1.50770329810429
0.7128712871287128,1.4287876579525185
0.7326732673267327,1.3495673406376298
0.7524752475247525,1.2703262142791139
0.7722772277227723,1.1914029757380475
0.7920792079207921,1.1132086869296753
0.8118811881188118,1.0362506620379264
0.8316831683168316,0.9611647292421676
0.8514851485148516,0.8887578531913429
0.8712871287128713,0.8200618340240272
0.891089108910891,0.7563944359580139
0.9108910891089109,0.6994135013229011
0.9306930693069307,0.6511285517503058
0.9504950495049505,0.6138054256418066
0.9702970297029703,0.5896878304768947
0.99009900990099,0.580523186317179
1.00990099009901,0.5870488212796676
1.0297029702970297,0.6087363846986862
1.0495049504950495,0.6439774604423755
1.0693069306930694,0.6905754535297328
1.0891089108910892,0.7462430599788102
1.108910891089109,0.8089165549247206
1.1287128712871286,0.8768773336890437
1.1485148514851484,0.9487531792662106
1.1683168316831685,1.0234681338376685
1.188118811881188,1.1001811216628867
1.2079207920792079,1.1782305454615325
1.227722772277228,1.2570897710420572
1.2475247524752475,1.3363332364263951
1.2673267326732673,1.4156112936238203
1.2871287128712872,1.4946317243721423
1.3069306930693068,1.5731461861623681
1.3267326732673268,1.65094024598997
1.3465346534653466,1.7278260122800841
1.3663366336633662,1.8036366502484553
1.3861386138613863,1.8782222685891843
1.405940594059406,1.9514468109827228
1.4257425742574257,2.023185689360683
1.4455445544554455,2.0933239691041714
1.4653465346534653,2.161754968276206
1.4851485148514851,2.2283791699503293
1.504950495049505,2.2931033731621784
1.5247524752475248,2.355840027089005
1.5445544554455446,2.4165067069181636
1.5643564356435644,2.4750257000053804
1.5841584158415842,2.5313236784032176
1.6039603960396038,2.5853314393991225
1.6237623762376237,2.636983699866822
1.6435643564356437,2.6862189333768316
1.6633663366336633,2.732979241401117
1.683168316831683,2.7772102517756134
1.7029702970297032,2.818861038994751
1.7227722772277227,2.8578840620066814
1.7425742574257426,2.894235116033312
1.7623762376237624,2.9278732956124123
1.782178217821782,2.9587609665915147
1.801980198019802,2.986863745228587
1.8217821782178218,3.0121504828949917
1.8415841584158414,3.034593255151977
1.8613861386138615,3.054167354196663
1.881188118811881,3.0708512838577318
1.900990099009901,3.084626756474303
1.920792079207921,3.095478691119844
1.9405940594059405,3.103395212742362
1.9603960396039604,3.1083676518861174
1.98019801980198,3.1103905447436055
2.0,3.109461633360854
2.01980198019802,3.105581865888412
2.0396039603960396,3.0987553968355197
2.0594059405940595,3.088989587349582
2.0792079207920793,3.0762950056074163
2.099009900990099,3.0606854274729245
2.118811881188119,3.0421778376478676
2.1386138613861387,3.0207924316231916
2.1584158415841586,2.9965526188281917
2.1782178217821784,2.969485027479324
2.1980198019801978,2.939619511751891
2.217821782178218,2.906989162042872
2.237623762376238,2.871630319266401
2.257425742574257,2.8335825943343806
2.2772277227722775,2.7928888942324988
2.297029702970297,2.749595456420046
2.3168316831683167,2.703751893677671
2.336633663366337,2.6554112520217323
2.3564356435643563,2.6046300849280106
2.376237623762376,2.5514685478981436
2.3960396039603964,2.4959905184121083
2.4158415841584158,2.4382637476076323
2.4356435643564356,2.378360051706618
2.455445544554456,2.3163555533960722
2.4752475247524752,2.2523309862409926
2.495049504950495,2.186372078999878
2.514851485148515,2.118570041763422
2.5346534653465347,2.0490221826121373
2.5544554455445545,1.9778326926477625
2.5742574257425743,1.905113649732454
2.594059405940594,1.830986308403139
2.6138613861386135,1.7555827671281086
2.633663366336634,1.6790481370869903
2.6534653465346536,1.6015433829262264
2.673267326732673,1.5232490710987963
2.6930693069306932,1.444370353357245
2.712871287128713,1.3651436425374153
2.7326732673267324,1.285845618799595
2.7524752475247527,1.2068054523553722
2.7722772277227725,1.1284214538347792
2.792079207920792,1.0511837520135532
2.811881188118812,0.9757049621727891
2.8316831683168315,0.902760864259435
2.8514851485148514,0.8333421257549871
2.8712871287128716,0.7687144390882207
2.891089108910891,0.7104750366592254
2.910891089108911,0.6605744884861281
2.9306930693069306,0.621244497531209
2.9504950495049505,0.5947549412993978
2.9702970297029703,0.5829697240941111
2.99009900990099,0.5868239451118704
3.00990099009901,0.6060065346435048
3.0297029702970297,0.6390702204142767
3.0495049504950495,0.6838883254407032
3.0693069306930694,0.7381670208691606
3.089108910891089,0.7997946282461865
3.108910891089109,0.8669922215559529
3.128712871287129,0.9383307431253136
3.148514851485148,1.0126867601356448
3.1683168316831685,1.089181779547934
3.1881188118811883,1.1671255086057872
3.2079207920792077,1.2459695355226292
3.227722772277228,1.3252717819420083
3.2475247524752473,1.4046700081837584
3.267326732673267,1.4838623110734135
3.2871287128712874,1.5625928153694866
3.3069306930693068,1.6406411545373163
3.3267326732673266,1.7178146986664053
3.346534653465347,1.7939427741036602
3.366336633663366,1.8688723326427368
3.386138613861386,1.9424646820455191
3.4059405940594063,2.014592999281662
3.4257425742574257,2.085140425555144
3.4455445544554455,2.153998597269251
3.4653465346534653,2.221066506279418
3.485148514851485,2.2862496108312693
3.504950495049505,2.3494591387839208
3.5247524752475248,2.4106115393765624
3.5445544554455446,2.469628050512781
3.564356435643564,2.526434356432389
3.5841584158415842,2.5809603165029316
3.603960396039604,2.633139750248949
3.6237623762376234,2.6829102670436313
3.6435643564356437,2.730213131398078
3.6633663366336635,2.7749931567038177
3.683168316831683,2.8171986217630525
3.702970297029703,2.8567812055882946
3.722772277227723,2.8936959368480855
3.7425742574257423,2.9279011550392577
3.762376237623762,2.959358481022715
3.7821782178217824,2.9880327950029213
3.801980198019802,3.0138922203865555
3.8217821782178216,3.0369081122427026
3.841584158415842,3.0570550493205007
3.8613861386138613,3.0743108287716097
3.881188118811881,3.0886564628835576
3.9009900990099013,3.1000761772630465
3.9207920792079207,3.108557410020835
3.9405940594059405,3.1140908116070793
3.96039603960396,3.1166702450312234
3.98019801980198,3.1162927862768166
4.0,3.112958724791937
4.01980198019802,3.106671564002253
4.03960396039604,3.097438021858338
4.0594059405940595,3.0852680314941425
4.079207920792079,3.0701747421406718
4.099009900990099,3.0521745205115547
4.118811881188119,3.0312869529560102
4.138613861386139,3.007534848764273
4.158415841584159,2.980944245112586
4.178217821782178,2.951544414254459
4.198019801980198,2.9193678737064097
4.217821782178218,2.884450400345907
4.237623762376238,2.8468310495447344
4.257425742574258,2.8065521807120453
4.2772277227722775,2.763659490930755
4.297029702970297,2.7182020587547515
4.316831683168317,2.6702324007145317
4.336633663366336,2.619806543682547
4.356435643564357,2.566984117014627
4.376237623762377,2.511828469359035
4.3960396039603955,2.454406816276368
4.415841584158416,2.394790426430637
4.435643564356436,2.3330548562158726
4.455445544554455,2.2692802454383934
4.475247524752476,2.2035516903117713
4.4950495049504955,2.1359597148552814
4.514851485148514,2.066600868260573
4.534653465346535,1.9955784845276239
4.554455445544555,1.923003652552061
4.574257425742574,1.8489964611267669
4.594059405940594,1.7736876057977622
4.613861386138614,1.697220475763143
4.633663366336633,1.619753882717282
4.653465346534653,1.5414656549869257
4.673267326732674,1.4625574068924336
4.693069306930693,1.3832609151376962
4.712871287128713,1.3038467042848547
4.732673267326733,1.2246356768667663
4.752475247524752,1.1460149316293913
4.772277227722772,1.0684592868175087
4.792079207920793,0.9925603918292445
4.811881188118812,0.919065430249466
4.8316831683168315,0.8489266588459269
4.851485148514852,0.7833599535654567
4.871287128712871,0.7239023871090376
4.891089108910891,0.6724418282096487
4.910891089108912,0.6311648486211583
4.930693069306931,0.6023480074226639
4.9504950495049505,0.587948725184432
4.97029702970297,0.5890857232362897
4.99009900990099,0.6056703107427923
5.00990099009901,0.6364379154745216
5.02970297029703,0.679356775318178
5.0495049504950495,0.732144463054902
5.069306930693069,0.7926498004790683
5.089108910891089,0.8590350496906818
5.108910891089109,0.9298121586779561
5.128712871287129,1.0038066914016646
5.148514851485149,1.0800990453875714
5.1683168316831685,1.1579668900630469
5.188118811881188,1.2368371965013565
5.207920792079208,1.316249026926327
5.227722772277227,1.3958256394307293
5.247524752475248,1.4752538917255633
5.267326732673268,1.554269107570261
5.2871287128712865,1.6326439454211787
5.306930693069307,1.7101801748003678
5.326732673267327,1.7867025628045456
5.346534653465346,1.8620542966671951
5.366336633663367,1.936093530677731
5.3861386138613865,2.0086907618266046
5.405940594059405,2.0797268209716564
5.425742574257426,2.14909132482566
5.445544554455446,2.2166814757117446
5.465346534653465,2.2824011258299644
5.485148514851486,2.3461600442315054
5.504950495049505,2.407873340252814
5.524752475247524,2.4674610085260613
5.544554455445545,2.524847569048288
5.564356435643565,2.57996178199715
5.584158415841584,2.6327364216207516
5.603960396039604,2.683108097022049
5.623762376237624,2.7310171103093936
5.643564356435643,2.7764073446098827
5.663366336633663,2.819226176000462
5.683168316831684,2.859424404619219
5.702970297029703,2.896956201160866
5.7227722772277225,2.93177906569968
5.742574257425743,2.9638537963674
5.762376237623762,2.9931444658782755
5.782178217821782,3.0196184042658096
5.801980198019803,3.0432461864957903
5.821782178217822,3.0640016238642986
5.841584158415841,3.0818617582893797
5.861386138613861,3.096806858770184
5.881188118811881,3.10882041942585
5.900990099009901,3.1178891586433255
5.920792079207921,3.1240030189637427
5.9405940594059405,3.1271551674251237
5.96039603960396,3.1273419961574
5.98019801980198,3.1245631230980515
6.0,3.118821392763766
6.01980198019802,3.110122877079557
6.03960396039604,3.098476876332132
6.0594059405940595,3.083895920382042
6.079207920792079,3.06639577034157
6.099009900990099,3.0459954210036524
6.118811881188119,3.0227171043959316
6.138613861386139,2.996586294934993
6.158415841584159,2.967631716773361
6.178217821782178,2.9358853540711323
6.198019801980198,2.901382465090345
6.217821782178218,2.864161601211474
6.237623762376237,2.824264632216569
6.257425742574258,2.781736779485875
6.2772277227722775,2.7366266591287736
6.297029702970296,2.6889863375369174
6.316831683168317,2.6388714024346487
6.336633663366337,2.5863410532438036
6.356435643564356,2.5314582155254834
6.376237623762377,2.4742896854723564
6.396039603960396,2.4149063119875653
6.415841584158415,2.3533832259157195
6.435643564356436,2.2898001286454215
6.455445544554456,2.224241655798636
6.475247524752475,2.156797836360095
6.495049504950495,2.087564673799317
6.514851485148515,2.0166448840864573
6.534653465346534,1.944148836832432
6.554455445544554,1.8701957612735045
6.574257425742575,1.7949153001552156
6.594059405940594,1.7184495241594222
6.6138613861386135,1.6409555608077253
6.633663366336634,1.5626090496697915
6.653465346534653,1.483608717099775
6.673267326732673,1.4041824780517305
6.693069306930694,1.3245956320125676
6.712871287128713,1.245161938786322
6.732673267326732,1.1662586490190265
6.752475247524753,1.0883469182425842
6.772277227722772,1.0119993917520305
6.792079207920792,0.9379369067427947
6.811881188118813,0.8670756745240026
6.8316831683168315,0.8005837296218423
6.851485148514851,0.7399384164660385
6.871287128712871,0.6869616377745642
6.891089108910891,0.6437848841722058
6.910891089108911,0.6126728762004657
6.930693069306931,0.5956530024651706
6.9504950495049505,0.5940105209912955
6.97029702970297,0.6078808180002262
6.99009900990099,0.63620287193673
7.00990099009901,0.6770674656126259
7.02970297029703,0.7282253949942957
7.0495049504950495,0.7874975506860816
7.069306930693069,0.8529905787259193
7.089108910891089,0.9231558141003747
7.108910891089109,0.9967641575756497
7.128712871287128,1.0728507770287685
7.148514851485149,1.1506574508555212
7.1683168316831685,1.2295832021138844
7.188118811881187,1.3091454584982303
7.207920792079208,1.3889507015090488
7.227722772277228,1.4686726956927894
7.247524752475247,1.5480364508171538
7.267326732673268,1.6268064096966999
7.287128712871287,1.7047777167928733
7.306930693069306,1.7817697268706703
7.326732673267327,1.8576211458324063
7.346534653465347,1.9321863666447894
7.366336633663366,2.0053326860388854
7.3861386138613865,2.0769381751437628
7.405940594059406,2.146890039432178
7.425742574257425,2.2150833476961176
7.445544554455446,2.281420041508418
7.465346534653466,2.3458081594806117
7.485148514851485,2.4081612271948645
7.504950495049505,2.46839777578654
7.524752475247524,2.526440961055529
7.544554455445544,2.5822182615837863
7.564356435643565,2.6356612392658656
7.584158415841584,2.6867053493689874
7.603960396039604,2.7352897900512003
7.623762376237624,2.781357383413579
7.643564356435643,2.8248544818127153
7.663366336633663,2.865730894437895
7.683168316831684,2.903939830152994
7.702970297029703,2.939437853384175
7.7227722772277225,2.9721848504512742
7.742574257425743,3.002144004230833
7.762376237623762,3.029281775431033
7.782178217821782,3.053567889074574
7.801980198019803,3.074975325042345
7.821782178217822,3.093480311740307
7.841584158415841,3.1090623221256735
7.861386138613862,3.1217040714728115
7.881188118811881,3.131391516381751
7.900990099009901,3.138113854636646
7.92079207920792,3.14186352561306
7.9405940594059405,3.1426362110138504
7.96039603960396,3.14043083578799
7.980198019801979,3.1352495691553783
8.0,3.127097825728053
8.01980198019802,3.1159842667846274
8.03960396039604,3.1019208018230136
8.05940594059406,3.084922590589286
8.07920792079208,3.065008045858971
8.099009900990099,3.0421988373353703
8.118811881188119,3.016519897129714
8.138613861386139,2.987999427404517
8.158415841584159,2.956668910898735
8.178217821782178,2.9225631252172333
8.198019801980198,2.8857201619649344
8.217821782178218,2.8461814520468067
8.237623762376238,2.8039917987506926
8.257425742574258,2.7591994205962282
8.277227722772277,2.71185600638928
8.297029702970297,2.6620167854937558
8.316831683168317,2.6097406170555932
8.336633663366337,2.555090102832594
8.356435643564357,2.49813172945934
8.376237623762377,2.438936047490298
8.396039603960396,2.377577896526976
8.415841584158416,2.3141366882968093
8.435643564356436,2.248696762919311
8.455445544554456,2.181347838053534
8.475247524752476,2.1121855765670032
8.495049504950495,2.041312306355114
8.514851485148515,1.968837936753436
8.534653465346535,1.8948811307307953
8.554455445544555,1.8195708123038785
8.574257425742575,1.743048116619407
8.594059405940595,1.6654689291106215
8.613861386138613,1.5870072145910008
8.633663366336634,1.507859413463549
8.653465346534654,1.4282502890839082
8.673267326732672,1.3484407589685379
8.693069306930694,1.268738445967583
8.712871287128714,1.1895119544400599
8.732673267326732,1.1112102070507517
8.752475247524753,1.034388519437303
8.772277227722773,0.9597432681502008
8.792079207920791,0.8881565553378541
8.811881188118813,0.8207501131959799
8.831683168316832,0.7589416820213962
8.85148514851485,0.7044839627110884
8.871287128712872,0.6594438882771939
8.891089108910892,0.6260563001346326
8.91089108910891,0.6063942176153695
8.930693069306932,0.6018893139786787
8.950495049504951,0.6128990098157698
8.97029702970297,0.6385856632336605
8.990099009900991,0.6771932257139452
9.00990099009901,0.7265324926509868
9.029702970297029,0.7844123048980792
9.04950495049505,0.8488894613643447
9.06930693069307,0.9183540759466012
9.089108910891088,0.9915187561550098
9.10891089108911,1.0673688699173056
9.12871287128713,1.1451058318889418
9.148514851485148,1.2240967570962706
9.16831683168317,1.3038340937403468
9.188118811881187,1.3839047834965517
9.207920792079207,1.4639672356649187
9.227722772277229,1.5437342970121362
9.247524752475247,1.6229606788763464
9.267326732673267,1.701433650931354
9.287128712871288,1.7789661177788383
9.306930693069306,1.855391435056102
9.326732673267326,1.930559500571071
9.346534653465348,2.0043337855707706
9.366336633663366,2.076589064080457
9.386138613861386,2.147209664493522
9.405940594059407,2.216088114900361
9.425742574257425,2.2831240875519936
9.445544554455445,2.3482235722871354
9.465346534653467,2.4112982264697123
9.485148514851485,2.4722648619229495
9.504950495049505,2.5310450388641677
9.524752475247526,2.587564743898381
9.544554455445544,2.641754134395409
9.564356435643564,2.6935473355365485
9.584158415841586,2.742882279317906
9.603960396039604,2.7897005770874412
9.623762376237623,2.833947418952001
9.643564356435645,2.8755714947516364
9.663366336633663,2.9145249323580686
9.683168316831683,2.9507632498849747
9.702970297029704,2.9842453190529343
9.722772277227723,3.0149333374722502
9.742574257425742,3.042792808023022
9.762376237623764,3.06779252384649
9.782178217821782,3.0899045577332553
9.801980198019802,3.109104254915915
9.821782178217823,3.1253702284565987
9.841584158415841,3.1386843565722486
9.861386138613861,3.1490317813690933
9.881188118811881,3.156400908567403
9.900990099009901,3.160783407893264
9.92079207920792,3.1621742138985183
9.94059405940594,3.160571527047062
9.96039603960396,3.1559768149769774
9.98019801980198,3.1483948139170064
10.0,3.137833530303457
10.01980198019802,3.124304242713428
10.03960396039604,3.1078215043032795
10.05940594059406,3.0884031460204917
10.07920792079208,3.0660702809453966
10.099009900990099,3.040847310219128
10.118811881188119,3.012761931130172
10.138613861386139,2.98184514806803
10.158415841584159,2.9481312872145544
10.178217821782178,2.9116580160389383
10.198019801980198,2.8724663688996057
10.217821782178218,2.830600780347229
10.237623762376238,2.786109128082659
10.257425742574258,2.739042787970609
10.277227722772277,2.6894567040701616
10.297029702970297,2.637409477349147
10.316831683168317,2.582963477645289
10.336633663366337,2.526184984581029
10.356435643564357,2.4671443646090454
10.376237623762377,2.4059162932679965
10.396039603960396,2.3425800342053007
10.415841584158416,2.27721978977334
10.435643564356436,2.2099251422968935
10.455445544554454,2.1407916108177933
10.475247524752476,2.0699213557711027
10.495049504950495,1.9974240743689702
10.514851485148514,1.9234181434994697
10.534653465346535,1.8480320861548618
10.554455445544555,1.7714064638691274
10.574257425742573,1.6936963343232772
10.594059405940595,1.6150744643395372
10.613861386138614,1.535735559746615
10.633663366336632,1.455901872951579
10.653465346534654,1.3758306866735266
10.673267326732674,1.2958243598752093
10.693069306930692,1.2162438691582256
10.712871287128714,1.1375270827494623
10.732673267326733,1.0602133211836615
