Time (s),Filtered Signal
0.0,-0.01513452701499841
0.03337028824833703,0.008854767459218272
0.06674057649667406,-0.03743818223223433
0.10011086474501109,-0.20040374077217418
0.13348115299334812,-0.4871927511386761
0.16685144124168516,-0.864075073786074
0.20022172949002218,-1.2678751612322308
0.2335920177383592,-1.625442201942059
0.26696230598669624,-1.8742082289565514
0.3003325942350333,-1.9777259299533252
0.3337028824833703,-1.932553234312637
0.3670731707317073,-1.7656836184041587
0.40044345898004435,-1.5241514851097115
0.4338137472283814,-1.2602018031314421
0.4671840354767184,-1.016357172676596
0.5005543237250555,-0.8146551381136932
0.5339246119733925,-0.6531472142907822
0.5672949002217295,-0.5105766451100746
0.6006651884700666,-0.35746193224053197
0.6340354767184035,-0.16945790477129247
0.6674057649667406,0.06211865965180102
0.7007760532150776,0.32662507904445937
0.7341463414634146,0.5983975718424465
0.7675166297117517,0.8466856402439056
0.8008869179600887,1.0466216241083852
0.8342572062084257,1.1866475641674918
0.8676274944567628,1.2698892701307876
0.9009977827050998,1.3097917066542057
0.9343680709534368,1.3224591492965934
0.9677383592017739,1.31885682484519
1.001108647450111,1.2995544825383591
1.0344789356984478,1.253699132378111
1.067849223946785,1.1628209109814602
1.101219512195122,1.0088330219947315
1.134589800443459,0.784008764003775
1.167960088691796,0.4991519327837936
1.2013303769401331,0.18566137788020076
1.23470066518847,-0.11118250594198482
1.268070953436807,-0.3465549914398668
1.3014412416851442,-0.4924709352270146
1.3348115299334813,-0.5483131884452718
1.3681818181818182,-0.5394766916459344
1.4015521064301553,-0.5039289012345178
1.4349223946784924,-0.47326795009755596
1.4682926829268292,-0.4584135166172243
1.5016629711751663,-0.4478041434835485
1.5350332594235034,-0.4188888214827575
1.5684035476718403,-0.3559646645248438
1.6017738359201774,-0.2637370074465348
1.6351441241685145,-0.16855761970334684
1.6685144124168514,-0.1064813628594584
1.7018847006651885,-0.10475948049621468
1.7352549889135256,-0.1669063643923979
1.7686252771618625,-0.26930021622553696
1.8019955654101996,-0.3709773341075295
1.8353658536585367,-0.431560366334718
1.8687361419068735,-0.4286679463158593
1.9021064301552106,-0.36710936220536877
1.9354767184035477,-0.27651417955726526
1.9688470066518848,-0.1991703507072307
2.002217294900222,-0.1733901867868219
2.035587583148559,-0.21867284960117417
2.0689578713968957,-0.32759102740279994
2.102328159645233,-0.46667702396636285
2.13569844789357,-0.5856609667408783
2.1690687361419068,-0.6320382202021464
2.202439024390244,-0.5666282884203954
2.235809312638581,-0.3757248401133953
2.269179600886918,-0.07651010229337585
2.302549889135255,0.285739193159654
2.335920177383592,0.6479779841410851
2.369290465631929,0.944623687553302
2.4026607538802662,1.123731577846697
2.436031042128603,1.1597669747025836
2.46940133037694,1.0593864457035052
2.5027716186252773,0.8585113530810559
2.536141906873614,0.6115357279169072
2.569512195121951,0.37595189335407164
2.6028824833702884,0.19709352981227296
2.6362527716186253,0.09751006768768532
2.6696230598669626,0.07376745952231353
2.7029933481152995,0.10092245407781347
2.7363636363636363,0.14254655092273347
2.7697339246119737,0.1628155276744107
2.8031042128603105,0.13712273111693804
2.8364745011086474,0.0586134765550746
2.8698447893569847,-0.06063230953184014
2.9032150776053216,-0.19379196497120244
2.9365853658536585,-0.3078199583723736
2.969955654101996,-0.37423753845841934
3.0033259423503327,-0.3791970763669657
3.0366962305986696,-0.32935778869622945
3.070066518847007,-0.2507405395315164
3.1034368070953438,-0.1798420660648053
3.1368070953436806,-0.14948608809879504
3.170177383592018,-0.17483606376013594
3.203547671840355,-0.24593477746525003
3.2369179600886917,-0.33096101210834544
3.270288248337029,-0.38963232284437693
3.303658536585366,-0.3910860995305821
3.337028824833703,-0.3279725041103373
3.37039911308204,-0.22006029139812947
3.403769401330377,-0.10572314861512622
3.437139689578714,-0.025523365866507403
3.470509977827051,-0.005591874197571797
3.503880266075388,-0.047937649976684524
3.537250554323725,-0.13091612278744355
3.5706208425720622,-0.218304225061608
3.603991130820399,-0.27229102181709486
3.637361419068736,-0.26530343693521485
3.6707317073170733,-0.18732102509354914
3.70410199556541,-0.04765664582176379
3.737472283813747,0.12819215365212092
3.7708425720620844,0.3054212107670515
3.8042128603104213,0.4492367132474304
3.8375831485587586,0.5349817444338428
3.8709534368070955,0.5566083310447588
3.9043237250554323,0.5302791048054043
3.9376940133037697,0.490280523817562
3.9710643015521065,0.47669323335332625
4.004434589800444,0.5179734417696583
4.037804878048781,0.6150714423280087
4.071175166297118,0.7347835053954603
4.1045454545454545,0.8173517401212068
4.137915742793791,0.7974183530656742
4.171286031042128,0.6308124905160676
4.204656319290466,0.3157192508338425
4.238026607538803,-0.10192579568029099
4.27139689578714,-0.5424343810470484
4.304767184035477,-0.9204483262138747
4.3381374722838135,-1.1749467916535374
4.371507760532151,-1.2879080272379373
4.404878048780488,-1.283752800078914
4.438248337028825,-1.2109172944187787
4.471618625277162,-1.1152502254493335
4.504988913525499,-1.01825407022894
4.538359201773836,-0.9100803689197628
4.571729490022173,-0.7595506474861475
4.60509977827051,-0.5353058989153864
4.638470066518847,-0.2273811631038174
4.671840354767184,0.1410347120204034
4.705210643015521,0.5168821350989513
4.738580931263858,0.8338887138788605
4.771951219512196,1.0353197716360538
4.8053215077605325,1.0934486895564732
4.838691796008869,1.0183012604297668
4.872062084257206,0.8529409223879648
4.905432372505543,0.6578639290415845
4.93880266075388,0.4908610127152111
4.972172949002218,0.3897661760483032
5.005543237250555,0.3637886362142313
5.0389135254988915,0.3954875289978827
5.072283813747228,0.4513459788887758
5.105654101995565,0.4959059525165361
5.139024390243902,0.5036899006508407
5.17239467849224,0.4648439879641979
5.205764966740577,0.3836412425176898
5.239135254988914,0.2720679520936361
5.2725055432372505,0.1422923296923769
5.305875831485587,0.0014387815020556439
5.339246119733925,-0.14962700584022304
5.372616407982262,-0.31373245926376847
5.405986696230599,-0.492555818316101
5.439356984478936,-0.6814396417201861
5.472727272727273,-0.8657413610574894
5.5060975609756095,-1.020420729001431
5.539467849223947,-1.1141415246385156
5.572838137472284,-1.1180374045876096
5.606208425720621,-1.0172535328149679
5.639578713968958,-0.8210653996456909
5.672949002217295,-0.5662426044445478
5.706319290465632,-0.3097904737551835
5.7396895787139695,-0.11147847986351847
5.773059866962306,-0.0119909109189129
5.806430155210643,-0.01613185473611697
5.83980044345898,-0.08966772870452058
5.873170731707317,-0.1726763880125309
5.906541019955654,-0.20417250134339604
5.939911308203992,-0.14660893965636074
5.9732815964523285,0.0016141198996246098
6.006651884700665,0.21141727068809482
6.040022172949002,0.44223015626035816
6.073392461197339,0.6635011671510787
6.106762749445676,0.8658294496861674
6.140133037694014,1.0554893205325062
6.173503325942351,1.2364454043286959
6.2068736141906875,1.3919807292427058
6.240243902439024,1.4789325659764636
6.273614190687361,1.4406001808365834
6.306984478935698,1.2335071323283218
6.340354767184036,0.8544905854813443
6.373725055432373,0.35304053316366996
6.40709534368071,-0.17946692216696178
6.4404656319290465,-0.6404224317213789
6.473835920177383,-0.9529858561477577
6.507206208425721,-1.0923292768630937
6.540576496674058,-1.0890957046205205
6.573946784922395,-1.0091771112899242
6.607317073170732,-0.9203834647107355
6.640687361419069,-0.8625348791246674
6.674057649667406,-0.8349653658623052
6.707427937915743,-0.805833675226433
6.74079822616408,-0.7362079876938223
6.774168514412417,-0.6047842898406258
6.807538802660754,-0.41995157420731105
6.840909090909091,-0.2138303018019117
6.874279379157428,-0.023145790827712058
6.9076496674057655,0.13132235833308872
6.941019955654102,0.25487674039344255
6.974390243902439,0.37303162544462914
7.007760532150776,0.5129519092185555
7.041130820399113,0.6823831273267614
7.07450110864745,0.8577544783946305
7.107871396895788,0.9887525728452438
7.1412416851441245,1.0186153361451793
7.174611973392461,0.9114489662193053
7.207982261640798,0.6737031033926881
7.241352549889135,0.3586488036081212
7.274722838137472,0.049866163083227756
7.30809312638581,-0.17061370627986785
7.341463414634147,-0.25616446669644893
7.3748337028824835,-0.21614234963762813
7.40820399113082,-0.1130584170627817
7.441574279379157,-0.03637776737319717
7.474944567627494,-0.06358957293874466
7.508314855875832,-0.22534185600117237
7.541685144124169,-0.4901703113959141
7.575055432372506,-0.7760465131124219
7.6084257206208425,-0.9841924275810335
7.641796008869179,-1.0405807464900494
7.675166297117517,-0.926863475549178
7.708536585365854,-0.6869985426019787
7.741906873614191,-0.40669536470107487
7.775277161862528,-0.17508876912866075
7.808647450110865,-0.04611072263210687
7.842017738359202,-0.01708719593905907
7.875388026607539,-0.03405399281215971
7.908758314855876,-0.020833755576637577
7.942128603104213,0.08214989868523546
7.97549889135255,0.2877407939977822
8.008869179600888,0.5545582729149247
8.042239467849225,0.8049741435380753
8.075609756097561,0.9592440443142412
8.108980044345898,0.9694592906437038
8.142350332594235,0.8383059273156866
8.175720620842572,0.6158804555131695
8.209090909090909,0.3781398152114098
8.242461197339246,0.19769054073343728
8.275831485587583,0.11882340964971999
8.30920177383592,0.14479854259936684
8.342572062084257,0.2395180239244157
8.375942350332595,0.34098889940743393
8.409312638580932,0.38167261774628775
8.442682926829269,0.31030978734500453
8.476053215077606,0.109853619539513
8.509423503325943,-0.19366408701099966
8.54279379157428,-0.5353503872470734
8.576164079822616,-0.8295527838867354
8.609534368070953,-0.9975096984303966
8.64290465631929,-0.9951933269117462
8.676274944567627,-0.8301212440332844
8.709645232815964,-0.5592075605485153
8.743015521064303,-0.2674381955385239
8.77638580931264,-0.035776731521828635
8.809756097560976,0.08818294185286696
8.843126385809313,0.1044756095907618
8.87649667405765,0.05455637962021566
8.909866962305987,-0.0014860177173050108
8.943237250554324,-0.01335240870546733
8.97660753880266,0.03803396945220361
9.009977827050998,0.134705118740798
9.043348115299334,0.232685545873622
9.076718403547671,0.28392687548496565
9.110088691796008,0.2591081979702996
9.143458980044347,0.1616320278702837
9.176829268292684,0.027314443216263064
9.21019955654102,-0.08972755280575778
9.243569844789358,-0.13903948124681714
9.276940133037694,-0.09475172274082728
9.310310421286031,0.0328974295802159
9.343680709534368,0.2000439042937847
9.377050997782705,0.3447417089325037
9.410421286031042,0.409460900552651
9.443791574279379,0.36179064468202377
9.477161862527716,0.20559391637759006
9.510532150776053,-0.021036548754660087
9.543902439024391,-0.25941595372965887
9.577272727272728,-0.44982605049692503
9.610643015521065,-0.5499286778982592
9.644013303769402,-0.546259458057246
9.677383592017739,-0.4558866022562374
9.710753880266076,-0.31843218521982414
9.744124168514412,-0.18122461354734148
9.77749445676275,-0.08215341047560411
9.810864745011086,-0.03571382138737275
9.844235033259423,-0.027380725245198044
9.87760532150776,-0.019350162292964494
9.910975609756099,0.03315932232582323
9.944345898004435,0.1603987170881811
9.977716186252772,0.35999236583359545
10.01108647450111,0.5908552948133439
10.044456762749446,0.7836666497557253
10.077827050997783,0.8655918782001665
10.11119733924612,0.7902139875618758
10.144567627494457,0.560221991858902
10.177937915742794,0.2322408555914649
10.21130820399113,-0.10002843334147361
10.244678492239467,-0.33900687345450325
10.278048780487804,-0.419776172115378
10.311419068736143,-0.33459317050815873
10.34478935698448,-0.13460010727035637
10.378159645232817,0.09213843694071659
10.411529933481154,0.25645858843055847
10.44490022172949,0.3018314120481231
10.478270509977827,0.22165282306290301
10.511640798226164,0.05419105563491787
10.545011086474501,-0.13992290233812954
10.578381374722838,-0.305311081731449
10.611751662971175,-0.4115969662116915
10.645121951219512,-0.45807465071619363
10.67849223946785,-0.46441642939621913
10.711862527716187,-0.4548136682947239
10.745232815964524,-0.4444318263874848
10.778603104212861,-0.4340309807214018
10.811973392461198,-0.41351962946112863
10.845343680709535,-0.3708895945768299
10.878713968957872,-0.30113658329165854
10.912084257206208,-0.21061763372163064
10.945454545454545,-0.11496843727194728
10.978824833702882,-0.03188015323445989
11.012195121951219,0.02757834325056183
11.045565410199556,0.06473080265629441
11.078935698447895,0.0930905598098449
11.112305986696231,0.1318534991354831
11.145676274944568,0.19576116781868633
11.179046563192905,0.285946606549412
11.212416851441242,0.3863306855752642
11.245787139689579,0.46800679501398645
11.279157427937916,0.500594460696255
11.312527716186253,0.4661219916559343
11.34589800443459,0.36914618873172456
11.379268292682926,0.23766035831675525
11.412638580931263,0.11299458381482269
11.4460088691796,0.0321160907470597
11.479379157427939,0.010120546354641725
11.512749445676276,0.03179005002789939
11.546119733924613,0.05768745611035864
11.57949002217295,0.04343382001115551
11.612860310421286,-0.03625198489222467
11.646230598669623,-0.17068334583962494
11.67960088691796,-0.3130414156104725
11.712971175166297,-0.39876915651278405
11.746341463414634,-0.37499322505634325
11.77971175166297,-0.2272184093086973
11.813082039911308,0.009977814750477767
11.846452328159646,0.26419385581068927
11.879822616407983,0.453748615563447
11.91319290465632,0.5204893203122573
11.946563192904657,0.4519679104723876
11.979933481152994,0.2835440438872497
12.01330376940133,0.08069715090593318
12.046674057649668,-0.08922147501858176
12.080044345898004,-0.18268486518030527
12.113414634146341,-0.1926116760835451
12.146784922394678,-0.14449938863754802
12.180155210643015,-0.08032309189081287
12.213525498891352,-0.038970865541237014
12.24689578713969,-0.04177423525841173
12.280266075388028,-0.08775566416020088
12.313636363636364,-0.15816215707376177
12.347006651884701,-0.22626993973521475
12.380376940133038,-0.26761085449499283
12.413747228381375,-0.26729627949950596
12.447117516629712,-0.22348419815907775
12.480487804878049,-0.14765886235923684
12.513858093126386,-0.06256467433476423
12.547228381374723,0.0021310452715183866
12.58059866962306,0.016852494936276798
12.613968957871396,-0.038523273383882936
12.647339246119735,-0.16510038635198782
12.680709534368072,-0.3390340463181415
12.714079822616409,-0.5132099576511412
12.747450110864746,-0.628342498621651
12.780820399113082,-0.6313964875811875
12.81419068736142,-0.49531167167680384
12.847560975609756,-0.2321629329039808
12.880931263858093,0.10650406591611714
12.91430155210643,0.443624899082447
12.947671840354767,0.7003545237524375
12.981042128603104,0.8208273850598206
13.014412416851442,0.7887712836356512
13.04778270509978,0.6304332190254881
13.081152993348116,0.4039986979342442
13.114523281596453,0.18062378733673035
13.14789356984479,0.02420093036824079
13.181263858093127,-0.02425963981466512
13.214634146341464,0.04520498228960981
13.2480044345898,0.21082709056292548
13.281374722838137,0.42464927848218204
13.314745011086474,0.6231161094635087
13.348115299334811,0.741765520234641
13.381485587583148,0.7322391810828679
13.414855875831487,0.5778863486756181
13.448226164079824,0.30250188987905957
13.48159645232816,-0.03290218371028687
13.514966740576497,-0.346935225840807
13.548337028824834,-0.5642694655230791
13.581707317073171,-0.6424735129305744
13.615077605321508,-0.5882517058561071
13.648447893569845,-0.45531131565254607
13.681818181818182,-0.32334660122971526
13.715188470066519,-0.26584359052457823
13.748558758314855,-0.31974790177492557
13.781929046563192,-0.4698383448304619
13.815299334811531,-0.6547452621618375
13.848669623059868,-0.7924103574354961
13.882039911308205,-0.8143929980308867
13.915410199556542,-0.6944982188995982
13.948780487804878,-0.45952428540403356
13.982150776053215,-0.1775916505966011
14.015521064301552,0.07073891523095706
14.048891352549889,0.2258115908961265
14.082261640798226,0.2720768582422382
14.115631929046563,0.24132398157960536
14.1490022172949,0.19532094940497652
14.182372505543238,0.19642856788661242
14.215742793791575,0.2795959440991407
14.249113082039912,0.4376458873342519
14.282483370288249,0.6251242377699882
14.315853658536586,0.7776994233068774
14.349223946784923,0.8379853171018481
14.38259423503326,0.7770620997892536
14.415964523281596,0.6038860527878837
14.449334811529933,0.3602819228410619
14.48270509977827,0.10471200353460491
14.516075388026607,-0.10845510853561857
14.549445676274944,-0.246643677865743
14.582815964523283,-0.3078212468367549
14.61618625277162,-0.3176303241112734
14.649556541019956,-0.3161984575681616
14.682926829268293,-0.33961631540035325
14.71629711751663,-0.40333389651553053
14.749667405764967,-0.4944445836469767
14.783037694013304,-0.576567609402525
14.81640798226164,-0.6056984218053396
14.849778270509978,-0.5502515566815779
14.883148558758315,-0.40625915092303144
14.916518847006651,-0.2007852852673748
14.949889135254988,0.01782664399859813
14.983259423503327,0.19817854178266103
15.016629711751664,0.3044122479212787
15.05,0.32779695612510673
15.083370288248338,0.2878022219028579
15.116740576496674,0.22369669063909248
15.150110864745011,0.18073371836328803
15.183481152993348,0.1957203705911859
15.216851441241685,0.28584103242279396
15.250221729490022,0.4431138526880049
15.283592017738359,0.6354851475130465
15.316962305986696,0.8143655568761624
15.350332594235034,0.9271440529696026
15.383702882483371,0.931829495720423
15.417073170731708,0.8098363681196913
15.450443458980045,0.5727290398750348
15.483813747228382,0.2600338694117052
15.517184035476719,-0.07201507852381907
15.550554323725056,-0.36756854951556706
15.583924611973393,-0.5882863612280556
15.61729490022173,-0.7241585767551767
15.650665188470066,-0.7937060546396457
15.684035476718403,-0.8332191713571854
15.71740576496674,-0.8791066318204891
15.750776053215079,-0.9504027701626849
15.784146341463416,-1.0386364344699033
15.817516629711752,-1.1094052409135782
15.85088691796009,-1.1152794289675303
15.884257206208426,-1.0150610606823687
15.917627494456763,-0.791852850694289
15.9509977827051,-0.46286361489427286
15.984368070953437,-0.07714874258962634
16.017738359201775,0.2978084357588293
16.05110864745011,0.5955602622616848
16.08447893569845,0.7691158815266147
16.117849223946784,0.8022463894485244
16.151219512195123,0.7109394100250165
16.184589800443458,0.5361629612758504
16.217960088691797,0.3316937090727467
16.251330376940132,0.15120922667789763
16.28470066518847,0.03764210198783856
16.31807095343681,0.016193381085828115
16.351441241685144,0.0913690369909708
16.384811529933483,0.24801433381915733
16.418181818181818,0.4560037804406754
16.451552106430157,0.6775376741973641
16.48492239467849,0.8751113411488355
16.51829268292683,1.0178921846514601
16.551662971175165,1.0850000217140265
16.585033259423504,1.065764398474735
16.61840354767184,0.9584242765757844
16.651773835920178,0.7689759505619377
16.685144124168513,0.5108551884666042
16.71851441241685,0.20473632415582182
16.75188470066519,-0.12289215074244601
16.785254988913525,-0.44305277782516067
16.818625277161864,-0.7287806450948452
16.8519955654102,-0.9590719041496137
16.885365853658538,-1.120741121996874
16.918736141906873,-1.2078881567836814
16.95210643015521,-1.2200425039558414
16.985476718403547,-1.1606068668421732
17.018847006651885,-1.0366643600445018
17.05221729490022,-0.8600037834495481
17.08558758314856,-0.6481681908081381
17.118957871396898,-0.42406639447066397
17.152328159645233,-0.21329962667018496
17.18569844789357,-0.03944187999488289
17.219068736141907,0.08149975966054036
17.252439024390245,0.14570075495876283
17.28580931263858,0.16347701025021222
17.31917960088692,0.15731984419468292
17.352549889135254,0.15568006468256995
