Time (s),Filtered Signal
0.0,-0.09074915526016449
0.03337004405286344,-0.13349978474751434
0.06674008810572687,-0.16570677999749353
0.10011013215859031,-0.1808647195211643
0.13348017621145375,-0.17585647519970166
0.16685022026431717,-0.1515334735104906
0.20022026431718062,-0.1124733681702788
0.23359030837004408,-0.06612639874062609
0.2669603524229075,-0.02161755745468243
0.3003303964757709,0.01165446184853882
0.33370044052863435,0.025653920293726998
0.3670704845814978,0.015614655283886336
0.40044052863436125,-0.018062786261595142
0.43381057268722467,-0.068716360175248
0.46718061674008815,-0.12420725190328934
0.5005506607929515,-0.17021454015402465
0.533920704845815,-0.19538574761678337
0.5672907488986785,-0.19618186739251822
0.6006607929515418,-0.17863084609324878
0.6340308370044053,-0.15527514417603455
0.6674008810572687,-0.13811803288307214
0.7007709251101322,-0.13095763289541248
0.7341409691629956,-0.12543725249595428
0.767511013215859,-0.10355514684853523
0.8008810572687225,-0.0459191526430349
0.834251101321586,0.058362476994192315
0.8676211453744493,0.20547587062845088
0.9009911894273128,0.3777786133210963
0.9343612334801763,0.5510580041808312
0.9677312775330397,0.703675446011408
1.001101321585903,0.8220949765078807
1.0344713656387665,0.8998689303993298
1.06784140969163,0.9317268885396716
1.1012114537444935,0.9079398494717629
1.134581497797357,0.8141174717360796
1.1679515418502202,0.6378886912982024
1.2013215859030837,0.37896859031405145
1.2346916299559472,0.05637742626314613
1.2680616740088106,-0.2920002778212766
1.3014317180616741,-0.6178269548802126
1.3348017621145374,-0.874736344726815
1.3681718061674009,-1.0296906756358735
1.4015418502202643,-1.0703768010172032
1.4349118942731278,-1.008656628790179
1.4682819383259913,-0.8807980148374829
1.5016519823788548,-0.7432635082691676
1.535022026431718,-0.660888930025686
1.5683920704845815,-0.6858546448733991
1.601762114537445,-0.8318334070568382
1.6351321585903085,-1.0547089762467416
1.668502202643172,-1.2535426321018426
1.7018722466960352,-1.2991804245703589
1.7352422907488987,-1.0845566316167112
1.7686123348017622,-0.5771063868415365
1.8019823788546256,0.15199705808399844
1.8353524229074891,0.9400123052343635
1.8687224669603526,1.5865055232596916
1.9020925110132159,1.928678688457932
1.9354625550660793,1.905494274078556
1.9688325991189428,1.5811147414045432
2.002202643171806,1.116338114910239
2.0355726872246698,0.7009134275713083
2.068942731277533,0.47736516230496256
2.1023127753303967,0.48939243328366844
2.13568281938326,0.6747272885022518
2.1690528634361232,0.9013005740361658
2.202422907488987,1.0274308067162414
2.23579295154185,0.9592695501145628
2.269162995594714,0.6833782492970208
2.302533039647577,0.26497153294778175
2.3359030837004404,-0.1834144693704763
2.369273127753304,-0.5477988025260982
2.4026431718061674,-0.7546652513625918
2.436013215859031,-0.7937574536001096
2.4693832599118943,-0.7148525727707801
2.5027533039647576,-0.6016318828988112
2.5361233480176213,-0.5342055682083249
2.5694933920704845,-0.5558570592693124
2.6028634361233483,-0.6576302616503524
2.6362334801762115,-0.7869456256913416
2.6696035242290748,-0.876110683394379
2.7029735682819385,-0.8775393369312898
2.7363436123348017,-0.7888948241967727
2.7697136563876654,-0.6554610771609842
2.8030837004405287,-0.5476114724906959
2.8364537444933924,-0.5236324292708886
2.8698237885462556,-0.5962365845752093
2.903193832599119,-0.7203574525804419
2.9365638766519826,-0.8099714333421696
2.969933920704846,-0.7772202852740335
3.0033039647577096,-0.5752381271051483
3.036674008810573,-0.223168885790982
3.070044052863436,0.20005784989545083
3.1034140969162998,0.5911485612216065
3.136784140969163,0.8698843102121778
3.1701541850220267,1.0146419196965704
3.20352422907489,1.067723900882187
3.2368942731277532,1.107764110962236
3.270264317180617,1.20375477879024
3.30363436123348,1.374857009054607
3.337004405286344,1.5768401352528867
3.370374449339207,1.721687736132412
3.4037444933920704,1.7195808602124547
3.437114537444934,1.521466542302327
3.4704845814977974,1.141237135871485
3.503854625550661,0.6480524642996122
3.5372246696035243,0.13481304440028122
3.5705947136563876,-0.32005978352974873
3.6039647577092513,-0.6788703232540844
3.6373348017621145,-0.9481525156292601
3.6707048458149782,-1.1609332160038368
3.7040748898678415,-1.3492894280795553
3.737444933920705,-1.52192660187045
3.7708149779735685,-1.6572405005787088
3.8041850220264317,-1.7136557201300373
3.8375550660792954,-1.6506598518796054
3.8709251101321587,-1.4497361524532923
3.9042951541850224,-1.1256624402962092
3.9376651982378856,-0.7239750259545097
3.971035242290749,-0.30679722637348894
4.004405286343612,0.06622306881731842
4.037775330396476,0.35405126243870544
4.0711453744493395,0.5419696026048105
4.104515418502203,0.6395365759726267
4.137885462555066,0.6715134461718477
4.171255506607929,0.66660911226339
4.2046255506607935,0.6485595690197294
4.237995594713657,0.6319050098198544
4.27136563876652,0.622238338571186
4.304735682819383,0.6189532296470884
4.3381057268722465,0.6181831620053858
4.371475770925111,0.6144524601437606
4.404845814977974,0.600856498896915
4.438215859030837,0.5686628130102682
4.4715859030837,0.5076751402457342
4.504955947136564,0.40841165765059173
4.538325991189428,0.2661936098787945
4.571696035242291,0.085913789855722
4.605066079295154,-0.11484533315330527
4.638436123348018,-0.30677489394087715
4.671806167400881,-0.45497230807189853
4.705176211453745,-0.5289519571969877
4.738546255506608,-0.5130589945998855
4.7719162995594715,-0.413133020995517
4.805286343612335,-0.25656140107853037
4.838656387665198,-0.08543318505945005
4.872026431718062,0.054965282304998905
4.905396475770925,0.12864282125118878
4.938766519823789,0.11866958162650883
4.972136563876652,0.03148834574358356
5.005506607929515,-0.1054485927103392
5.038876651982379,-0.2522215661814747
5.072246696035243,-0.3689212316672185
5.105616740088106,-0.4283424310007214
5.138986784140969,-0.4245554101251132
5.172356828193832,-0.3738850184080474
5.2057268722466965,-0.3073516050344415
5.23909691629956,-0.2570961007570065
5.272466960352423,-0.2422367763614838
5.305837004405286,-0.2603805516810202
5.3392070484581495,-0.28885038612878555
5.372577092511014,-0.2952872113514516
5.405947136563877,-0.25270124251546555
5.43931718061674,-0.1517059610116751
5.4726872246696034,-0.003970317990852583
5.506057268722468,0.16463663649231994
5.539427312775331,0.3273825537336692
5.572797356828194,0.46918585995697726
5.606167400881057,0.5913075282195479
5.639537444933921,0.7053375258595451
5.672907488986785,0.819566565572638
5.706277533039648,0.9255763164651384
5.739647577092511,0.9936544429096202
5.7730176211453745,0.9815517515601985
5.806387665198238,0.8538630919355849
5.839757709251102,0.6027128126616704
5.873127753303965,0.2584303445886312
5.9064977973568284,-0.11673609082468415
5.939867841409692,-0.45004346386944366
5.973237885462555,-0.6847075067544989
6.006607929515419,-0.7984667879606184
6.039977973568282,-0.8057887289573825
6.073348017621146,-0.7442691238424709
6.106718061674009,-0.6539277711609838
6.140088105726872,-0.5607431598251194
6.173458149779736,-0.4718844058877464
6.2068281938325995,-0.3825822194905502
6.240198237885463,-0.28809277484339163
6.273568281938326,-0.19228740950503184
6.306938325991189,-0.10761734569824011
6.3403083700440535,-0.04718201091233242
6.373678414096917,-0.014660040093154931
6.40704845814978,0.0009237875596950319
6.440418502202643,0.021691230195694907
6.4737885462555065,0.07007994138824013
6.507158590308371,0.1564986895498452
6.540528634361234,0.27229349525910235
6.573898678414097,0.39205209846421707
6.60726872246696,0.48428915956630203
6.640638766519824,0.5250900282863181
6.674008810572688,0.5077280135635284
6.707378854625551,0.443461716785056
6.740748898678414,0.353517040311543
6.774118942731278,0.25706047896301404
6.807488986784141,0.16209892360352376
6.840859030837005,0.0644425015087691
6.874229074889868,-0.044931276891598655
6.9075991189427315,-0.16889490605271645
6.940969162995595,-0.29678923524210665
6.974339207048458,-0.4059757650608897
7.007709251101322,-0.47227488570297793
7.041079295154185,-0.4834423946103402
7.074449339207049,-0.4472812906013125
7.107819383259912,-0.388622862594499
7.141189427312775,-0.3359953263172376
7.174559471365639,-0.3054006725120379
7.207929515418503,-0.2910045737564311
7.241299559471366,-0.26892905911721654
7.274669603524229,-0.21268461541471692
7.308039647577092,-0.111665575724268
7.3414096916299565,0.01810314540254128
7.37477973568282,0.13775892659578876
7.408149779735683,0.20282026886287677
7.441519823788546,0.1854836725584961
7.47488986784141,0.09100822128793036
7.508259911894274,-0.03977029621999621
7.541629955947137,-0.14309845881482663
7.575,-0.15478593183231928
7.608370044052863,-0.03352744988045305
7.641740088105728,0.22346132987952863
7.675110132158591,0.5773990882292924
7.708480176211454,0.9575701479785369
7.741850220264317,1.2796930847391776
7.775220264317181,1.4671387321320257
7.808590308370045,1.4694173717351147
7.841960352422908,1.2740650006564522
7.875330396475771,0.9099197417289776
7.9087004405286345,0.44111576632694594
7.942070484581498,-0.04767396842662247
7.975440528634362,-0.47230414851292424
8.008810572687224,-0.7714527985045304
8.042180616740088,-0.9230764620707982
8.075550660792953,-0.9485027068760288
8.108920704845815,-0.9015026757211714
8.142290748898679,-0.8456285260216582
8.175660792951541,-0.828398598869446
8.209030837004406,-0.8628591499621168
8.24240088105727,-0.9243932557873522
8.275770925110132,-0.9642673261335459
8.309140969162996,-0.9340103831467337
8.342511013215859,-0.8096802229906648
8.375881057268723,-0.6048641970633876
8.409251101321587,-0.36623571199135185
8.44262114537445,-0.15352532299846997
8.475991189427313,-0.013132924716393681
8.509361233480176,0.04230108657986134
8.54273127753304,0.0388395102627224
8.576101321585904,0.02852201566917903
8.609471365638766,0.0650515524198807
8.64284140969163,0.1791793627137271
8.676211453744493,0.3648983827275201
8.709581497797357,0.5823706198780488
8.742951541850221,0.7759370844495073
8.776321585903084,0.8990061228077182
8.809691629955948,0.9347508005248543
8.84306167400881,0.9033411097525355
8.876431718061674,0.8520625953776002
8.909801762114538,0.83195932956091
8.9431718061674,0.8707896489030797
8.976541850220265,0.9545216096105452
9.009911894273127,1.0269074977733514
9.043281938325991,1.0094132916855458
9.076651982378856,0.8346457322654823
9.110022026431718,0.47944899277644587
9.143392070484582,-0.01737305543077347
9.176762114537445,-0.5619980408899166
9.210132158590309,-1.035892862367018
9.243502202643173,-1.337542870855294
9.276872246696035,-1.41810266030087
9.3102422907489,-1.295908637201743
9.343612334801762,-1.0442628724151535
9.376982378854626,-0.7589233634934759
9.41035242290749,-0.5205414745560253
9.443722466960352,-0.36869221113868805
9.477092511013216,-0.2976373348311453
9.510462555066079,-0.2729286707585077
9.543832599118943,-0.2579758845069289
9.577202643171807,-0.23573809584954164
9.61057268722467,-0.2145570132281205
9.643942731277534,-0.21650551327294545
9.677312775330396,-0.25628723412691745
9.71068281938326,-0.32351824838939935
9.744052863436124,-0.37886228388047144
9.777422907488987,-0.3667102968585773
9.81079295154185,-0.2384292472934403
9.844162995594713,0.02477005690422626
9.877533039647577,0.3995123694404953
9.910903083700441,0.8233464470060337
9.944273127753304,1.2115636037673112
9.977643171806168,1.4813815870703524
10.01101321585903,1.575576787726705
10.044383259911895,1.4786472519541272
10.077753303964759,1.2209001767882466
10.111123348017621,0.8688124586256472
10.144493392070485,0.5036696859361016
10.177863436123348,0.19467381832315855
10.211233480176212,-0.023953770682320255
10.244603524229076,-0.1621611649115044
10.277973568281938,-0.26435107492189897
10.311343612334802,-0.383802855504305
10.344713656387665,-0.552469577164622
10.378083700440529,-0.7608834288930214
10.411453744493393,-0.9590038436393067
10.444823788546255,-1.078810416541049
10.47819383259912,-1.0681962924386637
10.511563876651982,-0.9193012690240364
10.544933920704846,-0.6766113016502372
10.57830396475771,-0.42013886121261074
10.611674008810573,-0.2316239524625628
10.645044052863437,-0.16021871446768868
10.678414096916299,-0.20402469904326934
10.711784140969163,-0.3153919466146616
10.745154185022027,-0.42581921463193395
10.77852422907489,-0.47706163216906144
10.811894273127754,-0.4432104445387548
10.845264317180618,-0.33444511100154006
10.87863436123348,-0.18321389571709662
10.912004405286345,-0.02229431356381122
10.945374449339207,0.132804424563459
10.978744493392071,0.2883176918218037
11.012114537444935,0.462622743039195
11.045484581497798,0.6691243463924694
11.078854625550662,0.9016382483928098
11.112224669603524,1.130358035615175
11.145594713656388,1.3106845118662702
11.178964757709252,1.4006320812412187
11.212334801762115,1.378341318280435
11.245704845814979,1.251240671122784
11.279074889867841,1.0524581247475433
11.312444933920705,0.8261934535346577
11.34581497797357,0.6090045431673539
11.379185022026432,0.41585799550243235
11.412555066079296,0.23747342547853528
11.445925110132158,0.050050292272489236
11.479295154185023,-0.16757787165969107
11.512665198237887,-0.41812648635561156
11.546035242290749,-0.6797718292874786
11.579405286343613,-0.9135414955178203
11.612775330396476,-1.0810820769895075
11.64614537444934,-1.164040911190831
11.679515418502204,-1.174852525320496
11.712885462555066,-1.1524772152348144
11.74625550660793,-1.1439496387205317
11.779625550660793,-1.1799527852514555
11.812995594713657,-1.256345054086553
11.846365638766521,-1.3315262407460493
11.879735682819383,-1.3423364499794042
11.913105726872248,-1.2320993981261663
11.94647577092511,-0.9779533098901237
11.979845814977974,-0.6042643673764949
12.013215859030838,-0.17522972475164633
12.0465859030837,0.23021233663033247
12.079955947136565,0.5494296847017579
12.113325991189427,0.7586585003852003
12.146696035242291,0.8772210152705983
12.180066079295155,0.9528086879591591
12.213436123348018,1.036125083043875
12.246806167400882,1.1571462338435043
12.280176211453744,1.3128697174881874
12.313546255506608,1.4698792798204734
12.346916299559473,1.5784108257987504
12.380286343612335,1.5910948443096253
12.413656387665199,1.4797873016219696
12.447026431718061,1.2461612940347813
12.480396475770926,0.9238364062874234
12.51376651982379,0.5710299908178162
12.547136563876652,0.25406325553473996
12.580506607929516,0.024904634588864324
12.613876651982379,-0.1000169995166203
12.647246696035243,-0.14985451579900977
12.680616740088107,-0.1904313410173021
12.71398678414097,-0.2963892943475684
12.747356828193833,-0.5148635674746869
12.780726872246696,-0.8380685213495516
12.81409691629956,-1.2002272224267991
12.847466960352424,-1.5030235436261055
12.880837004405286,-1.6587216778560512
12.91420704845815,-1.6297997030003497
12.947577092511013,-1.4447117447491318
12.980947136563877,-1.1813647407994188
13.014317180616741,-0.9267490823756019
13.047687224669604,-0.7337171029716134
13.081057268722468,-0.5973349914317044
13.11442731277533,-0.4628237242282184
13.147797356828194,-0.26049776593541935
13.181167400881058,0.05087679396880662
13.21453744493392,0.45501715337009735
13.247907488986785,0.8784338422221557
13.281277533039647,1.2200298834597914
13.314647577092511,1.395151736111631
13.348017621145376,1.3723411152232021
13.381387665198238,1.1850734283740636
13.414757709251102,0.9132863801874376
13.448127753303964,0.6441479090007706
13.481497797356829,0.4314049021873093
13.514867841409693,0.27342319998916265
13.548237885462555,0.12133863769009708
13.58160792951542,-0.08575885213546308
13.614977973568282,-0.3756165092781967
13.648348017621146,-0.7112126430441349
13.68171806167401,-0.991642803245125
13.715088105726872,-1.089478443263442
13.748458149779736,-0.9101363529456762
13.781828193832599,-0.44602851636968305
13.815198237885463,0.20182605200816478
13.848568281938327,0.8485711378297224
13.88193832599119,1.2894560071666012
13.915308370044054,1.3770893472076122
13.948678414096916,1.0789482125878633
13.98204845814978,0.49005511099083987
14.015418502202644,-0.20462421013154944
14.048788546255507,-0.8013218761118558
14.08215859030837,-1.1511122051044902
14.115528634361233,-1.2052851268490434
14.148898678414097,-1.0160119694185914
14.182268722466961,-0.6969107545592234
14.215638766519824,-0.3655090143864181
14.249008810572688,-0.09536199651520845
14.28237885462555,0.10207039761308571
14.315748898678414,0.261981038664549
14.349118942731279,0.4298695933589423
14.382488986784141,0.6257340436182901
14.415859030837005,0.8277147290736382
14.449229074889868,0.9823463017811049
14.482599118942732,1.0340270029116825
14.515969162995596,0.9564492835919731
14.549339207048458,0.7683290521232251
14.582709251101322,0.5246869961927803
14.616079295154185,0.2883626683207583
14.649449339207049,0.09734407298145248
14.682819383259913,-0.053895443922572527
14.716189427312775,-0.20809360981381797
14.74955947136564,-0.4164165655658539
14.782929515418502,-0.7022492264589041
14.816299559471366,-1.0374256746244666
14.84966960352423,-1.344983843445698
14.883039647577093,-1.5290100164472338
14.916409691629957,-1.5179571044433149
14.94977973568282,-1.300395119452365
14.983149779735683,-0.935279927639737
15.016519823788547,-0.5308398357704939
15.04988986784141,-0.20105420290804793
15.083259911894274,-0.019248209513288345
15.116629955947138,0.010310673863143055
15.15,-0.04980760138214492
15.183370044052865,-0.10171934183605026
15.216740088105727,-0.058509800567133737
15.250110132158591,0.11578885904626514
15.283480176211455,0.39046378772653356
15.316850220264318,0.6832664833253818
15.350220264317182,0.8988621503824082
15.383590308370044,0.9725481624709145
15.416960352422908,0.8993064171586218
15.450330396475772,0.7355510407301419
15.483700440528635,0.573703391216644
15.517070484581499,0.5018829131262442
15.550440528634361,0.5670670798456366
15.583810572687225,0.7575998020629041
15.61718061674009,1.0113843732251517
15.650550660792952,1.2440595994182637
15.683920704845816,1.382568008517985
15.717290748898678,1.3880072902095195
15.750660792951543,1.2582995345752106
15.784030837004407,1.012704460756707
15.817400881057269,0.6704039428772377
15.850770925110133,0.23837396039286823
15.884140969162996,-0.2826754734024174
15.91751101321586,-0.878011776628976
15.950881057268724,-1.4989465298375189
15.984251101321586,-2.0599685163335115
16.01762114537445,-2.4603224342603895
16.050991189427315,-2.6217936826493413
16.084361233480177,-2.5225027494006804
16.11773127753304,-2.206669973055289
16.151101321585905,-1.7634184691268788
16.184471365638768,-1.2858059484259166
16.21784140969163,-0.8328551445033676
16.251211453744492,-0.4150607690677866
16.284581497797358,-0.009403485069541294
16.31795154185022,0.40746424134800274
16.351321585903083,0.8290301074241225
16.38469162995595,1.2099932476917095
16.41806167400881,1.4837535246811422
16.451431718061674,1.5961775215769851
16.48480176211454,1.536465140519592
16.518171806167402,1.347618941975196
16.551541850220264,1.110004437354411
16.584911894273127,0.9057184782646613
16.618281938325993,0.781520704559553
16.651651982378855,0.7288880680720297
16.685022026431717,0.6911275830626081
16.718392070484583,0.5940096186122886
16.751762114537446,0.3849225132098824
16.785132158590308,0.061690039266751553
16.818502202643174,-0.3224629952747956
16.851872246696036,-0.6797363402871481
16.8852422907489,-0.9243161504528041
16.91861233480176,-1.0078268342857915
16.951982378854627,-0.9380006126856658
16.98535242290749,-0.7729602798199047
17.01872246696035,-0.5944921689257378
17.052092511013218,-0.4726965072605408
17.08546255506608,-0.4376813725230779
17.118832599118942,-0.4702691208149934
17.152202643171808,-0.5147431058450876
17.18557268722467,-0.506569351574052
17.218942731277533,-0.401537468039512
17.2523127753304,-0.1930184510770593
17.28568281938326,0.08919941988837389
17.319052863436124,0.39543764350779026
17.352422907488986,0.6776993932770845
17.385792951541852,0.9047899147934738
17.419162995594714,1.0646052830252335
