Frequency (Hz),Amplitude
0.0,7.40682898178337
0.01993355481727575,7.4036042958397426
0.0398671096345515,7.393934536424422
0.059800664451827246,7.377832604813986
0.079734219269103,7.355320023406262
0.09966777408637874,7.32642696672662
0.11960132890365449,7.291192306055152
0.13953488372093023,7.249663668931242
0.159468438538206,7.201897515207534
0.17940199335548174,7.147959231785424
0.19933554817275748,7.087923248682548
0.21926910299003324,7.021873179674347
0.23920265780730898,6.949901991434605
0.25913621262458475,6.872112205895071
0.27906976744186046,6.788616141477228
0.29900332225913623,6.6995361999502245
0.318936877076412,6.60500520697461
0.3388704318936877,6.505166815945236
0.3588039867109635,6.400175986601338
0.37873754152823924,6.29019955209019
0.39867109634551495,6.175416890827072
0.4186046511627907,6.056020722676503
0.4385382059800665,5.93221805278899
0.4584717607973422,5.804231290978901
0.47840531561461797,5.672299579947099
0.49833887043189373,5.536680372065845
0.5182724252491695,5.397651301970429
0.5382059800664452,5.255512410921496
0.5581395348837209,5.1105887888107615
0.5780730897009968,4.963233710611919
0.5980066445182725,4.813832355568134
0.6179401993355482,4.6628062084928175
0.637873754152824,4.510618251445654
0.6578073089700996,4.357779057594549
0.6777408637873754,4.204853892059276
0.6976744186046512,4.052470898556268
0.717607973421927,3.9013303927221794
0.7375415282392027,3.7522151737415226
0.7574750830564785,3.606001578020053
0.7774086378737541,3.4636706963153365
0.7973421926910299,3.3263187175107607
0.8172757475083057,3.195164711444568
0.8372093023255814,3.071553312509849
0.8571428571428572,2.956948783008876
0.877076411960133,2.852916033217017
0.8970099667774087,2.7610837868567515
0.9169435215946844,2.683085880748601
0.9368770764119602,2.620479444194599
0.9568106312292359,2.574643842605857
0.9767441860465116,2.5466711845835417
0.9966777408637875,2.537265717453279
1.0166112956810631,2.54667224225633
1.036544850498339,2.5746500130182275
1.0564784053156147,2.6204985296867402
1.0764119601328903,2.6831288820297403
1.0963455149501662,2.7611642201272724
1.1162790697674418,2.853049223949696
1.1362126245847177,2.9571512214144278
1.1561461794019936,3.0718421183084557
1.176079734219269,3.1955572216675816
1.196013289036545,3.326832188254817
1.2159468438538206,3.4643220982056775
1.2358803986710964,3.6068074625185997
1.255813953488372,3.7531915896220873
1.275747508305648,3.902492836143661
1.2956810631229239,4.053834284472783
1.3156146179401993,4.206432538412729
1.3355481727574752,4.359586676603265
1.3554817275747508,4.5126679443764335
1.3754152823920267,4.665110461732129
1.3953488372093024,4.8164030367545205
1.4152823920265782,4.966082064198262
1.435215946843854,5.113725430800243
1.4551495016611296,5.258947322744304
1.4750830564784054,5.401393823593724
1.495016611295681,5.540739194493883
1.514950166112957,5.676682737295483
1.5348837209302328,5.808946152312724
1.5548172757475083,5.937271313907536
1.5747508305647842,6.061418398014691
1.5946843853820598,6.181164305628277
1.6146179401993357,6.296301334989154
1.6345514950166113,6.406636062740878
1.6544850498338872,6.511988400736105
1.6744186046511629,6.612190800595687
1.6943521594684385,6.7070875826749585
1.7142857142857144,6.79653436990276
1.73421926910299,6.880397610142271
1.754152823920266,6.95855417338015
1.7740863787375416,7.030891012270199
1.7940199335548175,7.097304876413009
1.8139534883720931,7.157702072308076
1.8338870431893688,7.211998262220784
1.8538205980066447,7.260118296308853
1.8737541528239203,7.301996073285807
1.893687707641196,7.337574425695584
1.9136212624584719,7.366805026555037
1.9335548172757475,7.3896483147139
1.9534883720930232,7.406073436800345
1.9734219269102993,7.416058204081052
1.993355481727575,7.419589062980966
2.0132890365448506,7.4166610783900655
2.0332225913621262,7.407277929244372
2.0531561461794023,7.39145191621459
2.073089700996678,7.36920398167726
2.0930232558139537,7.340563742490099
2.1129568106312293,7.305569536452694
2.132890365448505,7.264268483717409
2.1528239202657806,7.216716564831438
2.1727574750830567,7.162978717553351
2.1926910299003324,7.10312895510707
2.212624584717608,7.037250509130208
2.2325581395348837,6.965436001258415
2.25249169435216,6.887787648085484
2.2724252491694354,6.804417505174321
2.292358803986711,6.715447756898265
2.312292358803987,6.62101106020103
2.332225913621263,6.521250951920826
2.352159468438538,6.416322331182725
2.3720930232558137,6.306392030585193
2.39202657807309,6.191639492566736
2.4119601328903655,6.0722575705231865
2.431893687707641,5.94845347805733
2.4518272425249172,5.8204499142925235
2.471760797342193,5.68848639859596
2.4916943521594686,5.5528208544606965
2.511627906976744,5.413731489803462
2.5315614617940203,5.2715190296234065
2.551495016611296,5.126509366824839
2.5714285714285716,4.9790567078588595
2.5913621262458477,4.8295473012127434
2.611295681063123,4.678403847693866
2.6312292358803986,4.526090700101486
2.6511627906976742,4.373119963099755
2.6710963455149503,4.220058596648522
2.691029900332226,4.067536599805794
2.7109634551495017,3.916256293089062
2.7308970099667778,3.767002607585152
2.7508305647840534,3.6206541004601216
2.770764119601329,3.4781941139412647
2.7906976744186047,3.3407210373404927
2.810631229235881,3.2094559834900127
2.8305647840531565,3.085745345856497
2.850498338870432,2.971054729555561
2.870431893687708,2.866949861329702
2.8903654485049834,2.775059710756877
2.910299003322259,2.697017864859107
2.9302325581395348,2.6343809471094746
2.950166112956811,2.588527972504389
2.9700996677740865,2.560551375151094
2.990033222591362,2.5511568922946095
3.0099667774086383,2.5605922551612665
3.029900332225914,2.58862101327798
3.0498338870431896,2.6345478856478586
3.0697674418604657,2.697289420801854
3.089700996677741,2.7754737461973176
3.1096345514950166,2.8675494672106465
3.129568106312292,2.971886465902016
3.1495016611295683,3.0868577654773977
3.169435215946844,3.21089847942837
3.1893687707641196,3.3425429934684354
3.2093023255813957,3.480444307541974
3.2292358803986714,3.623380297640387
3.249169435215947,3.7702512972783198
3.2691029900332227,3.9200725156834726
3.289036544850499,4.071963837488829
3.3089700996677744,4.225138702207989
3.32890365448505,4.378893111481319
3.3488372093023258,4.532595352545389
3.3687707641196014,4.685676722124432
3.388704318936877,4.8376233451402895
3.4086378737541527,4.987969071738007
3.428571428571429,5.136289376878404
3.4485049833887045,5.282196159793078
3.46843853820598,5.425333332872041
3.4883720930232562,5.565373092602962
3.508305647840532,5.702012773721166
3.5282392026578075,5.834972198583021
3.548172757475083,5.963991445111696
3.5681063122923593,6.0888289674952745
3.588039867109635,6.209260013665037
3.60797342192691,6.325075292265297
3.6279069767441863,6.436079849333944
3.647840531561462,6.542092121317628
3.6677740863787376,6.642943136462048
3.6877076411960132,6.738475841170779
3.7076411960132893,6.828544531739996
3.727574750830565,6.913014375064271
3.7475083056478407,6.991761004571049
3.7674418604651168,7.0646701798659155
3.787375415282392,7.131637500431354
3.807308970099668,7.192568165281268
3.8272425249169437,7.2473767717840225
3.8471760797342194,7.295987147972932
3.867109634551495,7.338332213600218
3.887043189368771,7.37435386599001
3.9069767441860463,7.404002887432451
3.9269102990033224,7.427238871456257
3.9468438538205985,7.44403016583867
3.9667774086378738,7.454353830675383
3.98671096345515,7.458195610251432
4.0066445182724255,7.455549917839177
4.026578073089701,7.446419832911627
4.046511627906977,7.430817110608146
4.0664451827242525,7.408762203633851
4.086378737541528,7.380284297123449
4.106312292358805,7.345421357362761
4.1262458471760795,7.304220195648145
4.146179401993356,7.256736548983658
4.166112956810632,7.203035179781819
4.186046511627907,7.143189997258176
4.205980066445183,7.077284203808136
4.225913621262459,7.005410470345069
4.245847176079734,6.927671145382121
4.26578073089701,6.844178503582833
4.2857142857142865,6.755055040616617
4.305647840531561,6.660433822472237
4.325581395348838,6.56045889894824
4.345514950166113,6.4552857929067065
4.365448504983389,6.34508207910776
4.385382059800665,6.230028069111069
4.40531561461794,6.110317621923124
4.425249169435216,5.986159103885026
4.445182724252492,5.857776525846833
4.465116279069767,5.725410891081678
4.485049833887043,5.589321793778248
4.50498338870432,5.4497893154217625
4.524916943521594,5.307116274997996
4.544850498338871,5.161630898708295
4.5647840531561465,5.0136899855725385
4.584717607973422,4.86368265642289
4.604651162790698,4.712034784343182
4.624584717607974,4.559214212727471
4.644518272425249,4.405736869607248
4.664451827242526,4.252173878423028
4.6843853820598005,4.0991597375310755
4.704318936877076,3.947401580426752
4.724252491694353,3.79768941672108
4.7441860465116275,3.65090706341814
4.764119601328904,3.5080431721134233
4.78405315614618,3.3702013006361
4.803986710963455,3.23860733352729
4.823920265780731,3.114611721046434
4.8438538205980075,2.9996830529824354
4.863787375415282,2.895388625574478
4.883720930232559,2.8033573241090814
4.9036544850498345,2.725220984321581
4.92358803986711,2.662533143825726
4.943521594684386,2.6166691338435943
4.963455149501661,2.588718172147592
4.983388704318937,2.5793843948302273
5.003322259136213,2.5889164140377474
5.023255813953488,2.6170813997449947
5.043189368770764,2.6631899568918196
5.063122923588041,2.72616573683515
5.083056478405315,2.8046439158230854
5.102990033222592,2.897078970849715
5.122923588039868,3.0018447412601597
5.142857142857143,3.117316000963179
5.162790697674419,3.2419274835329017
5.182724252491695,3.3742113731810246
5.20265780730897,3.5128170579328333
5.222591362126246,3.6565178090655652
5.242524916943522,3.8042087314184307
5.262458471760797,3.95489947862759
5.282392026578074,4.1077042757327815
5.3023255813953485,4.261830955863475
5.322259136212625,4.416570071483788
5.342192691029901,4.571284681374921
5.362126245847176,4.725401108706667
5.382059800664452,4.8784007735767885
5.4019933554817285,5.029813090359838
5.421926910299003,5.179209359123356
5.44186046511628,5.326197551950887
5.4617940199335555,5.470417886176087
5.48172757475083,5.611539078767958
5.501661129568107,5.749255184067692
5.5215946843853825,5.88328292752666
5.541528239202658,6.013359459155337
5.561461794019934,6.139240461039898
5.5813953488372094,6.26069855301095
5.601328903654485,6.377521949157464
5.621262458471762,6.489513325341538
5.641196013289036,6.596488864249989
5.661129568106313,6.698277449923858
5.681063122923589,6.7947199882574365
5.700996677740864,6.885668833774679
5.72093023255814,6.9709873061845755
5.740863787375416,7.05054928288685
5.760797342192691,7.124238855832083
5.780730897009967,7.1919500430090775
5.800664451827243,7.25358654640006
5.820598006644518,7.309061549562626
5.840531561461795,7.358297549110414
5.8604651162790695,7.4012262153085535
5.880398671096346,7.437788277805547
5.900332225913622,7.467933433215509
5.920265780730897,7.491620271865163
5.940199335548173,7.508816221546833
5.960132890365449,7.519497506586709
5.980066445182724,7.523649120960801
6.0,7.521264814580521
6.0199335548172765,7.512347092236169
6.039867109634551,7.496907225039947
6.059800664451828,7.474965274558839
6.0797342192691035,7.446550130181695
6.099667774086379,7.411699560632813
6.119601328903655,7.370460280935692
6.139534883720931,7.322888036557285
6.159468438538206,7.269047706934561
6.179401993355482,7.209013431116858
6.1993355481727574,7.14286875886383
6.219269102990033,7.070706831237664
6.23920265780731,6.99263059554182
6.259136212624584,6.908753060411514
6.279069767441861,6.819197597984564
6.299003322259137,6.724098301411
6.318936877076412,6.62360040753993
6.338870431893688,6.517860796504671
6.3588039867109645,6.407048582173486
6.378737541528239,6.291345810117254
6.398671096345516,6.17094828295132
6.418604651162791,6.046066536734799
6.438538205980066,5.916926996664812
6.458471760797343,5.783773345702612
6.4784053156146175,5.646868146127166
6.498338870431894,5.506494761428682
6.51827242524917,5.362959634481051
6.538205980066445,5.216594987523167
6.558139534883721,5.0677620199113305
6.578073089700998,4.916854690339825
6.598006644518272,4.764304180195381
6.617940199335549,4.610584141984622
6.6378737541528245,4.456216838051533
6.6578073089701,4.301780264677541
6.677740863787376,4.147916326575493
6.6976744186046515,3.9953400636942957
6.717607973421927,3.84484981702176
6.737541528239203,3.6973380261783113
6.7574750830564785,3.553802045043992
6.777408637873754,3.4153539044970223
6.797342192691031,3.2832273126825093
6.8172757475083055,3.158779363825112
6.837209302325582,3.0434835031141656
6.857142857142858,2.9389094845204893
6.877076411960133,2.846685782708073
6.897009966777409,2.7684408143287684
6.9169435215946855,2.7057220812962677
6.93687707641196,2.6598973056316266
6.956810631229236,2.632048139553868
6.9767441860465125,2.6228730464386527
6.996677740863787,2.632618396329417
7.016611295681064,2.6610532450054296
7.036544850498339,2.707493817003684
7.056478405315615,2.7708717928083475
7.076411960132891,2.849831011818426
7.096345514950166,2.942833569017189
7.116279069767442,3.0482586799096523
7.136212624584719,3.1644836724257055
7.156146179401993,3.289942974974966
7.17607973421927,3.4231659385720032
7.196013289036546,3.562797105145426
7.21594684385382,3.707603443550487
7.235880398671097,3.85647281006608
7.2558139534883725,4.008407086064742
7.275747508305648,4.162512525316396
7.295681063122924,4.317989025130719
7.3156146179402,4.474119396878639
7.335548172757475,4.630259253736312
7.355481727574752,4.785827826242492
7.3754152823920265,4.940299821675578
7.395348837209303,5.093198327425738
7.415282392026579,5.244088694951001
7.435215946843854,5.3925733104370615
7.45514950166113,5.53828714785741
7.475083056478406,5.680894001181814
7.495016611295681,5.820083299583273
7.514950166112956,5.9555674193347885
7.5348837209302335,6.087079416726222
7.554817275747508,6.2143711166917805
7.574750830564784,6.337211501376783
7.5946843853820605,6.455385351357847
7.614617940199336,6.5686920996176665
7.634551495016611,6.67694486471138
7.6544850498338874,6.77996963494363
7.674418604651163,6.877604579916675
7.694352159468439,6.969699469626258
7.714285714285715,7.056115184480392
7.73421926910299,7.136723302294813
7.754152823920266,7.211405750561182
7.774086378737542,7.280054514164046
7.794019933554818,7.342571390300415
7.813953488372093,7.3988677836850405
7.83388704318937,7.448864536247167
7.853820598006645,7.492491786477927
7.8737541528239205,7.529688854401771
7.893687707641197,7.560404148845634
7.913621262458472,7.584595094287722
7.9335548172757475,7.602228075101328
7.953488372093024,7.6132783954843575
7.9734219269103,7.617730253794429
7.9933554817275745,7.615576730405509
8.013289036544851,7.606819788574504
8.033222591362128,7.591470288165967
8.053156146179402,7.569548012438302
8.073089700996679,7.541081708455512
8.093023255813954,7.5061091420636705
8.11295681063123,7.464677168770793
8.132890365448505,7.416841822302991
8.152823920265782,7.362668423091353
8.172757475083056,7.302231709485389
8.192691029900331,7.235615995106412
8.21262458471761,7.162915356466139
8.232558139534884,7.084233855802835
8.252491694352159,6.999685805056513
8.272425249169435,6.909396078044714
8.292358803986712,6.813500479249809
8.312292358803987,6.7121461792289265
8.332225913621263,6.605492228562268
8.352159468438538,6.493710164524337
8.372093023255815,6.376984727368891
8.392026578073091,6.255514706344457
8.411960132890366,6.129513939398258
8.43189368770764,5.999212495086774
8.451827242524917,5.864858070600246
8.471760797342194,5.72671764613153
8.491694352159469,5.58507944316055
8.511627906976745,5.440255242614432
8.53156146179402,5.292583128225971
8.551495016611296,5.142430730481732
8.571428571428573,4.990199056729864
8.591362126245848,4.836327002156651
8.611295681063122,4.681296642407028
8.6312292358804,4.525639408188235
8.651162790697676,4.369943229703197
8.67109634551495,4.214860705518033
8.691029900332227,4.061118283345306
8.710963455149502,3.909526320210394
8.730897009966778,3.7609896905354563
8.750830564784053,3.616518300074537
8.77076411960133,3.4772364058512077
8.790697674418604,3.3443890105554823
8.81063122923588,3.219342801000662
8.830564784053157,3.103578217732088
8.850498338870432,2.9986684978104163
8.870431893687707,2.9062413416964223
8.890365448504983,2.827919827581772
8.91029900332226,2.765241974883865
8.930232558139535,2.719563214946927
8.950166112956811,2.6919522832990097
8.970099667774086,2.6830967001042803
8.990033222591363,2.6932361620102747
9.00996677740864,2.722138576681826
9.029900332225914,2.76912435878616
9.049833887043189,2.8331332234546514
9.069767441860467,2.912818669263077
9.089700996677742,3.00665184436121
9.109634551495017,3.113018713237183
9.129568106312293,3.2303001113541048
9.14950166112957,3.3569305082532366
9.169435215946844,3.4914361171249286
9.189368770764121,3.6324557327232445
9.209302325581396,3.778748630709505
9.22923588039867,3.929193662159907
9.249169435215949,4.082782932283065
9.269102990033224,4.238612574409233
9.289036544850498,4.3958723370201955
9.308970099667773,4.553835074877038
9.328903654485051,4.711846781343776
9.348837209302326,4.86931749104843
9.368770764119601,5.025713184770886
9.388704318936878,5.180548709409722
9.408637873754152,5.333381659262845
9.428571428571429,5.483807131822267
9.448504983388705,5.6314532588240285
9.46843853820598,5.77597741279758
9.488372093023255,5.917062995318824
9.508305647840533,6.054416722190475
9.528239202657808,6.1877663308324875
9.548172757475083,6.316858645125056
9.56810631229236,6.441457942212852
9.588039867109636,6.561344574085626
9.60797342192691,6.676313804021757
9.627906976744187,6.786174824246952
9.647840531561462,6.890749926501977
9.667774086378738,6.989873801735104
9.687707641196015,7.08339294894432
9.70764119601329,7.171165176395526
9.727574750830565,7.253059181128105
9.747508305647841,7.328954194912615
9.767441860465118,7.3987396867162785
9.787375415282392,7.462315113322962
9.807308970099669,7.519589711095371
9.827242524916944,7.57048232300192
9.84717607973422,7.614921255995965
9.867109634551497,7.652844164659523
9.887043189368772,7.684197957734655
9.906976744186046,7.708938724782985
9.926910299003321,7.727031680757016
9.9468438538206,7.738451126750322
9.966777408637874,7.743180425631859
9.986710963455149,7.741211991673649
10.006644518272426,7.732547293662222
10.026578073089702,7.717196871351833
10.046511627906977,7.695180365481972
10.066445182724253,7.666526561950868
10.086378737541528,7.63127345112193
10.106312292358805,7.589468303649544
10.126245847176081,7.541167764656726
10.146179401993356,7.486437968590591
10.16611295681063,7.425354677637223
10.186046511627907,7.358003447210242
10.205980066445184,7.284479822756424
10.225913621262459,7.204889572967905
10.245847176079735,7.119348965480981
10.26578073089701,7.027985092305035
10.285714285714286,6.930936253600467
10.305647840531563,6.828352410052987
10.325581395348838,6.720395716025701
10.345514950166113,6.607241147970747
10.36544850498339,6.489077245318792
10.385382059800666,6.366106984318136
10.40531561461794,6.238548809157957
10.425249169435217,6.106637849278735
10.445182724252492,5.970627357149327
10.465116279069768,5.830790407065717
10.485049833887045,5.687421902765252
10.50498338870432,5.540840949853897
10.524916943521594,5.391393658097566
10.544850498338871,5.239456448206956
10.564784053156147,5.085439947170837
10.584717607973422,4.929793564210083
10.604651162790697,4.773010843856518
10.624584717607974,4.615635689904495
10.64451827242525,4.458269538284332
10.664451827242525,4.301579519382455
10.684385382059801,4.146307577749102
10.704318936877076,3.9932803906184686
10.724252491694353,3.843419720850897
10.74418604651163,3.697752523670519
10.764119601328904,3.5574196676149055
10.784053156146179,3.423681507144276
10.803986710963457,3.2979177719903747
10.823920265780732,3.1816184090409445
10.843853820598007,3.076361353063074
10.863787375415283,2.9837731225446182
10.88372093023256,2.905469214101053
10.903654485049834,2.842974081414046
