Time (s),Filtered Signal
0.0,-0.0052624266744020366
0.033370165745856356,0.23356593523098174
0.06674033149171271,0.4300808043749533
0.10011049723756907,0.5778196603988172
0.13348066298342542,0.7169187843497634
0.16685082872928178,0.9093733631744632
0.20022099447513814,1.1947737738881095
0.2335911602209945,1.5554731587220403
0.26696132596685085,1.9147299340618495
0.30033149171270723,2.1707016341276355
0.33370165745856356,2.246881488792046
0.3670718232044199,2.129800254822234
0.4004419889502763,1.8730482520007696
0.43381215469613266,1.5668724222080952
0.467182320441989,1.2919436196887937
0.5005524861878453,1.0832036596889782
0.5339226519337017,0.9219233067034153
0.5672928176795581,0.7571002920509496
0.6006629834254145,0.5414837411597528
0.6340331491712707,0.2613471484190923
0.6674033149171271,-0.05517765888235176
0.7007734806629835,-0.35337014350144785
0.7341436464088398,-0.5804365963391165
0.7675138121546962,-0.7113431484198712
0.8008839779005525,-0.7592882429992531
0.8342541436464089,-0.7672736541432011
0.8676243093922653,-0.7868266190386856
0.9009944751381216,-0.8551983777324417
0.934364640883978,-0.9814381929984215
0.9677348066298344,-1.146065570009818
1.0011049723756906,-1.3121583132244012
1.0344751381215471,-1.441067765549584
1.0678453038674034,-1.5054246929824775
1.1012154696132597,-1.494994929905458
1.1345856353591162,-1.4150783360837695
1.1679558011049724,-1.2802661854633244
1.201325966850829,-1.1073887003080265
1.2346961325966852,-0.9106418733650726
1.2680662983425415,-0.7001269778483075
1.301436464088398,-0.4832890581711579
1.3348066298342542,-0.26757707489540755
1.3681767955801105,-0.06232336102928984
1.401546961325967,0.12162290365872512
1.4349171270718233,0.27477279362619167
1.4682872928176796,0.39320982595502524
1.501657458563536,0.48186579444543093
1.5350276243093923,0.5544302547906919
1.5683977900552488,0.628609961915739
1.601767955801105,0.7177384277979748
1.6351381215469614,0.8222390611396755
1.6685082872928179,0.9256955141371627
1.7018784530386741,0.9990280034316956
1.7352486187845306,1.0124997173757182
1.768618784530387,0.9506839774027286
1.8019889502762432,0.8228364130221041
1.8353591160220997,0.6624161756073877
1.868729281767956,0.5146496849473543
1.9020994475138122,0.4174273463030426
1.9354696132596687,0.3848166855631258
1.968839779005525,0.40158631699764985
2.0022099447513813,0.43163626969659347
2.0355801104972375,0.4360609808345455
2.0689502762430942,0.3916575069115861
2.1023204419889505,0.30069243877367374
2.135690607734807,0.18755348907718106
2.169060773480663,0.08479033371555827
2.2024309392265193,0.01624162578397187
2.235801104972376,-0.014164646235713311
2.2691712707182323,-0.022881979541292768
2.3025414364640886,-0.037177118089492915
2.335911602209945,-0.08106667974719106
2.369281767955801,-0.16397105839095308
2.402651933701658,-0.2773082604192553
2.436022099447514,-0.39990799998751364
2.4693922651933704,-0.508692711976472
2.5027624309392267,-0.5886976005073346
2.536132596685083,-0.6373248143392543
2.5695027624309392,-0.6613415146632149
2.602872928176796,-0.6696039160041082
2.636243093922652,-0.6671388526016259
2.6696132596685085,-0.6551024964039913
2.7029834254143648,-0.6365488854069971
2.736353591160221,-0.6227188680559864
2.7697237569060777,-0.6325994278159521
2.803093922651934,-0.6820742542858022
2.8364640883977903,-0.7666608542106671
2.8698342541436466,-0.8487563000202606
2.903204419889503,-0.8611067112940332
2.936574585635359,-0.7307821170879978
2.969944751381216,-0.415601418972647
3.003314917127072,0.06493829141161689
3.0366850828729284,0.6226835074875103
3.0700552486187846,1.1256479060486466
3.103425414364641,1.4460116526279672
3.1367955801104976,1.5097027792685689
3.170165745856354,1.324210660810621
3.20353591160221,0.9719000715491343
3.2369060773480665,0.5731194358158935
3.2702762430939227,0.23755922635500915
3.3036464088397794,0.026471516883908867
3.3370165745856357,-0.05887709034223693
3.370386740331492,-0.0612445688573296
3.4037569060773483,-0.035985703195991287
3.4371270718232045,-0.02204799866767727
3.4704972375690613,-0.02928033741742457
3.5038674033149175,-0.045068366357684055
3.537237569060774,-0.052100682273011255
3.57060773480663,-0.04385365552990768
3.6039779005524863,-0.027678322187054297
3.6373480662983426,-0.014612603744578454
3.6707182320441993,-0.0043204417998489765
3.7040883977900556,0.02279445656849784
3.737458563535912,0.09843861536515736
3.770828729281768,0.24596505198258622
3.8041988950276244,0.45763437113493305
3.837569060773481,0.6839674907676634
3.8709392265193374,0.8444222360715105
3.9043093922651937,0.85740643709733
3.93767955801105,0.6764591814232114
3.9710497237569062,0.3147831094261528
4.0044198895027625,-0.15476553839249282
4.037790055248619,-0.6250332949999696
4.071160220994475,-0.9934497831134435
4.104530386740332,-1.1963985667042505
4.1379005524861885,-1.2243825172452014
4.171270718232044,-1.1137932014631733
4.204640883977901,-0.9226285002200645
4.238011049723757,-0.703985768479584
4.271381215469614,-0.48989913448434197
4.30475138121547,-0.2907751847222977
4.338121546961326,-0.10684733582032743
4.371491712707183,0.05765762120227838
4.404861878453039,0.18714472125673043
4.438232044198895,0.25878932728861387
4.471602209944752,0.2559280537659911
4.504972375690608,0.1827786990442716
4.538342541436465,0.07101981297439516
4.5717127071823205,-0.027678815479402354
4.605082872928177,-0.061799934431403955
4.638453038674034,-0.003917426999916148
4.67182320441989,0.1339714229258673
4.7051933701657465,0.30303923946887135
4.738563535911602,0.43866795873701836
4.771933701657459,0.49040588935104706
4.805303867403316,0.4457768649877923
4.8386740331491715,0.3354342065479753
4.872044198895028,0.21678078797068348
4.905414364640884,0.14460156318358652
4.938784530386741,0.14403292200536083
4.972154696132597,0.19957866578386108
5.005524861878453,0.26500620586686174
5.03889502762431,0.2879824592156555
5.072265193370166,0.23623683779787905
5.105635359116023,0.11227198611067525
5.1390055248618784,-0.04962059406467188
5.172375690607735,-0.20112696446677053
5.205745856353592,-0.30276134593621384
5.239116022099448,-0.3406464916926903
5.272486187845304,-0.32992298856699415
5.30585635359116,-0.30421985744135693
5.339226519337017,-0.2969550229530756
5.372596685082874,-0.32357696214983755
5.4059668508287295,-0.3731149314720107
5.439337016574586,-0.413074799977422
5.472707182320442,-0.4055747021449503
5.506077348066299,-0.3271814639845349
5.5394475138121555,-0.18265638764972036
5.572817679558011,-0.005106092246385252
5.606187845303868,0.1587715247084126
5.639558011049724,0.27219940643574525
5.672928176795581,0.3292922722974735
5.706298342541437,0.3621129211755028
5.739668508287293,0.42799446667134217
5.77303867403315,0.5803965632342988
5.806408839779006,0.835235246241125
5.839779005524862,1.1487393583444858
5.873149171270718,1.4199458813792658
5.906519337016575,1.521361755096227
5.939889502762432,1.3485718753280234
5.9732596685082875,0.8691464867608147
6.006629834254144,0.14846954052912525
6.04,-0.6622769871491373
6.073370165745857,-1.3748685056349508
6.1067403314917135,-1.8311167371316748
6.140110497237569,-1.9598037826051466
6.173480662983426,-1.7981436854862716
6.206850828729282,-1.4681613886771852
6.240220994475139,-1.1192562579771155
6.273591160220995,-0.8638190191783597
6.306961325966851,-0.7352809376008553
6.340331491712708,-0.6863306516590915
6.373701657458564,-0.6252922704071796
6.40707182320442,-0.47066434401210944
6.440441988950277,-0.19620812843846253
6.473812154696133,0.15496910839697267
6.50718232044199,0.4926408815174514
6.5405524861878455,0.7252208005679757
6.573922651933702,0.8053386868071748
6.607292817679559,0.7527902356295251
6.640662983425415,0.6446019562507478
6.674033149171271,0.5783293934324611
6.707403314917127,0.6269134571370072
6.740773480662984,0.8059083263957418
6.774143646408841,1.0665236489258594
6.8075138121546965,1.3153930706390458
6.840883977900553,1.4507662606083982
6.874254143646409,1.3996540054387627
6.907624309392266,1.142350611520175
6.9409944751381225,0.7173773628859549
6.974364640883978,0.2075517424550187
7.007734806629835,-0.2863163426353891
7.041104972375691,-0.6748373918984059
7.074475138121548,-0.9034256779193487
7.107845303867403,-0.9630024343739743
7.14121546961326,-0.885680090851197
7.174585635359117,-0.7282570266127655
7.207955801104973,-0.5506225560904863
7.241325966850829,-0.3975870202600863
7.274696132596685,-0.29036005600647596
7.308066298342542,-0.22900303471737782
7.341436464088399,-0.20222591412155946
7.3748066298342545,-0.19832745953224507
7.408176795580111,-0.21182767668546482
7.441546961325967,-0.24352794743517792
7.474917127071824,-0.29542614991710636
7.5082872928176805,-0.3642910806534668
7.541657458563536,-0.4378854653032609
7.575027624309393,-0.4960898287952065
7.608397790055249,-0.5166003573126079
7.641767955801106,-0.4827222705608799
7.675138121546962,-0.3899198125431321
7.708508287292818,-0.24837583693176885
7.741878453038675,-0.08042611198609557
7.775248618784531,0.08631297588633208
7.808618784530387,0.22766172850094266
7.841988950276244,0.3301910571848532
7.8753591160221,0.3943289132351218
7.908729281767957,0.4321115299878644
7.9420994475138125,0.4606675344225237
7.975469613259669,0.49425551716867994
8.008839779005525,0.5380157130682589
8.042209944751383,0.5855063922153776
8.075580110497238,0.6204167854325731
8.108950276243094,0.6215815566628653
8.14232044198895,0.5699144851721726
8.175690607734808,0.4557214994376803
8.209060773480664,0.28455237155018065
8.24243093922652,0.07941756238446948
8.275801104972377,-0.12249561420821098
8.309171270718233,-0.27899449149342886
8.342541436464089,-0.35592632682347836
8.375911602209946,-0.33980128026645157
8.409281767955802,-0.24481168489000332
8.442651933701658,-0.11039245861057351
8.476022099447514,0.011142168775270795
8.509392265193371,0.07311145489368348
8.542762430939227,0.052152388986528464
8.576132596685083,-0.042364928857374556
8.60950276243094,-0.17174725037801766
8.642872928176796,-0.2835107494528699
8.676243093922652,-0.33293385045647556
8.709613259668508,-0.3015018099934221
8.742983425414366,-0.204064686882346
8.776353591160222,-0.08131450667587174
8.809723756906077,0.01916353138560868
8.843093922651935,0.06453222497083878
8.87646408839779,0.05074299365657088
8.909834254143647,0.0021095293684179426
8.943204419889504,-0.043404846722276916
8.97657458563536,-0.055706351958022336
9.009944751381216,-0.02965118747968043
9.043314917127072,0.011600132187968881
9.07668508287293,0.029285894699997813
9.110055248618785,-0.008381477369507694
9.143425414364641,-0.10558542548858482
9.176795580110499,-0.23166356502186897
9.210165745856354,-0.3322302683797788
9.24353591160221,-0.3542052445283241
9.276906077348068,-0.27271192266144356
9.310276243093924,-0.1061397467548603
9.34364640883978,0.08897782590671321
9.377016574585635,0.24174003871656394
9.410386740331493,0.2983242404107645
9.443756906077349,0.2459493701214629
9.477127071823205,0.1176038650698772
9.510497237569062,-0.02481194792427564
9.543867403314918,-0.1205142870050664
9.577237569060774,-0.13792355851531946
9.610607734806631,-0.08657522914545658
9.643977900552487,-0.006864351913078511
9.677348066298343,0.0566907408769151
9.710718232044199,0.08381323835780943
9.744088397790057,0.09204284962149131
9.777458563535912,0.1266198549700126
9.810828729281768,0.2309502128102604
9.844198895027626,0.41368170668433296
9.877569060773482,0.631771259543357
9.910939226519337,0.8012545562049582
9.944309392265193,0.8325621435899211
9.97767955801105,0.6734806578635061
10.011049723756907,0.3380982138662406
10.044419889502763,-0.09306390640054343
10.07779005524862,-0.5020862493285362
10.111160220994476,-0.7782000102520479
10.144530386740332,-0.8577695542921139
10.17790055248619,-0.7432351181642727
10.211270718232045,-0.4953102212104257
10.244640883977901,-0.20473542979756176
10.278011049723757,0.04248453168932233
10.311381215469615,0.19194880150118832
10.34475138121547,0.23116304449387945
10.378121546961326,0.18295695167427672
10.411491712707184,0.08845335809055602
10.44486187845304,-0.011471707227693041
10.478232044198895,-0.08913815691150441
10.511602209944753,-0.13452874764842082
10.544972375690609,-0.1524256178168613
10.578342541436465,-0.15556930879913927
10.61171270718232,-0.1572980911080172
10.645082872928178,-0.1659607060204582
10.678453038674034,-0.18206800826594854
10.71182320441989,-0.19833197923931423
10.745193370165747,-0.2024066603035197
10.778563535911603,-0.18182299611226133
10.811933701657459,-0.12993845860838243
10.845303867403315,-0.050877851077246496
10.878674033149172,0.038926674264652746
10.912044198895028,0.11426350433230553
10.945414364640884,0.14953366684502245
10.978784530386742,0.12944463006142734
11.012154696132598,0.0576819412632284
11.045524861878453,-0.04088960467269725
11.078895027624311,-0.12691668348229604
11.112265193370167,-0.16080567418587502
11.145635359116023,-0.11920952935344555
11.179005524861878,-0.006331352470414442
11.212375690607736,0.1459892240402426
11.245745856353592,0.2906253988815227
11.279116022099448,0.38502606113829024
11.312486187845305,0.4094401189794182
11.345856353591161,0.3746053157945997
11.379226519337017,0.31500978768240073
11.412596685082875,0.2711373236926998
11.44596685082873,0.2697667774380802
11.479337016574586,0.3122222565236069
11.512707182320442,0.375941072202944
11.5460773480663,0.4273901156221571
11.579447513812156,0.43842290177430615
11.612817679558011,0.3970242105270557
11.646187845303869,0.3075574732743743
11.679558011049725,0.18240088605304888
11.71292817679558,0.031957777117784324
11.746298342541436,-0.13968595206682563
11.779668508287294,-0.3307195159837089
11.81303867403315,-0.5326891838954382
11.846408839779006,-0.7239784973708169
11.879779005524863,-0.871722053436527
11.91314917127072,-0.9427555573068086
11.946519337016575,-0.918159683125833
11.979889502762433,-0.8032444544485161
12.013259668508288,-0.6271489016770909
12.046629834254144,-0.43201662657816603
12.08,-0.25726761297036077
12.113370165745858,-0.12655326071200304
12.146740331491714,-0.04276420789606482
12.18011049723757,0.008157681607212882
12.213480662983427,0.04792721012773505
12.246850828729283,0.09602596943094382
12.280220994475139,0.16306657080160253
12.313591160220996,0.24892753189183223
12.346961325966852,0.344976292012847
12.380331491712708,0.43843731541641595
12.413701657458564,0.5167607362101584
12.447071823204421,0.5704697714897091
12.480441988950277,0.5940367312910819
12.513812154696133,0.5853702240539691
12.54718232044199,0.5449876869436876
12.580552486187846,0.47567344794064775
12.613922651933702,0.3826699888919446
12.64729281767956,0.2738410268112996
12.680662983425416,0.15921527763484644
12.714033149171271,0.049759090150058624
12.747403314917127,-0.04434096177565573
12.780773480662985,-0.11550923876386296
12.81414364640884,-0.16048521694798282
12.847513812154697,-0.181667893419247
12.880883977900554,-0.1875747708114952
12.91425414364641,-0.19156448264027726
12.947624309392266,-0.2081536334129916
12.980994475138122,-0.24726782726343818
13.01436464088398,-0.30828644214552986
13.047734806629835,-0.37684563920438346
13.081104972375691,-0.42706752079314614
13.114475138121549,-0.42985708458796373
13.147845303867404,-0.3648827486709392
13.18121546961326,-0.2313752288151202
13.214585635359118,-0.05247750319173661
13.247955801104974,0.12986973317348427
13.28132596685083,0.2684642498710995
13.314696132596685,0.327791019886702
13.348066298342543,0.29745367601950756
13.381436464088399,0.19627868378686797
13.414806629834255,0.06502253089678542
13.448176795580112,-0.04960846604192968
13.481546961325968,-0.1131222682011261
13.514917127071824,-0.11593161112192565
13.548287292817681,-0.07504018442083338
13.581657458563537,-0.023905381904965828
13.615027624309393,0.0049557223637127935
13.648397790055249,-0.003546765386795475
13.681767955801106,-0.03955125087117036
13.715138121546962,-0.07363721272705136
13.748508287292818,-0.07275225743982718
13.781878453038676,-0.01882728176660122
13.815248618784532,0.07947098977385095
13.848618784530387,0.18827197930284653
13.881988950276245,0.26318345656166525
13.9153591160221,0.27023998671478366
13.948729281767957,0.20274592580752554
13.982099447513813,0.0853463622880742
14.01546961325967,-0.03709366614739441
14.048839779005526,-0.12049213556044844
14.082209944751382,-0.14193487815976338
14.11558011049724,-0.10915304685409785
14.148950276243095,-0.05445336541542069
14.182320441988951,-0.016593183204101362
14.215690607734807,-0.020331170498876637
14.249060773480664,-0.06437808170468388
14.28243093922652,-0.1237554400141056
14.315801104972376,-0.16477458518021243
14.349171270718234,-0.1641959855380301
14.38254143646409,-0.12211473989233254
14.415911602209945,-0.06167618579261533
14.449281767955803,-0.015835203509441585
14.482651933701659,-0.008248799260056967
14.516022099447515,-0.03851612258564969
14.54939226519337,-0.07984948937718694
14.582762430939228,-0.09100610873347564
14.616132596685084,-0.037044728472405794
14.64950276243094,0.09122000819294711
14.682872928176797,0.26893325046501965
14.716243093922653,0.44474591819298487
14.749613259668509,0.5611807389704202
14.782983425414367,0.5784994425641515
14.816353591160222,0.4910260416669078
14.849723756906078,0.32860273258988676
14.883093922651934,0.14302072123053378
14.916464088397792,-0.013861089426916655
14.949834254143648,-0.11035672439574701
14.983204419889503,-0.1451477737482986
15.016574585635361,-0.14403156130465275
15.049944751381217,-0.14560923504106713
15.083314917127073,-0.18243228251887272
15.116685082872928,-0.26537873660813555
15.150055248618786,-0.3774375745220059
15.183425414364642,-0.47945524803019923
15.216795580110498,-0.5258999757946956
15.250165745856355,-0.4846669180201981
15.283535911602211,-0.35280930442922653
15.316906077348067,-0.16099826705368528
15.350276243093925,0.0362910635377449
15.38364640883978,0.1816922304326546
15.417016574585636,0.23829087954511036
15.450386740331492,0.2048222906752528
15.48375690607735,0.11529409348019927
15.517127071823205,0.02271255246160577
15.550497237569061,-0.02573428536290837
15.583867403314919,-0.010401596539342757
15.617237569060775,0.052393460140983936
15.65060773480663,0.11903858739945675
15.683977900552488,0.14001551892034286
15.717348066298344,0.0838778810045457
15.7507182320442,-0.04704098203444174
15.784088397790056,-0.21574059505450605
15.817458563535913,-0.36415097248513745
15.85082872928177,-0.4348295426841283
15.884198895027625,-0.3917238838442464
15.917569060773483,-0.23234033231325202
15.950939226519338,0.012194622765433415
15.984309392265194,0.2879072413566365
16.01767955801105,0.5347749700530433
16.051049723756908,0.703441303905135
16.084419889502765,0.7666888611572892
16.11779005524862,0.723021840137928
16.151160220994477,0.5927005493782236
16.18453038674033,0.4089277320512193
16.21790055248619,0.20783685690044912
16.251270718232046,0.020358992032381888
16.2846408839779,-0.13248545354861163
16.318011049723758,-0.240889631351863
16.351381215469615,-0.30504108548481923
16.38475138121547,-0.3322971762099669
16.418121546961327,-0.33336304197832056
16.451491712707185,-0.3180698698157683
16.48486187845304,-0.29182412175904054
16.518232044198896,-0.254252358054998
16.551602209944754,-0.20121927013534177
16.584972375690608,-0.12992830218797355
16.618342541436466,-0.044816319959792454
16.651712707182323,0.03931265810532491
16.685082872928177,0.09986545831445119
16.718453038674035,0.11503876495822354
16.751823204419892,0.07509334905302892
16.785193370165747,-0.00947441965132227
16.818563535911604,-0.10820008556107887
16.851933701657458,-0.18091073549940256
16.885303867403316,-0.19416210547632853
16.918674033149173,-0.13617655403864698
16.952044198895027,-0.022787592008855037
16.985414364640885,0.1086908179820956
17.018784530386743,0.21457689375340386
17.052154696132597,0.2614700221746478
17.085524861878454,0.2368587311537923
17.118895027624312,0.14995906602046127
17.152265193370166,0.024339906447835402
17.185635359116024,-0.1124896403712438
17.21900552486188,-0.2371555299471361
17.252375690607735,-0.33351955869928684
