Frequency (Hz),Amplitude
0.0,1.9071024612634524
0.01978021978021978,1.90843673078369
0.03956043956043956,1.9124286782956812
0.05934065934065934,1.9190459671039648
0.07912087912087912,1.9282355104583988
0.0989010989010989,1.9399246364075724
0.11868131868131868,1.95402262988838
0.13846153846153844,1.970422573819687
0.15824175824175823,1.9890034017870237
0.17802197802197803,2.0096320728871446
0.1978021978021978,2.032165783728941
0.21758241758241756,2.0564541421197826
0.23736263736263735,2.0823412399300056
0.2571428571428572,2.1096675773072624
0.2769230769230769,2.138271805273471
0.2967032967032967,2.167992267578464
0.31648351648351647,2.1986683346948657
0.3362637362637363,2.2301415325819822
0.35604395604395606,2.2622564762073507
0.3758241758241758,2.2948616229133907
0.3956043956043956,2.32780986382556
0.4153846153846154,2.3609589729678415
0.4351648351648351,2.3941719339502217
0.45494505494505494,2.427317163370197
0.4747252747252747,2.4602686487307546
0.4945054945054945,2.492906016971535
0.5142857142857143,2.5251145478317953
0.5340659340659341,2.5567851443569576
0.5538461538461538,2.587814271022853
0.5736263736263736,2.6181038682466036
0.5934065934065934,2.6475612505153734
0.6131868131868132,2.6760989940091626
0.6329670329670329,2.7036348184221155
0.6527472527472528,2.7300914666904066
0.6725274725274726,2.7553965854993887
0.6923076923076923,2.7794826087520734
0.7120879120879121,2.8022866456170297
0.7318681318681318,2.823750374319489
0.7516483516483516,2.84381994247819
0.7714285714285715,2.8624458745075647
0.7912087912087912,2.879582986387281
0.810989010989011,2.895190307937218
0.8307692307692308,2.909231012615969
0.8505494505494506,2.9216723547768484
0.8703296703296702,2.93248561425975
0.8901098901098901,2.9416460481648197
0.9098901098901099,2.9491328496395006
0.9296703296703297,2.954929113510662
0.9494505494505494,2.9590218086045708
0.9692307692307692,2.9614017566173545
0.989010989010989,2.9620636174244503
1.0087912087912088,2.9610058807484174
1.0285714285714287,2.958230864138046
1.0483516483516484,2.9537447172472677
1.0681318681318681,2.947557432438159
1.087912087912088,2.939682861767703
1.1076923076923075,2.9301387404509285
1.1274725274725275,2.918946716923141
1.1472527472527472,2.906132389648515
1.1670329670329669,2.891725350840659
1.1868131868131868,2.8757592372694534
1.2065934065934065,2.8582717883256374
1.2263736263736265,2.8393049114965176
1.2461538461538462,2.8189047553686564
1.2659340659340659,2.797121790211682
1.2857142857142858,2.774010896104931
1.3054945054945055,2.7496314584390777
1.3252747252747252,2.724047470448089
1.3450549450549452,2.6973276421941694
1.3648351648351649,2.6695455151265817
1.3846153846153846,2.640779580951037
1.4043956043956045,2.6111134030651364
1.4241758241758242,2.5806357382188336
1.443956043956044,2.5494406553308693
1.4637362637362636,2.517627647513609
1.4835164835164834,2.4853017323142312
1.5032967032967033,2.452573533955461
1.523076923076923,2.4195593399489796
1.542857142857143,2.3863811228609038
1.5626373626373626,2.353166516252755
1.5824175824175823,2.3200487319423315
1.6021978021978023,2.287166403799827
1.621978021978022,2.2546633414234645
1.6417582417582417,2.2226881753827135
1.6615384615384616,2.1913938744850334
1.6813186813186813,2.160937114980915
1.7010989010989013,2.131477482092008
1.720879120879121,2.103176486088571
1.7406593406593405,2.0761963787291626
1.7604395604395604,2.050698761547745
1.7802197802197801,2.0268429854782464
1.7999999999999998,2.00478435171546
1.8197802197802198,1.9846721363355662
1.8395604395604395,1.9666474755109589
1.8593406593406594,1.9508411632325346
1.879120879120879,1.937371427992798
1.8989010989010988,1.9263417672712906
1.9186813186813187,1.9178389271509384
1.9384615384615385,1.9119311173434455
1.9582417582417584,1.9086665480895981
1.978021978021978,1.9080723643007884
1.9978021978021978,1.9101540343001375
2.0175824175824175,1.9148952269448376
2.0373626373626372,1.9222581839389858
2.0571428571428574,1.9321845664815516
2.076923076923077,1.9445967298508835
2.096703296703297,1.959399358582644
2.1164835164835165,1.9764813803250958
2.1362637362637362,1.9957180691034722
2.1560439560439564,2.016973248491237
2.175824175824176,2.0401015111528435
2.195604395604396,2.0649503819180186
2.215384615384615,2.091362365241876
2.2351648351648348,2.119176832893667
2.254945054945055,2.1482317225299
2.2747252747252746,2.178365031332829
2.2945054945054943,2.2094161004185704
2.314285714285714,2.241226694894576
2.3340659340659338,2.2736418912301195
2.353846153846154,2.306510788167037
2.3736263736263736,2.3396870600449478
2.3934065934065933,2.373029372509429
2.413186813186813,2.4064016804836976
2.4329670329670328,2.439673427356062
2.452747252747253,2.472719662860501
2.4725274725274726,2.5054210953427694
2.4923076923076923,2.5376640921911107
2.512087912087912,2.5693406402998025
2.5318681318681318,2.600348276614033
2.5516483516483515,2.6305899971308335
2.5714285714285716,2.659974151232161
2.5912087912087913,2.688414326913198
2.610989010989011,2.7158292313394377
2.6307692307692307,2.7421425702096323
2.6505494505494505,2.7672829286035
2.6703296703296706,2.791183655335192
2.6901098901098903,2.8137827522990855
2.70989010989011,2.8350227698649757
2.7296703296703297,2.854850709040151
2.7494505494505495,2.8732179308512698
2.769230769230769,2.890080073196215
2.7890109890109893,2.9053969752651305
2.808791208791209,2.919132609520207
2.8285714285714287,2.9312550211481265
2.8483516483516484,2.941736274850704
2.8681318681318677,2.9505524088122455
2.887912087912088,2.9576833956727997
2.9076923076923076,2.9631131103399455
2.9274725274725273,2.9668293044863683
2.947252747252747,2.9688235876022815
2.9670329670329667,2.9690914145002507
2.986813186813187,2.967632079201894
3.0065934065934066,2.964448715171272
3.0263736263736263,2.9595483018960835
3.046153846153846,2.952941677854628
3.0659340659340657,2.944643559942013
3.085714285714286,2.934672569462887
3.1054945054945056,2.923051264827322
3.1252747252747253,2.909806181111405
3.145054945054945,2.8949678766609175
3.1648351648351647,2.8785709869242324
3.184615384615385,2.860654285695394
3.2043956043956046,2.8412607539272985
3.2241758241758243,2.8204376562331417
3.243956043956044,2.798236625127013
3.2637362637362637,2.7747137529547223
3.2835164835164834,2.7499296913264404
3.3032967032967036,2.7239497576739575
3.3230769230769233,2.696844048306561
3.342857142857143,2.668687557018121
3.3626373626373627,2.6395602978895485
3.3824175824175824,2.609547430419203
3.4021978021978025,2.5787393844814916
3.4219780219780223,2.5472319818423226
3.441758241758242,2.5151265500313436
3.4615384615384617,2.4825300232674166
3.481318681318681,2.4495550238442507
3.501098901098901,2.4163199159006457
3.520879120879121,2.3829488218315165
3.5406593406593405,2.3495715897646106
3.5604395604395602,2.3163236985813436
3.58021978021978,2.2833460849784877
3.5999999999999996,2.250784875171705
3.61978021978022,2.218791002203819
3.6395604395604395,2.1875196886674098
3.659340659340659,2.157129774270538
3.679120879120879,2.1277828684061086
3.6989010989010986,2.0996423101084107
3.718681318681319,2.072871921877178
3.7384615384615385,2.0476345501593993
3.758241758241758,2.0240903940247255
3.7780219780219784,2.0023951347767452
3.7978021978021976,1.982697892644763
3.8175824175824173,1.965139051665933
3.8373626373626375,1.9498480093550599
3.8571428571428568,1.936940922335696
3.876923076923077,1.9265185310555137
3.896703296703296,1.9186641542238774
3.916483516483517,1.9134419450738112
3.936263736263736,1.9108954958457778
3.956043956043956,1.911046863687921
3.9758241758241755,1.9138960711020614
3.9956043956043956,1.919421108755505
4.015384615384615,1.927578440343362
4.035164835164835,1.9383039810887437
4.054945054945055,1.9515144962683317
4.0747252747252745,1.9671093462461393
4.094505494505494,1.984972491482519
4.114285714285715,2.0049746654660554
4.134065934065934,2.026975625139484
4.153846153846154,2.0508263960229507
4.173626373626373,2.076371441253906
4.193406593406594,2.103450698357768
4.213186813186813,2.1319014430276466
4.232967032967033,2.1615599541040598
4.252747252747253,2.192262967277729
4.2725274725274724,2.2238489161684196
4.292307692307692,2.2561589681052863
4.312087912087913,2.289037868178829
4.331868131868132,2.322334609179203
4.351648351648352,2.355902947218649
4.371428571428571,2.389601783540966
4.391208791208792,2.4232954326237075
4.410989010989011,2.456853795518688
4.43076923076923,2.490152455737586
4.450549450549451,2.5230727130981583
4.4703296703296695,2.555501568972162
4.49010989010989,2.587331674438743
4.50989010989011,2.6184612510252596
4.52967032967033,2.648793992059019
4.549450549450549,2.678238951180082
4.569230769230769,2.7067104232835546
4.589010989010989,2.7341278220643135
4.608791208791209,2.7604155574139497
4.628571428571428,2.785502915154092
4.648351648351649,2.8093239409619977
4.6681318681318675,2.8318173298366762
4.687912087912088,2.8529263220483387
4.707692307692308,2.8725986061948876
4.7274725274725276,2.890786229742701
4.747252747252747,2.9074455172414555
4.767032967032967,2.92253699626482
4.786813186813187,2.936025331030141
4.806593406593407,2.9478792635838054
4.826373626373626,2.9580715623983975
4.846153846153847,2.966578978207162
4.8659340659340655,2.9733822068973215
4.885714285714286,2.978465859292059
4.905494505494506,2.981818437669101
4.9252747252747255,2.983432318889264
4.945054945054945,2.9833037440393317
4.964835164835165,2.981432814528258
4.984615384615385,2.9778234946128403
5.004395604395604,2.9724836203673393
5.024175824175824,2.9654249151498497
5.043956043956045,2.956663011655154
5.0637362637362635,2.946217480678522
5.083516483516483,2.9341118667453436
5.103296703296703,2.920373730786561
5.123076923076923,2.905034700057005
5.142857142857143,2.8881305255007366
5.162637362637362,2.869701146761306
5.182417582417583,2.849790765011363
5.2021978021978015,2.828447923731202
5.221978021978022,2.8057255974932813
5.241758241758242,2.7816812887034237
5.2615384615384615,2.7563771321001362
5.281318681318681,2.729880006612502
5.301098901098901,2.702261653911795
5.320879120879121,2.673598802649597
5.340659340659341,2.6439732969401484
5.36043956043956,2.6134722270996003
5.380219780219781,2.582188059981492
5.3999999999999995,2.5502187654260196
5.41978021978022,2.517667934351983
5.43956043956044,2.484644882846623
5.4593406593406595,2.4512647352376984
5.479120879120879,2.4176484775590232
5.498901098901099,2.383922971053863
5.518681318681319,2.3502209134270844
5.538461538461538,2.3166807335111663
5.558241758241758,2.2834464029428063
5.578021978021979,2.2506671464907786
5.5978021978021975,2.218497031021085
5.617582417582418,2.187094411982087
5.637362637362637,2.1566212160529394
5.6571428571428575,2.1272420395901714
5.676923076923077,2.099123045133486
5.696703296703297,2.0724306428925874
5.716483516483517,2.0473299511743424
5.736263736263735,2.02398303932801
5.756043956043956,2.0025469689615853
5.775824175824176,1.9831716635653482
5.795604395604395,1.965997652518717
5.815384615384615,1.9511537515658461
5.835164835164835,1.938754756638509
5.854945054945055,1.928899239528806
5.874725274725275,1.9216675404813262
5.894505494505494,1.9171200526675651
5.914285714285715,1.915295885713976
5.934065934065933,1.9162119798590527
5.953846153846154,1.9198627198406675
5.973626373626374,1.9262200702011734
5.993406593406593,1.9352342240536702
6.013186813186813,1.946834728543225
6.032967032967033,1.9609320251937932
6.052747252747253,1.9774193243861649
6.072527472527473,1.9961747217720767
6.092307692307692,2.017063460844947
6.112087912087913,2.0399402495276773
6.131868131868131,2.064651548125618
6.151648351648352,2.0910377595260656
6.171428571428572,2.118935268204469
6.191208791208791,2.14817829069531
6.210989010989011,2.178600515323878
6.230769230769231,2.210036522225204
6.2505494505494505,2.242322985473093
6.270329670329671,2.2752996673430785
6.29010989010989,2.3088102204486147
6.309890109890111,2.3427028170081856
6.329670329670329,2.376830626202241
6.349450549450549,2.4110521608692284
6.36923076923077,2.4452315140552066
6.3890109890109885,2.4792385045100236
6.408791208791209,2.5129487483924313
6.428571428571428,2.5462436724229884
6.4483516483516485,2.5790104816654433
6.468131868131868,2.611142093133659
6.487912087912088,2.642537044581505
6.507692307692308,2.673099386176
6.527472527472527,2.7027385612958055
6.547252747252747,2.7313692814386554
6.567032967032967,2.758911399152922
6.5868131868131865,2.7852897820151408
6.606593406593407,2.810434189937923
6.626373626373626,2.834279157492743
6.6461538461538465,2.856763882449449
6.665934065934065,2.8778321213521934
6.685714285714286,2.8974320926529455
6.705494505494506,2.915516387695181
6.725274725274725,2.9320418896686777
6.745054945054945,2.946969700531847
6.764835164835165,2.960265075811001
6.7846153846153845,2.97189736712953
6.804395604395605,2.9818399722876214
6.824175824175824,2.9900702927002922
6.8439560439560445,2.9965696980031997
6.863736263736263,3.0013234976498313
6.883516483516484,3.004320919345995
6.903296703296704,3.005555094197385
6.923076923076923,3.005023048480359
6.942857142857143,3.002725701983856
6.962637362637362,2.998667872910614
6.9824175824175825,2.992858289366585
7.002197802197802,2.9853096075081593
7.021978021978022,2.976038436456123
7.041758241758242,2.965065370121496
7.061538461538461,2.9524150261210282
7.081318681318681,2.9381160919860845
7.101098901098901,2.9222013788869794
7.1208791208791204,2.904707883102254
7.140659340659341,2.885676855455545
7.16043956043956,2.865153878918397
7.1802197802197805,2.8431889545294577
7.199999999999999,2.8198365957040443
7.21978021978022,2.795155930895094
7.23956043956044,2.769210814408261
7.259340659340659,2.7420699449598915
7.279120879120879,2.7138069912844967
7.298901098901099,2.6845007237329583
7.318681318681318,2.654235150338555
7.338461538461539,2.6230996552450763
7.358241758241758,2.5911891366710114
7.3780219780219785,2.5586041407035407
7.397802197802197,2.5254509861566743
7.417582417582418,2.491841874469088
7.437362637362638,2.457894977147272
7.457142857142857,2.423734491572808
7.476923076923077,2.3894906540998555
7.496703296703297,2.35529969730114
7.516483516483516,2.3213037360392947
7.536263736263736,2.287650564845921
7.556043956043957,2.2544933470341633
7.575824175824176,2.2219901742620327
7.595604395604395,2.1903034741804084
7.615384615384615,2.1595992436860687
7.635164835164835,2.130046086557853
7.654945054945055,2.101814037321012
7.674725274725275,2.075073158486191
7.694505494505494,2.0499919061977354
7.7142857142857135,2.0267352699891696
7.734065934065935,2.0054627057043923
7.753846153846154,1.9863258962563979
7.7736263736263735,1.9694663918692625
7.793406593406592,1.9550131984187902
7.813186813186814,1.9430803976765736
7.832967032967034,1.9337648946455757
7.852747252747252,1.927144392753595
7.872527472527472,1.9232756958142547
7.892307692307693,1.9221934254776005
7.912087912087912,1.92390922449495
7.931868131868132,1.9284114907829686
7.951648351648351,1.9356656573093292
7.971428571428572,1.945615001295224
7.991208791208791,1.9581819364492892
8.010989010989011,1.9732697169398858
8.03076923076923,1.9907644638416184
8.05054945054945,2.010537415057132
8.07032967032967,2.0324472982745547
8.09010989010989,2.0563427324275874
8.10989010989011,2.0820645747224344
8.129670329670331,2.109448145577784
8.149450549450549,2.138325280778499
8.169230769230769,2.168526177018565
8.189010989010988,2.1998810124699864
8.20879120879121,2.232221337197615
8.22857142857143,2.2653812387250802
8.248351648351647,2.2991982957834125
8.268131868131867,2.3335143384404473
8.287912087912087,2.368176035771458
8.307692307692308,2.4030353334156858
8.327472527472528,2.437949763203641
8.347252747252746,2.472782645933084
8.367032967032966,2.5074032066571843
8.386813186813187,2.541686619798459
8.406593406593407,2.5755139992225238
8.426373626373627,2.608772346244222
8.446153846153845,2.6413544664927135
8.465934065934066,2.673158864691856
8.485714285714286,2.7040896247465227
8.505494505494505,2.734056281075024
8.525274725274725,2.7629736858865366
8.545054945054945,2.790761876057752
8.564835164835165,2.8173459423958414
8.584615384615384,2.8426559033647782
8.604395604395604,2.8666265847785906
8.624175824175826,2.889197506507687
8.643956043956043,2.9103127768851107
8.663736263736263,2.929920995222158
8.683516483516483,2.9479751626323765
8.703296703296704,2.964432601207921
8.723076923076924,2.9792548814818782
8.742857142857142,2.992407758035449
8.762637362637362,3.0038611130634147
8.782417582417583,3.0135889076879945
8.802197802197803,3.0215691408066765
8.821978021978023,3.027783815268138
8.84175824175824,3.032218911190576
8.86153846153846,3.0348643662648676
8.881318681318682,3.0357140629190824
8.901098901098901,3.0347658222600873
8.920879120879121,3.0320214047493734
8.940659340659339,3.027486517614292
8.96043956043956,3.0211708290399257
8.98021978021978,3.0130879892307143
9.0,3.0032556584731713
9.01978021978022,2.991695542370342
9.03956043956044,2.9784334344532564
9.05934065934066,2.963499266403489
9.079120879120879,2.9469271661405827
9.098901098901099,2.9287555240372085
9.11868131868132,2.9090270675184873
9.138461538461538,2.887788944277281
9.158241758241758,2.865092814287395
9.178021978021977,2.8409949507169148
9.197802197802199,2.81555634972438
9.217582417582419,2.788842848953624
9.237362637362637,2.7609252543155174
9.257142857142856,2.731879474344566
9.276923076923078,2.701786661028085
9.296703296703297,2.670733355508685
9.316483516483517,2.6388116364355207
9.336263736263735,2.606119267965022
9.356043956043957,2.5727598434634786
9.375824175824176,2.538842919820346
9.395604395604396,2.5044841359205434
9.415384615384616,2.46980530723319
9.435164835164835,2.434934486647286
9.454945054945055,2.4000059796342286
9.474725274725275,2.3651602995777594
9.494505494505495,2.3305440467530416
9.514285714285714,2.2963096920714525
9.534065934065934,2.2626152445057293
9.553846153846154,2.229623779307642
9.573626373626373,2.197502803037638
9.593406593406593,2.16642343142733
9.613186813186815,2.13655935763852
9.632967032967032,2.108085592046956
9.652747252747252,2.0811769607280777
9.672527472527472,2.056006358723716
9.692307692307693,2.032742766096433
9.712087912087913,2.0115490495942994
9.731868131868131,1.9925795898932286
9.75164835164835,1.9759777927917421
9.771428571428572,1.9618735608219995
9.791208791208792,1.950380817495097
9.810989010989012,1.9415951875772985
9.83076923076923,1.9355919412540294
9.850549450549451,1.9324243061322006
9.87032967032967,1.9321222379982055
9.89010989010989,1.9346917195050357
9.90989010989011,1.9401146271873984
9.92967032967033,1.9483491741816341
9.94945054945055,1.9593309022328347
9.96923076923077,1.9729741656094666
9.989010989010989,1.9891740245487093
10.008791208791209,2.007808448999885
10.028571428571428,2.028740725668213
10.048351648351648,2.0518219623952576
10.068131868131868,2.0768935924301193
10.08791208791209,2.1037897951669042
10.107692307692307,2.132339767210451
10.127472527472527,2.1623697960482664
10.147252747252747,2.193705106375473
10.167032967032966,2.226171464959261
10.186813186813188,2.259596543076236
10.206593406593406,2.293811045707334
10.226373626373626,2.3286496238851355
10.246153846153845,2.363951591155194
10.265934065934067,2.399561467465913
10.285714285714286,2.4353293744192346
10.305494505494504,2.471111305158687
10.325274725274724,2.5067692906541454
10.345054945054946,2.5421714821033734
10.364835164835165,2.577192166875433
10.384615384615385,2.6117117330653734
10.404395604395603,2.6456165954490625
10.424175824175824,2.6787990935074943
10.443956043956044,2.711157370279705
10.463736263736264,2.7425952391239545
10.483516483516484,2.773022044019047
10.503296703296703,2.8023525178115345
10.523076923076923,2.8305066417915183
10.542857142857143,2.857409509138209
10.562637362637362,2.882991194093505
10.582417582417584,2.9071866281749323
10.602197802197802,2.929935484307561
10.621978021978022,2.951182069418884
10.641758241758241,2.970875225784869
10.661538461538463,2.9889682412241867
10.681318681318682,3.00541876810011
10.7010989010989,3.020188750993901
