Frequency (Hz),Amplitude
0.0,1.128201500812919
0.020066889632107024,1.1276755417058169
0.04013377926421405,1.126098206624537
0.060200668896321065,1.1234711221871025
0.0802675585284281,1.119796999092313
0.10033444816053512,1.1150796316524816
0.12040133779264213,1.109323897199717
0.14046822742474915,1.1025357554283814
0.1605351170568562,1.0947222477577818
0.1806020066889632,1.0858914968232078
0.20066889632107024,1.0760527062312024
0.22073578595317725,1.0652161607474544
0.24080267558528426,1.053393227124753
0.2608695652173913,1.0405963558242468
0.2809364548494983,1.0268390839403048
0.3010033444816054,1.0121360397079582
0.3210702341137124,0.996502949057533
0.34113712374581934,0.9799566447869356
0.3612040133779264,0.9625150790551299
0.3812709030100334,0.9441973400682562
0.4013377926421405,0.925023674042802
0.42140468227424743,0.9050155138027413
0.4414715719063545,0.8841955157190389
0.4615384615384615,0.862587607154881
0.4816053511705685,0.8402170471760957
0.5016722408026756,0.8171105040697348
0.5217391304347826,0.7932961542549299
0.5418060200668896,0.7688038085638281
0.5618729096989966,0.7436650737508375
0.5819397993311036,0.7179135596514172
0.6020066889632107,0.69158514593374
0.6220735785953176,0.6647183272759114
0.6421404682274248,0.6373546626542308
0.6622073578595318,0.6095393641273921
0.6822742474916387,0.5813220743703361
0.7023411371237458,0.5527579022295238
0.7224080267558528,0.523908814732205
0.7424749163879598,0.4948455267868182
0.7625418060200668,0.46565009298340565
0.7826086956521738,0.4364194992456588
0.802675585284281,0.407270689151303
0.8227424749163879,0.37834765701265755
0.8428093645484949,0.34983151044292016
0.862876254180602,0.3219547360475629
0.882943143812709,0.295021185523624
0.903010033444816,0.26943315447785837
0.923076923076923,0.24572529260078527
0.9431438127090299,0.22459955263097575
0.963210702341137,0.20694206453806716
0.983277591973244,0.19378059985518398
1.0033444816053512,0.1861277138878677
1.0234113712374582,0.18470149958913415
1.0434782608695652,0.18964965429531494
1.0635451505016722,0.20048485590956605
1.0836120401337792,0.2162885269840642
1.1036789297658862,0.23601300174960785
1.1237458193979932,0.25869860662038274
1.1438127090301002,0.2835612354998073
1.1638795986622072,0.30999556927560445
1.1839464882943145,0.3375447335143169
1.2040133779264215,0.36586468146440226
1.2240802675585283,0.39469385370232624
1.2441471571906353,0.42383016267266177
1.2642140468227423,0.453114375723922
1.2842809364548495,0.48241835260670374
1.3043478260869565,0.5116367593448939
1.3244147157190636,0.5406812131688162
1.3444816053511706,0.569476115289031
1.3645484949832773,0.5979556572534491
1.3846153846153846,0.6260616484005257
1.4046822742474916,0.6537419228364554
1.4247491638795986,0.6809491595538676
1.4448160535117056,0.7076400001982284
1.4648829431438126,0.7337743835614864
1.4849498327759196,0.7593150395309535
1.5050167224080266,0.7842271015369999
1.5250836120401337,0.8084778079054706
1.5451505016722407,0.8320362705119227
1.5652173913043477,0.8548732948119624
1.5852842809364547,0.8769612393937256
1.605351170568562,0.8982739061486331
1.625418060200669,0.9187864543131306
1.6454849498327757,0.9384753332253085
1.6655518394648827,0.957318229824576
1.6856187290969897,0.9752940278114394
1.705685618729097,0.9923827760569556
1.725752508361204,1.0085656643641079
1.745819397993311,1.0238250050776099
1.765886287625418,1.0381442193430284
1.7859531772575248,1.0515078270543954
1.806020066889632,1.0639014397151343
1.826086956521739,1.0753117555851512
1.846153846153846,1.0857265566036085
1.866220735785953,1.095134706671158
1.8862876254180598,1.1035261509508565
1.9063545150501673,1.110891915908759
1.926421404682274,1.1172241098656495
1.9464882943143813,1.1225159238731794
1.966555183946488,1.1267616327624839
1.9866220735785953,1.1299565962431317
2.0066889632107023,1.1320972599555583
2.026755852842809,1.1331811564024257
2.0468227424749164,1.1332069057041338
2.0668896321070234,1.1321742161418782
2.0869565217391304,1.1300838844685817
2.1070234113712374,1.1269377959844962
2.1270903010033444,1.1227389243906967
2.1471571906354514,1.1174913314504225
2.1672240802675584,1.1112001665061737
2.1872909698996654,1.1038716659198062
2.2073578595317724,1.09551315252469
2.2274247491638794,1.0861330352036154
2.2474916387959865,1.0757408087350162
2.267558528428094,1.0643470540837734
2.2876254180602005,1.0519634393538178
2.3076923076923075,1.038602721668062
2.3277591973244145,1.0242787503016515
2.3478260869565215,1.0090064714674813
2.367892976588629,0.9928019352446169
2.3879598662207355,0.9756823052539579
2.408026755852843,0.9576658718294105
2.4280936454849495,0.9387720696146005
2.4481605351170566,0.9190215007479595
2.468227424749164,0.8984359650977293
2.4882943143812706,0.8770384993960738
2.508361204013378,0.854853427626571
2.5284280936454846,0.8319064256847828
2.548494983277592,0.8082246042126665
2.568561872909699,0.7838366146868789
2.5886287625418056,0.7587727854303224
2.608695652173913,0.7330652963811202
2.6287625418060196,0.7067484044263024
2.648829431438127,0.6798587352352703
2.668896321070234,0.6524356633143786
2.688963210702341,0.6245218102039406
2.709030100334448,0.5961637024843998
2.7290969899665547,0.5674126482659038
2.749163879598662,0.5383259157276681
2.769230769230769,0.5089683340748312
2.789297658862876,0.4794144921700087
2.809364548494983,0.4497517924890451
2.82943143812709,0.4200847419713069
2.849498327759197,0.3905410465797043
2.869565217391304,0.3612803474176332
2.8896321070234112,0.332506812093286
2.9096989966555182,0.30448725042527125
2.9297658862876252,0.27757676869658887
2.9498327759197323,0.25225353293761116
2.9698996655518393,0.22916108468928537
2.9899665551839463,0.20914667636410136
3.0100334448160533,0.19326168658123163
3.0301003344481603,0.18265978912671135
3.0501672240802673,0.17833464033789856
3.0702341137123748,0.18075978074718274
3.0903010033444813,0.1896732339770818
3.1103678929765888,0.20420141980128298
3.1304347826086953,0.22320649364779974
3.1505016722408024,0.24559249663785865
3.1705685618729094,0.2704509332799952
3.1906354515050164,0.2970827441194849
3.210702341137124,0.3249663908818802
3.2307692307692304,0.3537149350658106
3.250836120401338,0.38303873387628995
3.270903010033445,0.41271728015425185
3.2909698996655514,0.442579131743275
3.311036789297659,0.4724879204552687
3.3311036789297654,0.5023326479736916
3.351170568561873,0.5320209296512635
3.3712374581939795,0.5614742515075765
3.391304347826087,0.5906246055000656
3.411371237458194,0.6194120754048223
3.4314381270903005,0.6477830849130722
3.451505016722408,0.6756891122314261
3.471571906354515,0.7030857371561621
3.491638795986622,0.7299319278618155
3.511705685618729,0.7561895024854058
3.531772575250836,0.7818227195541202
3.551839464882943,0.8067979643618123
3.5719063545150496,0.8310835074873902
3.591973244147157,0.8546493180417395
3.612040133779264,0.8774669187758428
3.632107023411371,0.899509273449171
3.652173913043478,0.9207506992274969
3.672240802675585,0.9411667986159119
3.692307692307692,0.9607344067168854
3.712374581939799,0.9794315505613825
3.732441471571906,0.9972374179815744
3.752508361204013,1.0141323340406052
3.7725752508361197,1.030097743452618
3.7926421404682276,1.0451161977483157
3.8127090301003346,1.0591713461907866
3.832775919732441,1.07224792964185
3.852842809364548,1.0843317767322158
3.872909698996655,1.0954098018108878
3.8929765886287626,1.1054700042458623
3.9130434782608696,1.1145014687263763
3.933110367892976,1.1224943662800695
3.953177257525083,1.129439955769716
3.9732441471571907,1.1353305856768776
3.9933110367892977,1.140159696014767
4.013377926421405,1.1439218202424215
4.033444816053511,1.1466125870774777
4.053511705685618,1.1482287221265115
4.073578595317726,1.1487680492715542
4.093645484949833,1.1482294917681872
4.113712374581939,1.1466130730270512
4.133779264214047,1.1439199170657863
4.153846153846153,1.1401522486330276
4.173913043478261,1.1353133930213624
4.193979933110368,1.1294077756019103
4.214046822742475,1.1224409211296058
4.234113712374581,1.1144194528872144
4.254180602006689,1.1053510917567098
4.274247491638796,1.0952446553307171
4.294314381270903,1.0841100572049551
4.314381270903009,1.0719583066259655
4.334448160535117,1.058801508708456
4.354515050167224,1.0446528654859237
4.374581939799331,1.0295266781177663
4.394648829431437,1.013438350650653
4.414715719063545,0.9964043958247445
4.434782608695651,0.9784424435318568
4.454849498327759,0.9595712526807317
4.474916387959866,0.9398107274129858
4.494983277591973,0.9191819388563139
4.5150501672240795,0.8977071539155914
4.535117056856188,0.8754098730131183
4.555183946488294,0.8523148792293208
4.575250836120401,0.8284483020122477
4.595317725752508,0.8038376995838443
4.615384615384615,0.7785121654675103
4.635451505016722,0.7525024663301674
4.655518394648829,0.7258412207684111
4.6755852842809364,0.6985631320616063
4.695652173913043,0.6707052926909037
4.71571906354515,0.6423075852278805
4.735785953177258,0.6134132140056738
4.7558528428093645,0.5840694163078993
4.775919732441471,0.5543284229926588
4.795986622073578,0.5242487702095866
4.816053511705686,0.4938971120461132
4.8361204013377925,0.46335075795655456
4.856187290969899,0.43270127372055894
4.8762541806020065,0.40205966421078326
4.896321070234113,0.37156393670438254
4.916387959866221,0.34139027547945283
4.936454849498328,0.31176969589078646
4.956521739130435,0.2830128844839945
4.976588628762541,0.25554668045842216
4.996655518394649,0.22996503942073857
5.016722408026756,0.20709135616007435
5.036789297658863,0.18802842442482465
5.056856187290969,0.17412619204069016
5.076923076923077,0.16674964080726196
5.096989966555184,0.1668066620833618
5.117056856187291,0.17430008591749038
5.137123745819398,0.1883279387943065
5.157190635451505,0.2075312482261881
5.177257525083611,0.2305652836568097
5.197324414715719,0.2563311064728153
5.217391304347826,0.28400783845537014
5.237458193979933,0.313003001496208
5.257525083612039,0.34289050557879286
5.277591973244148,0.3733599186710806
5.297658862876254,0.4041801410407526
5.317725752508361,0.4351746643485821
5.337792642140468,0.4662049800748035
5.357859531772575,0.49715944460947625
5.377926421404682,0.5279457416219218
5.397993311036789,0.5584857163589417
5.418060200668896,0.5887117864059421
5.438127090301003,0.6185644126208658
5.458193979933109,0.6479902927188376
5.478260869565218,0.6769410544166126
5.498327759197324,0.7053722987838587
5.518394648829431,0.7332428924533692
5.538461538461538,0.7605144389747427
5.558528428093646,0.7871508807094663
5.578595317725752,0.813118196943156
5.598662207357859,0.8383841736711313
5.618729096989966,0.8629182272981001
5.638795986622073,0.8866912692568
5.65886287625418,0.9096756019333859
5.678929765886288,0.9318448387188077
5.698996655518394,0.9531738427686237
5.719063545150501,0.9736386803475748
5.739130434782608,0.9932165855924594
5.759197324414716,1.0118859342420223
5.7792642140468224,1.029626224421438
5.799331103678929,1.0464180629784097
5.8193979933110365,1.062243156181164
5.839464882943144,1.0770843038311368
5.8595317725752505,1.0909253960303877
5.879598662207358,1.1037514119920808
5.8996655518394645,1.1155484203975585
5.919732441471571,1.1263035808965534
5.9397993311036785,1.136005146420577
5.959866220735786,1.1446424660387402
5.9799331103678925,1.1522059881343776
5.999999999999999,1.1586872637194885
6.020066889632107,1.1640789497373842
6.040133779264214,1.168374812231026
6.060200668896321,1.171569729277826
6.080267558528428,1.1736596936110966
6.100334448160535,1.1746418148664521
6.120401337792642,1.17451432140593
6.1404682274247495,1.1732765616875915
6.160535117056856,1.170929005160633
6.180602006688963,1.1674732426795698
6.200668896321069,1.16291198644271
6.2207357859531776,1.1572490694738464
6.240802675585284,1.150489444679116
6.260869565217391,1.14263918352601
6.280936454849498,1.1337054744077026
6.301003344481605,1.1236966207751555
6.321070234113712,1.1126220391403359
6.341137123745819,1.100492257080586
6.361204013377926,1.0873189114039543
6.381270903010033,1.0731147466734283
6.40133779264214,1.0578936143330653
6.421404682274248,1.0416704727357218
6.441471571906354,1.0244613884422487
6.461538461538461,1.0062835392509333
6.481605351170568,0.9871552195273641
6.501672240802676,0.9670958485487157
6.521739130434782,0.946125982760564
6.54180602006689,0.9242673330831853
6.561872909698996,0.9015427887175089
6.581939799331103,0.8779764493126264
6.60200668896321,0.8535936679065514
6.622073578595318,0.8284211077877339
6.642140468227424,0.802486817424883
6.662207357859531,0.775820328980648
6.682274247491639,0.7484527878198097
6.702341137123746,0.7204171230757432
6.722408026755852,0.6917482731009762
6.742474916387959,0.6624834850275603
6.762541806020066,0.6326627155247515
6.782608695652174,0.6023291714506454
6.80267558528428,0.5715300465039417
6.822742474916388,0.5403175365150221
6.842809364548494,0.5087502571418264
6.862876254180601,0.47689525260400606
6.882943143812709,0.44483088822776884
6.903010033444816,0.4126510896384577
6.9230769230769225,0.38047167342785476
6.94314381270903,0.34843998674744353
6.963210702341137,0.3167498662263586
6.983277591973244,0.2856652302353935
7.0033444816053505,0.25555761269087635
7.023411371237458,0.22696535269566953
7.0434782608695645,0.2006823930171065
7.063545150501672,0.1778720250343623
7.083612040133779,0.16014595886517113
7.103678929765886,0.14942045243126223
7.123745819397993,0.14729454672222153
7.143812709030099,0.1541493931775925
7.1638795986622075,0.1688870347341405
7.183946488294314,0.18964440119265322
7.204013377926421,0.21462789469588703
7.224080267558528,0.24246559230152923
7.2441471571906355,0.27220299795779745
7.264214046822742,0.30319308645530435
7.2842809364548495,0.33499354834336176
7.304347826086956,0.3672944021045163
7.324414715719063,0.3998713069367976
7.34448160535117,0.43255617464652973
7.364548494983278,0.4652186341401542
7.384615384615384,0.4977541839323768
7.404682274247491,0.530076482395125
7.424749163879598,0.562112232760356
7.444816053511706,0.593797724138029
7.464882943143812,0.6250764496706279
7.48494983277592,0.6558974387475199
7.505016722408026,0.6862140713670299
7.525083612040134,0.7159832237752646
7.545150501672239,0.7451646454633954
7.565217391304348,0.773720500210761
7.585284280936455,0.8016150250857056
7.605351170568561,0.8288142753640435
7.625418060200669,0.8552859327685393
7.645484949832775,0.8809991608778908
7.665551839464882,0.905924496012795
7.685618729096991,0.9300337650343669
7.705685618729096,0.9533000237104522
7.725752508361204,0.9756975109005862
7.74581939799331,0.9972016149688466
7.765886287625418,1.017788849684556
7.785953177257525,1.0374368375008793
7.806020066889631,1.0561242985733588
7.826086956521739,1.0738310442363397
7.846153846153847,1.0905379739262577
7.866220735785952,1.1062270747491607
7.88628762541806,1.1208814230503434
7.906354515050166,1.1344851874699582
7.926421404682274,1.1470236330665535
7.946488294314381,1.1584831261686555
7.966555183946488,1.1688511396766468
7.986622073578595,1.1781162585869913
8.006688963210701,1.186268185551245
8.02675585284281,1.1932977463152967
8.046822742474916,1.199196894911287
8.066889632107022,1.203958718497526
8.08695652173913,1.2075774417601772
8.107023411371236,1.2100484308073678
8.127090301003344,1.2113681964998602
8.147157190635452,1.2115343971751125
8.167224080267557,1.2105458407325036
8.187290969899665,1.2084024860581213
8.207357859531772,1.2051054437768918
8.227424749163879,1.200656976329642
8.247491638795987,1.1950604973821533
8.267558528428093,1.1883205705834774
8.2876254180602,1.1804429077010425
8.307692307692307,1.1714343661722493
8.327759197324415,1.1613029461249462
8.347826086956522,1.1500577869349813
8.367892976588628,1.1377091634059304
8.387959866220736,1.1242684816779116
8.408026755852843,1.109748274997707
8.42809364548495,1.0941621995128146
8.448160535117056,1.0775250302914812
8.468227424749163,1.059852657817401
8.488294314381271,1.0411620852684422
8.508361204013378,1.0214714269643
8.528428093645484,1.0007999084655526
8.548494983277592,0.979167868931348
8.568561872909697,0.9565967665062928
8.588628762541806,0.933109187720294
8.608695652173914,0.9087288621677317
8.628762541806019,0.883480684109671
8.648829431438127,0.8573907431516504
8.668896321070234,0.8304863668426683
8.68896321070234,0.802796178996076
8.709030100334449,0.7743501788634386
8.729096989966555,0.7451798481697908
8.749163879598662,0.7153182957019054
8.769230769230768,0.6848004530321796
8.789297658862875,0.6536633406885629
8.809364548494983,0.6219464326531087
8.82943143812709,0.5896921601292204
8.849498327759196,0.5569466157909795
8.869565217391303,0.5237605518623052
8.889632107023411,0.4901908174550207
8.909698996655518,0.45630246705580896
8.929765886287624,0.4221719193174561
8.949832775919733,0.3878918030291998
8.96989966555184,0.3535785909197394
8.989966555183946,0.3193849795511716
9.010033444816054,0.2855205965787839
9.030100334448159,0.25228772328548227
9.050167224080267,0.2201445473644788
9.070234113712376,0.18981820549084683
9.09030100334448,0.1624990188148652
9.110367892976589,0.14011661519550575
9.130434782608695,0.12547639999815843
9.150501672240802,0.12150311155229605
9.17056856187291,0.1292269717965293
9.190635451505017,0.14681212318452114
9.210702341137123,0.1712132259824241
9.23076923076923,0.1998931518136012
9.250836120401337,0.2311918930512535
9.270903010033445,0.26409495868836735
9.290969899665551,0.2979776054051959
9.311036789297658,0.33244024025660907
9.331103678929765,0.36721459514384813
9.351170568561873,0.4021112144087306
9.37123745819398,0.43698957409048006
9.391304347826086,0.4717405906897061
9.411371237458194,0.50627605842879
9.4314381270903,0.5405220738719587
9.451505016722408,0.5744148257793525
9.471571906354516,0.6078978298508083
9.49163879598662,0.6409200708239152
9.511705685618729,0.6734347290542952
9.531772575250837,0.7053982924634494
9.551839464882942,0.7367699280155379
9.57190635451505,0.7675110313747883
9.591973244147155,0.7975849010482893
9.612040133779264,0.8269565008846083
9.632107023411372,0.8555922861833312
9.652173913043477,0.8834600761889351
9.672240802675585,0.9105289607924285
9.692307692307692,0.9367692327124282
9.712374581939798,0.9621523388163526
9.732441471571907,0.9866508459203271
9.752508361204013,1.010238417601448
9.77257525083612,1.0328897994159432
9.792642140468226,1.0545808105437047
9.812709030100335,1.0752883403411386
9.832775919732441,1.0949903486276134
9.852842809364548,1.1136658687882892
9.872909698996656,1.1312950129714543
9.89297658862876,1.147858978807821
9.91304347826087,1.1633400571939674
9.933110367892976,1.1777216407715942
9.953177257525082,1.1909882328043475
9.97324414715719,1.2031254562085447
9.993311036789297,1.2141200625390505
10.013377926421404,1.2239599407654378
10.033444816053512,1.2326341257031788
10.053511705685617,1.2401328059870502
10.073578595317725,1.2464473314931481
10.093645484949834,1.2515702201319716
10.113712374581938,1.2554951639477228
10.133779264214047,1.2582170344714747
10.153846153846153,1.2597318872837664
10.17391304347826,1.2600369657529078
10.193979933110368,1.2591307039209625
10.214046822742475,1.257012728517785
10.234113712374581,1.2536838600892337
10.254180602006688,1.24914611323225
10.274247491638796,1.2434026959356679
10.294314381270903,1.2364580080318008
10.31438127090301,1.228317638770722
10.334448160535118,1.2189883635355898
10.354515050167223,1.2084781397262874
10.37458193979933,1.1967961018458844
10.394648829431437,1.1839525558362944
10.414715719063544,1.1699589727198685
10.434782608695652,1.1548279816189566
10.454849498327757,1.1385733622421572
10.474916387959865,1.1212100369468307
10.494983277591974,1.1027540625144012
10.515050167224079,1.0832226218065846
10.535117056856187,1.0626340155131186
10.555183946488295,1.0410076542537645
10.5752508361204,1.0183640513661794
10.595317725752508,0.9947248167998359
10.615384615384615,0.9701126526534002
10.635451505016722,0.9445513510478173
10.65551839464883,0.918065795235944
10.675585284280936,0.8906819651311773
10.695652173913043,0.8624269488239888
10.71571906354515,0.8333289621908337
10.735785953177256,0.8034173794515994
