Time (s),Filtered Signal
0.0,0.12131742065354872
0.033370535714285714,0.011227119411588226
0.06674107142857143,-0.06895234087172175
0.10011160714285713,-0.09751916774387281
0.13348214285714285,-0.06978165473595374
0.16685267857142858,0.0009101947875919556
0.20022321428571427,0.08852635660520618
0.23359375,0.16422223288215357
0.2669642857142857,0.20688355469422762
0.30033482142857143,0.20995937208569254
0.33370535714285715,0.18156011607175943
0.36707589285714287,0.1378375142691749
0.40044642857142854,0.09310109662550937
0.43381696428571426,0.052114274408697675
0.4671875,0.009135003350991452
0.5005580357142857,-0.045423186472637773
0.5339285714285714,-0.11450482198748411
0.5672991071428571,-0.186797937218985
0.6006696428571429,-0.23778851631359982
0.6340401785714286,-0.24065974634396906
0.6674107142857143,-0.18224799335494285
0.70078125,-0.07539385386645377
0.7341517857142857,0.04024328462801743
0.7675223214285715,0.11146359007377404
0.8008928571428571,0.09406549108457078
0.8342633928571428,-0.025637607449167626
0.8676339285714285,-0.22104324849545648
0.9010044642857142,-0.4329463257849194
0.934375,-0.5923983521483661
0.9677455357142857,-0.6493328814631396
1.0011160714285714,-0.5945789628813895
1.0344866071428571,-0.46524830541858125
1.0678571428571428,-0.3301039714563307
1.1012276785714286,-0.25979551790347194
1.1345982142857143,-0.29363028336499963
1.16796875,-0.4170629806124104
1.2013392857142857,-0.560837829681629
1.2347098214285714,-0.6243723319467115
1.2680803571428572,-0.5155910334676769
1.3014508928571429,-0.19151672849505294
1.3348214285714286,0.3175672730347419
1.3681919642857143,0.9114679362629649
1.4015625,1.4507873687903063
1.4349330357142858,1.8034534784104002
1.4683035714285715,1.8890924223625039
1.5016741071428572,1.704341585653237
1.535044642857143,1.3200620474766143
1.5684151785714286,0.8526111873425153
1.6017857142857141,0.4213678948186694
1.6351562499999999,0.10963260131884947
1.6685267857142856,-0.056143640683949704
1.7018973214285713,-0.10232029345143574
1.735267857142857,-0.08398184999711729
1.7686383928571427,-0.05451714620355711
1.8020089285714285,-0.04476172844292957
1.8353794642857142,-0.061457325936922234
1.86875,-0.10300824004006014
1.9021205357142856,-0.17942777873020313
1.9354910714285714,-0.31985939725384405
1.968861607142857,-0.5583556669955371
2.002232142857143,-0.9034078937647569
2.0356026785714287,-1.310154911490912
2.0689732142857142,-1.6768444658932824
2.10234375,-1.8754699001267565
2.1357142857142857,-1.8062882706289363
2.169084821428571,-1.4493212391776358
2.202455357142857,-0.8839624685458225
2.2358258928571426,-0.2629241437295084
2.2691964285714286,0.24917520208694316
2.302566964285714,0.543129116747239
2.3359375,0.6057645484444292
2.3693080357142855,0.5156469547415481
2.4026785714285714,0.39888786594014897
2.436049107142857,0.36893757431628016
2.469419642857143,0.47912220207904066
2.5027901785714284,0.7068422980539071
2.5361607142857143,0.9711813398005755
2.56953125,1.1711103114587937
2.6029017857142858,1.225877266929264
2.6362723214285713,1.102634514928494
2.669642857142857,0.8244339508109161
2.7030133928571427,0.4594229866452075
2.7363839285714286,0.09691715968675885
2.769754464285714,-0.18172755257565779
2.803125,-0.32877018196763524
2.8364955357142856,-0.3442012502470986
2.8698660714285715,-0.2730580978668844
2.903236607142857,-0.18605809762050138
2.936607142857143,-0.15024080128467765
2.9699776785714285,-0.20112399134573114
3.0033482142857144,-0.32810263566537
3.03671875,-0.4796746644462868
3.070089285714286,-0.5866071632925748
3.1034598214285714,-0.5932545692566896
3.1368303571428573,-0.48357565357950577
3.170200892857143,-0.2905713508536072
3.2035714285714283,-0.08481546449755585
3.2369419642857142,0.053559374716511614
3.2703124999999997,0.06823911806647959
3.3036830357142857,-0.047916143144818985
3.337053571428571,-0.2457071738239276
3.370424107142857,-0.4336265596562534
3.4037946428571426,-0.5080964541293256
3.4371651785714286,-0.3893908749450484
3.470535714285714,-0.051505698776890735
3.50390625,0.46303833534692856
3.5372767857142855,1.0478019419499227
3.5706473214285714,1.5560914927962348
3.604017857142857,1.8392045854095556
3.637388392857143,1.790782906007276
3.6707589285714284,1.3850432744991459
3.7041294642857143,0.6949964301199257
3.7375,-0.1199546950247498
3.7708705357142858,-0.8580879328903592
3.8042410714285713,-1.3388795795592194
3.837611607142857,-1.4630633715394425
3.8709821428571427,-1.2449699453987102
3.9043526785714286,-0.803289387734222
3.937723214285714,-0.31423149814871953
3.97109375,0.05278775435355996
4.004464285714286,0.19071355638975312
4.0378348214285715,0.08188607957284372
4.0712053571428575,-0.20893584248396535
4.1045758928571425,-0.5670695166744267
4.1379464285714285,-0.8701777602750069
4.171316964285714,-1.025282816652142
4.2046875,-0.9910924624141351
4.238058035714285,-0.7826102332074097
4.271428571428571,-0.45986637853192586
4.304799107142857,-0.10566872307960293
4.338169642857142,0.20091868538796012
4.371540178571428,0.4079111694332884
4.404910714285714,0.5037728018598181
4.43828125,0.5166067040962595
4.471651785714285,0.49932862749384793
4.505022321428571,0.5060860905583281
4.538392857142857,0.5690028297865475
4.571763392857143,0.6847706157440775
4.605133928571428,0.8168033770650461
4.638504464285714,0.9118888992577666
4.671875,0.9236733780503377
4.705245535714286,0.8323058568669116
4.738616071428571,0.6517706912537885
4.771986607142857,0.42260678964077586
4.805357142857143,0.1945074409633557
4.838727678571429,0.007309500641960928
4.872098214285714,-0.12145990049620589
4.90546875,-0.1982131899189348
4.938839285714286,-0.2450182262945362
4.972209821428572,-0.2863753335160205
5.005580357142857,-0.33749728391792044
5.038950892857143,-0.3991073963370486
5.072321428571429,-0.46024287337602354
5.105691964285715,-0.5065273267397273
5.1390625,-0.5287722339804252
5.172433035714286,-0.5269655001811767
5.2058035714285715,-0.5076894541533501
5.2391741071428575,-0.47712374440943145
5.2725446428571425,-0.43456768176512456
5.3059151785714285,-0.37112216389339503
5.339285714285714,-0.2749480748286434
5.3726562499999995,-0.1403291022747223
5.406026785714285,0.024825353920434223
5.439397321428571,0.19779094374973819
5.472767857142857,0.34741835158252926
5.506138392857142,0.445083890455691
5.539508928571428,0.47466563277614143
5.572879464285714,0.43670194774715754
5.60625,0.34523988028249386
5.639620535714285,0.21979823650171496
5.672991071428571,0.07712904215964331
5.706361607142857,-0.07294968742341705
5.739732142857143,-0.225885023243316
5.773102678571428,-0.3762691680446035
5.806473214285714,-0.5110705454677712
5.83984375,-0.6068015991193489
5.873214285714286,-0.633839087571748
5.906584821428571,-0.5676271030104938
5.939955357142857,-0.4021097013775509
5.973325892857143,-0.157965076577912
6.006696428571429,0.12049068394497736
6.040066964285714,0.3802270224171239
6.0734375,0.5796914399023212
6.106808035714286,0.7038081520035883
6.140178571428572,0.7655667570266806
6.173549107142857,0.7934289410842519
6.206919642857143,0.8119202244876109
6.240290178571429,0.8265256965669444
6.273660714285715,0.8210882647252401
6.30703125,0.7682698088412632
6.340401785714286,0.6461027242277801
6.3737723214285715,0.4507669783493005
6.407142857142857,0.1988982600498177
6.4405133928571425,-0.08043919768762285
6.4738839285714285,-0.35798102854711694
6.507254464285714,-0.612983811933403
6.5406249999999995,-0.8340978169793798
6.573995535714285,-1.013742189452248
6.607366071428571,-1.1415363167415986
6.640736607142857,-1.2025265064144577
6.674107142857142,-1.182285873630234
6.707477678571428,-1.075979169981885
6.740848214285714,-0.8953752222341421
6.77421875,-0.6685228112057567
6.807589285714285,-0.4309874018263276
6.840959821428571,-0.21266946384147875
6.874330357142857,-0.027157607177227348
6.907700892857143,0.13055623138730807
6.941071428571428,0.27679936655923987
6.974441964285714,0.426614564317671
7.0078125,0.583065975816622
7.041183035714286,0.7344157041290564
7.074553571428571,0.8603227489183091
7.107924107142857,0.9428130990381696
7.141294642857143,0.9751043927218956
7.174665178571429,0.9630459828174743
7.208035714285714,0.9188135466536614
7.24140625,0.8514388881576944
7.274776785714286,0.7606260264061048
7.308147321428572,0.6379427377294856
7.341517857142857,0.47444502543951045
7.374888392857143,0.2694324127546677
7.408258928571429,0.03431433517960951
7.441629464285715,-0.21095718544234615
7.475,-0.4461456254222382
7.508370535714286,-0.6576029975216239
7.5417410714285715,-0.8388147996724916
7.575111607142857,-0.9846269252396583
7.6084821428571425,-1.084407629823491
7.6418526785714285,-1.1209011913268392
7.675223214285714,-1.0777112002412814
7.7085937499999995,-0.9515110644234642
7.741964285714285,-0.7601307669573314
7.775334821428571,-0.5387673838413529
7.808705357142857,-0.3238633780001167
7.842075892857142,-0.1331872216894005
7.875446428571428,0.04501814561476854
7.908816964285714,0.24496315651920297
7.9421875,0.4999111039475234
7.975558035714285,0.8144922783403289
8.008928571428571,1.1485333707642835
8.042299107142856,1.4227786626535281
8.075669642857143,1.545468589394732
8.109040178571428,1.447983854727925
8.142410714285715,1.113531172555363
8.17578125,0.5868742100796467
8.209151785714285,-0.037568377076023916
8.242522321428572,-0.6427455370207662
8.275892857142857,-1.1200142862774491
8.309263392857142,-1.3942486381229149
8.342633928571429,-1.4377325532353036
8.376004464285714,-1.2721716890277146
8.409375,-0.9604492208006382
8.442745535714286,-0.5900213613920545
8.47611607142857,-0.2501685646622178
8.509486607142858,-0.0072888411239722
8.542857142857143,0.11462545870276214
8.576227678571428,0.14000079642415283
8.609598214285715,0.12911051578527122
8.64296875,0.14952955009695598
8.676339285714285,0.24280880751335548
8.709709821428572,0.4018166678152026
8.743080357142857,0.5707176861833644
8.776450892857143,0.6693446447258775
8.809821428571428,0.631838409839683
8.843191964285714,0.44202023726397227
8.8765625,0.1487391957165437
8.909933035714285,-0.1470498866715478
8.94330357142857,-0.32944232532059037
8.976674107142857,-0.31424996395945654
9.010044642857142,-0.08584501535994322
9.04341517857143,0.2917112493295262
9.076785714285714,0.6949298542735564
9.11015625,0.9853478079464069
9.143526785714286,1.0608168869682926
9.176897321428571,0.893150147643446
9.210267857142856,0.5369770862195774
9.243638392857143,0.10634759477482397
9.277008928571428,-0.27107939714297585
9.310379464285715,-0.50311200241667
9.34375,-0.5650106777859096
9.377120535714285,-0.501652661372179
9.410491071428572,-0.40033354800599985
9.443861607142857,-0.34749967090380274
9.477232142857142,-0.3893495153319138
9.510602678571429,-0.5137012322118246
9.543973214285714,-0.6601127957868529
9.57734375,-0.7520041745082603
9.610714285714286,-0.7347764241234757
9.64408482142857,-0.602072209432968
9.677455357142858,-0.3987598362913933
9.710825892857143,-0.2003586039764696
9.744196428571428,-0.07903634697777842
9.777566964285715,-0.07155658273716096
9.8109375,-0.16298328428234324
9.844308035714285,-0.2928310372219856
9.877678571428572,-0.3808056499538499
9.911049107142857,-0.36103313131362763
9.944419642857143,-0.20996438022870834
9.977790178571428,0.044271656260626784
10.011160714285714,0.33508439708786286
10.04453125,0.5867941249467804
10.077901785714285,0.7461072471853676
10.11127232142857,0.8009124895181592
10.144642857142857,0.7784286104282655
10.178013392857142,0.7254494253980837
10.21138392857143,0.6821266708256661
10.244754464285714,0.6628185809808763
10.278125,0.6524937298609597
10.311495535714286,0.6185121211333279
10.344866071428571,0.530251679892074
10.378236607142856,0.3763810704704015
10.411607142857143,0.17196639565750726
10.444977678571428,-0.046979348202168814
10.478348214285715,-0.23821268553407374
10.51171875,-0.37021400497392626
10.545089285714285,-0.43371680102320664
10.578459821428572,-0.4427259911470506
10.611830357142857,-0.424801596714967
10.645200892857142,-0.40558263515770054
10.678571428571429,-0.3955714227752703
10.711941964285714,-0.38622725469866814
10.745312499999999,-0.35751414299313133
10.778683035714286,-0.29266133747707257
10.81205357142857,-0.19169633430892283
10.845424107142858,-0.07593463074218085
10.878794642857143,0.019198922564266165
10.912165178571428,0.05906304991590056
10.945535714285715,0.024541243761306952
10.97890625,-0.08030548358656249
11.012276785714285,-0.22998231686003986
11.045647321428572,-0.38610389557900143
11.079017857142857,-0.507991695057903
11.112388392857143,-0.5617178331890007
11.145758928571428,-0.5265130539472852
11.179129464285714,-0.3989627991981943
11.2125,-0.19496344484084735
11.245870535714285,0.0519479398022969
11.27924107142857,0.2975834680173356
11.312611607142857,0.4992042438626795
11.345982142857142,0.629148785476122
11.37935267857143,0.6839108720890714
11.412723214285714,0.683327296496393
11.44609375,0.6590266197020623
11.479464285714286,0.6373649075753595
11.512834821428571,0.6259052891841076
11.546205357142856,0.6110777021711877
11.579575892857143,0.568182169414224
11.612946428571428,0.4772125627213729
11.646316964285715,0.33429636582752675
11.6796875,0.1517641272877195
11.713058035714285,-0.051923064817308386
11.746428571428572,-0.2637324251275537
11.779799107142857,-0.4794110834439131
11.813169642857142,-0.6953813000225101
11.846540178571429,-0.8953139105069416
11.879910714285714,-1.042866930852019
11.913281249999999,-1.0891644428000207
11.946651785714286,-0.9940565211315386
11.98002232142857,-0.7503710918705675
12.013392857142858,-0.39682990542282687
12.046763392857143,-0.010520261802942956
12.080133928571428,0.3192992731424835
12.113504464285715,0.5241877715105712
12.146875,0.5808297679214822
12.180245535714285,0.5157075529257455
12.213616071428572,0.3889255320587824
12.246986607142857,0.26567261490208693
12.280357142857143,0.18886261930164014
12.313727678571428,0.16499749001976924
12.347098214285714,0.16842987325640077
12.38046875,0.16033961827061055
12.413839285714285,0.11196857118394234
12.44720982142857,0.0201206014626922
12.480580357142857,-0.09257720060752181
12.513950892857142,-0.1917940325241957
12.54732142857143,-0.2512420934379783
12.580691964285714,-0.26627290978326623
12.6140625,-0.25332844959729733
12.647433035714286,-0.2358987760279744
12.680803571428571,-0.22613511344127385
12.714174107142856,-0.21435168616878905
12.747544642857143,-0.17408983474112702
12.780915178571428,-0.08067809980466044
12.814285714285713,0.06778531230568123
12.84765625,0.2406262894625869
12.881026785714285,0.3837172882980517
12.914397321428572,0.444335682380813
12.947767857142857,0.3989724587950704
12.981138392857142,0.26876319153915673
13.014508928571429,0.11329288779351528
13.047879464285714,0.004857954648275091
13.081249999999999,-0.004400346643460108
13.114620535714286,0.09370770570563303
13.14799107142857,0.26029417804493676
13.181361607142858,0.4282104046340376
13.214732142857143,0.5334592471586809
13.248102678571428,0.5441252266298977
13.281473214285715,0.473280709977194
13.31484375,0.36994156240593207
13.348214285714285,0.2922073417717267
13.381584821428572,0.27502059723457534
13.414955357142857,0.30817936763483006
13.448325892857143,0.3366659922625795
13.481696428571428,0.28565135267767994
13.515066964285714,0.1001560275644391
13.5484375,-0.21994299429402395
13.581808035714285,-0.6093921268370281
13.61517857142857,-0.9610020336939842
13.648549107142857,-1.1751216733635967
13.681919642857142,-1.2115529524733517
13.71529017857143,-1.115648986872021
13.748660714285714,-1.0008752179783724
13.78203125,-0.9918151725281854
13.815401785714286,-1.153623716138511
13.848772321428571,-1.4441587227692567
13.882142857142856,-1.7167927722199272
13.915513392857143,-1.7780922672103179
13.948883928571428,-1.4766188032404053
13.982254464285713,-0.7814575831682746
14.015625,0.18848691192681322
14.048995535714285,1.2011353390971655
14.082366071428572,1.9991297281540341
14.115736607142857,2.3995209847104095
14.149107142857142,2.36021889579599
14.182477678571429,1.9845335579524743
14.215848214285714,1.4649361595797183
14.249218749999999,0.9953160296484481
14.282589285714286,0.6937176826076886
14.31595982142857,0.5693087788013323
14.349330357142858,0.5434596718496121
14.382700892857143,0.5082078937018077
14.416071428571428,0.3894404190602301
14.449441964285715,0.18374739162802206
14.4828125,-0.04558837698776386
14.516183035714285,-0.20650933330646007
14.549553571428572,-0.22776767307792337
14.582924107142857,-0.0953985657159512
14.616294642857143,0.1392784692480058
14.649665178571428,0.380633450254741
14.683035714285714,0.52674209678567
14.71640625,0.507470170803006
14.749776785714285,0.3083560955428053
14.78314732142857,-0.026627071242708158
14.816517857142857,-0.41225886076064794
14.849888392857142,-0.7518593575050854
14.88325892857143,-0.9690861860107834
14.916629464285714,-1.031046556265863
14.95,-0.9551028893699626
14.983370535714286,-0.7975353790927235
15.016741071428571,-0.6290721209371558
15.050111607142856,-0.5074950965935842
15.083482142857143,-0.45858371006377735
15.116852678571428,-0.47281055103879976
15.150223214285713,-0.5180322159863572
15.18359375,-0.5611334610179624
15.216964285714285,-0.5875370975149524
15.250334821428572,-0.6086270547636173
15.283705357142857,-0.6530378493234521
15.317075892857142,-0.7457859003415608
15.350446428571429,-0.88563139149941
15.383816964285714,-1.0327646388773462
15.417187499999999,-1.114856816697345
15.450558035714286,-1.0512491552206091
15.48392857142857,-0.7861907460855753
15.517299107142858,-0.3167577303065408
15.550669642857143,0.2977940234736348
15.584040178571428,0.9510504938986192
15.617410714285715,1.5240375038511542
15.65078125,1.9256681386439916
15.684151785714285,2.122257492969401
15.717522321428572,2.14366696644083
15.750892857142857,2.063557312081869
15.784263392857143,1.962428362113123
15.817633928571428,1.8897298219713747
15.851004464285714,1.8419090144889863
15.884375,1.7662820770966907
15.917745535714285,1.588852137302442
15.95111607142857,1.252874960237488
15.984486607142857,0.7496495970225449
16.017857142857142,0.12679836772044725
16.05122767857143,-0.5292833095261626
16.084598214285712,-1.1269883551886306
16.11796875,-1.6016354097713101
16.151339285714286,-1.9308050463440878
16.18470982142857,-2.127627240286003
16.218080357142856,-2.2187867545707634
16.251450892857143,-2.2212292133590927
16.28482142857143,-2.1306948896550812
16.318191964285713,-1.9276467411031246
16.3515625,-1.596377605176006
16.384933035714287,-1.14604851899296
16.41830357142857,-0.6213898911989026
16.451674107142857,-0.09613773636779477
16.485044642857144,0.34875244994319504
16.518415178571427,0.6521631221527996
16.551785714285714,0.7926069355489346
16.58515625,0.7922279066942143
16.618526785714284,0.7045227583148608
16.65189732142857,0.5926814733014695
16.685267857142858,0.5084673802910282
16.71863839285714,0.47949460298708724
16.752008928571428,0.5076541043353299
16.785379464285715,0.5762918460049696
16.81875,0.6607906767603308
16.852120535714285,0.7372090421669688
16.88549107142857,0.7860297057520594
16.91886160714286,0.7914809732759862
16.95223214285714,0.7395936119536849
16.98560267857143,0.6187192651031793
17.018973214285715,0.42424265461106564
17.05234375,0.16570220844759537
17.085714285714285,-0.1283655719198633
17.119084821428572,-0.4127332074313729
17.152455357142856,-0.6366412636098763
17.185825892857142,-0.7604348282429214
17.21919642857143,-0.7702948442189739
17.252566964285712,-0.6834750810707682
17.2859375,-0.5407223868032429
17.319308035714286,-0.38921221503757314
17.35267857142857,-0.2645586115238358
17.386049107142856,-0.18097469114530843
17.419419642857143,-0.13387012895422065
17.45279017857143,-0.11178452235912065
17.486160714285713,-0.10906213620249333
17.51953125,-0.1305262977986282
17.552901785714287,-0.18475876871618863
17.58627232142857,-0.27014692631601633
17.619642857142857,-0.3630029161181029
17.653013392857144,-0.4166924717724823
17.686383928571427,-0.3750735112829928
17.719754464285714,-0.19585437627707852
17.753125,0.12614633688156848
17.786495535714284,0.5467341953202475
