Frequency (Hz),Amplitude
0.0,8.222905943673947
0.01993355481727575,8.226068467742488
0.0398671096345515,8.23553640959792
0.059800664451827246,8.251251151363524
0.079734219269103,8.273115897934204
0.09966777408637874,8.300996997307003
0.11960132890365449,8.33472572766405
0.13953488372093023,8.374100494356822
0.159468438538206,8.418889369677196
0.17940199335548174,8.468832901737983
0.19933554817275748,8.523647116006357
0.21926910299003324,8.583026633833446
0.23920265780730898,8.646647836262598
0.25913621262458475,8.714172007872065
0.27906976744186046,8.785248403720708
0.29900332225913623,8.859517191906626
0.318936877076412,8.936612234153584
0.3388704318936877,9.016163676630706
0.3588039867109635,9.097800332429378
0.37873754152823924,9.18115184543173
0.39867109634551495,9.265850632499303
0.4186046511627907,9.351533606886271
0.4385382059800665,9.437843690529709
0.4584717607973422,9.524431126447773
0.47840531561461797,9.610954604993548
0.49833887043189373,9.697082219299984
0.5182724252491695,9.78249226606126
0.5382059800664452,9.866873907973389
0.5581395348837209,9.949927713844746
0.5780730897009968,10.031366091710147
0.5980066445182725,10.110913629351867
0.6179401993355482,10.188307355537805
0.637873754152824,10.263296934106956
0.6578073089700996,10.335644801823163
0.6777408637873754,10.40512625972396
0.6976744186046512,10.47152952654456
0.717607973421927,10.53465576171871
0.7375415282392027,10.5943190644625
0.7574750830564785,10.650346454540673
0.7774086378737541,10.70257783950024
0.7973421926910299,10.750865972431919
0.8172757475083057,10.795076403681582
0.8372093023255814,10.835087429376902
0.8571428571428572,10.87079003915109
0.877076411960133,10.902087865029785
0.8970099667774087,10.928897133090437
0.9169435215946844,10.951146619199681
0.9368770764119602,10.96877760987488
0.9568106312292359,10.981743869095602
0.9767441860465116,10.990011611701814
0.9966777408637875,10.993559483852362
1.0166112956810631,10.992378550874106
1.036544850498339,10.986472292702855
1.0564784053156147,10.975856606996945
1.0764119601328903,10.960559819887889
1.0963455149501662,10.940622704214173
1.1162790697674418,10.91609850495936
1.1362126245847177,10.887052971478631
1.1561461794019936,10.8535643959433
1.176079734219269,10.815723657254699
1.196013289036545,10.773634269471875
1.2159468438538206,10.72741243355424
1.2358803986710964,10.677187090935128
1.255813953488372,10.623099977107445
1.275747508305648,10.56530567301109
1.2956810631229239,10.50397165155649
1.3156146179401993,10.439278316091555
1.3355481727574752,10.371419027014765
1.3554817275747508,10.300600112047363
1.3754152823920267,10.227040854899936
1.3953488372093024,10.150973456198646
1.4152823920265782,10.072642959576593
1.435215946843854,9.992307134789389
1.4551495016611296,9.910236308593385
1.4750830564784054,9.826713132947152
1.495016611295681,9.742032278889942
1.514950166112957,9.656500043253962
1.5348837209302328,9.570433854232052
1.5548172757475083,9.484161660818009
1.5747508305647842,9.398021190346675
1.5946843853820598,9.31235905788866
1.6146179401993357,9.227529711220033
1.6345514950166113,9.143894195624695
1.6544850498338872,9.061818724044008
1.6744186046511629,8.981673040211346
1.6943521594684385,8.903828565542902
1.7142857142857144,8.828656324817448
1.73421926910299,8.75652465114969
1.754152823920266,8.68779667746223
1.7740863787375416,8.622827629529466
1.7940199335548175,8.561961944539762
1.8139534883720931,8.505530248715944
1.8338870431893688,8.453846237442232
1.8538205980066447,8.407203511036794
1.8737541528239203,8.365872428151276
1.893687707641196,8.330097046074206
1.9136212624584719,8.300092222257561
1.9335548172757475,8.276040953525476
1.9534883720930232,8.258092028146304
1.9734219269102993,8.24635806094814
1.993355481727575,8.240913972893857
2.0132890365448506,8.24179596427094
2.0332225913621262,8.249001015464748
2.0531561461794023,8.262486932013232
2.073089700996678,8.28217293233008
2.0930232558139537,8.307940758275713
2.1129568106312293,8.339636271786059
2.132890365448505,8.377071486050697
2.1528239202657806,8.420026968062318
2.1727574750830567,8.46825454125553
2.1926910299003324,8.521480212624539
2.212624584717608,8.579407248065893
2.2325581395348837,8.641719322384949
2.25249169435216,8.708083675889766
2.2724252491694354,8.778154217108371
2.292358803986711,8.851574520196474
2.312292358803987,8.927980675362514
2.332225913621263,9.007003960512009
2.352159468438538,9.088273311792497
2.3720930232558137,9.171417579420757
2.39202657807309,9.256067562833866
2.4119601328903655,9.34185782568296
2.431893687707641,9.428428296435735
2.4518272425249172,9.515425664404656
2.471760797342193,9.602504583960913
2.4916943521594686,9.689328701652517
2.511627906976744,9.775571522064993
2.5315614617940203,9.86091712869073
2.551495016611296,9.945060775954648
2.5714285714285716,10.027709368010619
2.5913621262458477,10.108581839092126
2.611295681063123,10.187409449171119
2.6312292358803986,10.26393600753269
2.6511627906976742,10.337918035674422
2.6710963455149503,10.409124879739318
2.691029900332226,10.477338781524129
2.7109634551495017,10.542354915999951
2.7308970099667778,10.6039814022523
2.7508305647840534,10.66203929380634
2.770764119601329,10.71636255345087
2.7906976744186047,10.766798016914507
2.810631229235881,10.813205349074437
2.8305647840531565,10.855456995788645
2.850498338870432,10.893438133929578
2.870431893687708,10.927046621753881
2.8903654485049834,10.956192951362809
2.910299003322259,10.980800204681874
2.9302325581395348,11.000804014111589
2.950166112956811,11.016152528764247
2.9700996677740865,11.02680638700003
2.990033222591362,11.032738695801712
3.0099667774086383,11.033935017375523
3.029900332225914,11.03039336323068
3.0498338870431896,11.022124195865183
3.0697674418604657,11.009150438067703
3.089700996677741,10.991507489726741
3.1096345514950166,10.969243251915564
3.129568106312292,10.942418157888675
3.1495016611295683,10.911105210477468
3.169435215946844,10.87539002520337
3.1893687707641196,10.835370878230696
3.2093023255813957,10.791158758052317
3.2292358803986714,10.74287741953201
3.249169435215947,10.690663438612246
3.2691029900332227,10.63466626562665
3.289036544850499,10.575048274726372
3.3089700996677744,10.511984806431014
3.32890365448505,10.445664199740998
3.3488372093023258,10.376287809592768
3.3687707641196014,10.304070004695818
3.388704318936877,10.22923813995811
3.4086378737541527,10.15203249678277
3.428571428571429,10.072706183508856
3.4485049833887045,9.99152498717825
3.46843853820598,9.90876716665758
3.4883720930232562,9.824723175949952
3.508305647840532,9.73969530533131
3.5282392026578075,9.653997226787697
3.548172757475083,9.567953429173285
3.5681063122923593,9.481898527632776
3.588039867109635,9.396176431231606
3.60797342192691,9.311139352524492
3.6279069767441863,9.227146643097507
3.647840531561462,9.144563440081326
3.6677740863787376,9.063759110401598
3.6877076411960132,8.985105482251283
3.7076411960132893,8.90897485706798
3.727574750830565,8.835737800273575
3.7475083056478407,8.765760715229534
3.7674418604651168,8.69940321225077
3.787375415282392,8.637015292983515
3.807308970099668,8.578934379755363
3.8272425249169437,8.525482229292335
3.8471760797342194,8.47696177998893
3.867109634551495,8.433653991122709
3.887043189368771,8.395814740352588
3.9069767441860463,8.363671851826663
3.9269102990033224,8.337422330575555
3.9468438538205985,8.317229879008766
3.9667774086378738,8.303222767870793
3.98671096345515,8.295492126799608
4.0066445182724255,8.294090708801457
4.026578073089701,8.299032168959664
4.046511627906977,8.310290881261135
4.0664451827242525,8.32780229951673
4.086378737541528,8.351463850074591
4.106312292358805,8.381136326521645
4.1262458471760795,8.41664574090235
4.146179401993356,8.457785573043706
4.166112956810632,8.504319349995058
4.186046511627907,8.555983481705438
4.205980066445183,8.612490276902507
4.225913621262459,8.673531064461192
4.245847176079734,8.738779349890818
4.26578073089701,8.80789394331111
4.2857142857142865,8.880522003737306
4.305647840531561,8.956301953955068
4.325581395348838,9.034866230091566
4.345514950166113,9.115843839627708
4.365448504983389,9.198862710612511
4.385382059800665,9.283551822923908
4.40531561461794,9.369543119379793
4.425249169435216,9.4564732002533
4.445182724252492,9.543984809288187
4.465116279069767,9.631728122709394
4.485049833887043,9.719361855089428
4.50498338870432,9.806554197400043
4.524916943521594,9.892983603295896
4.544850498338871,9.978339439789073
4.5647840531561465,10.062322518116977
4.584717607973422,10.144645519904111
4.604651162790698,10.225033332776531
4.624584717607974,10.303223308495701
4.644518272425249,10.378965455506346
4.664451827242526,10.452022576598251
4.6843853820598005,10.522170361205257
4.704318936877076,10.589197440737744
4.724252491694353,10.652905414286362
4.7441860465116275,10.713108851059388
4.764119601328904,10.769635275028287
4.78405315614618,10.822325136458918
4.803986710963455,10.871031774297467
4.823920265780731,10.915621372756133
4.8438538205980075,10.95597291489902
4.863787375415282,10.991978135555934
4.883720930232559,11.02354147548515
4.9036544850498345,11.05058003835686
4.92358803986711,11.073023551830987
4.943521594684386,11.090814333748376
4.963455149501661,11.10390726423731
4.983388704318937,11.112269764350163
5.003322259136213,11.115881781682802
5.023255813953488,11.114735783285983
5.043189368770764,11.108836756047332
5.063122923588041,11.098202214600159
5.083056478405315,11.082862216695245
5.102990033222592,11.062859385849059
5.122923588039868,11.038248940951483
5.142857142857143,11.009098732372086
5.162790697674419,10.97548928394168
5.182724252491695,10.93751383999853
5.20265780730897,10.89527841647075
5.222591362126246,10.848901854711894
5.242524916943522,10.79851587650748
5.262458471760797,10.74426513832172
5.282392026578074,10.686307282445394
5.3023255813953485,10.624812982234218
5.322259136212625,10.559965978081555
5.342192691029901,10.491963100146462
5.362126245847176,10.42101427314975
5.382059800664452,10.347342497754829
5.4019933554817285,10.27118380216448
5.421926910299003,10.192787156590422
5.44186046511628,10.112414342197676
5.4617940199335555,10.030339765001603
5.48172757475083,9.946850204022757
5.501661129568107,9.862244481814264
5.5215946843853825,9.776833044308818
5.541528239202658,9.690937435844246
5.561461794019934,9.604889654288304
5.5813953488372094,9.519031370483061
5.601328903654485,9.4337129958716
5.621262458471762,9.349292582277393
5.641196013289036,9.266134538513475
5.661129568106313,9.184608149949966
5.681063122923589,9.1050858895085
5.700996677740864,9.027941511915008
5.72093023255814,8.953547927537283
5.740863787375416,8.882274857825463
5.760797342192691,8.814486281263912
5.780730897009967,8.75053768674886
5.800664451827243,8.69077316024113
5.820598006644518,8.635522340101781
5.840531561461795,8.585097286275479
5.8604651162790695,8.539789317896963
5.880398671096346,8.499865882326542
5.900332225913622,8.465567525383324
5.920265780730897,8.437105036956126
5.940199335548173,8.414656847619623
5.960132890365449,8.398366749904449
5.980066445182724,8.388342012210734
6.0,8.384651944040046
6.0199335548172765,8.387326958563365
6.039867109634551,8.396358163158554
6.059800664451828,8.411697491300545
6.0797342192691035,8.433258371114059
6.099667774086379,8.46091690812555
6.119601328903655,8.49451354336855
6.139534883720931,8.533855133963568
6.159468438538206,8.578717392345753
6.179401993355482,8.628847612906165
6.1993355481727574,8.683967611105054
6.219269102990033,8.743776799976581
6.23920265780731,8.8079553320036
6.259136212624584,8.87616724004702
6.279069767441861,8.948063518709185
6.299003322259137,9.02328509650417
6.318936877076412,9.101465658834782
6.338870431893688,9.182234291450285
6.3588039867109645,9.265217923297172
6.378737541528239,9.350043556118784
6.398671096345516,9.436340275566263
6.418604651162791,9.52374104482616
6.438538205980066,9.611884286811582
6.458471760797343,9.700415264842126
6.4784053156146175,9.788987274543516
6.498338870431894,9.87726266155341
6.51827242524917,9.964913680666205
6.538205980066445,10.051623212432096
6.558139534883721,10.137085353081869
6.578073089700998,10.221005893109144
6.598006644518272,10.303102699016259
6.617940199335549,10.38310601171523
6.6378737541528245,10.46075867394993
6.6578073089701,10.53581629793136
6.677740863787376,10.608047383202658
6.6976744186046515,10.677233393610507
6.717607973421927,10.74316880117786
6.737541528239203,10.805661103667072
6.7574750830564785,10.864530821700905
6.777408637873754,10.919611480475552
6.797342192691031,10.970749580355076
6.8172757475083055,11.017804559977403
6.837209302325582,11.060648754923351
6.857142857142858,11.09916735449644
6.877076411960133,11.13325835872523
6.897009966777409,11.162832537324897
6.9169435215946855,11.187813392033
6.93687707641196,11.208137123459611
6.956810631229236,11.2237526033565
6.9767441860465125,11.23462135300818
6.996677740863787,11.240717528272324
7.016611295681064,11.242027911643042
7.036544850498339,11.238551911572182
7.056478405315615,11.230301569154669
7.076411960132891,11.217301572160446
7.096345514950166,11.19958927627058
7.116279069767442,11.17721473324514
7.136212624584719,11.150240725608564
7.156146179401993,11.118742807280503
7.17607973421927,11.082809349399339
7.196013289036546,11.042541590377308
7.21594684385382,10.998053688982761
7.235880398671097,10.949472778961056
7.2558139534883725,10.896939023373536
7.275747508305648,10.840605666447173
7.295681063122924,10.780639080278378
7.3156146179402,10.717218803216676
7.335548172757475,10.650537566160326
7.355481727574752,10.580801302320971
7.3754152823920265,10.50822913525366
7.395348837209303,10.43305333910031
7.415282392026579,10.355519264058124
7.435215946843854,10.275885219066964
7.45514950166113,10.194422302619135
7.475083056478406,10.111414171451056
7.495016611295681,10.027156735703874
7.514950166112956,9.941957767977451
7.5348837209302335,9.85613641259886
7.554817275747508,9.77002258044742
7.574750830564784,9.683956213903866
7.5946843853820605,9.59828640601956
7.614617940199336,9.513370357945854
7.634551495016611,9.4295721591534
7.6544850498338874,9.347261376143697
7.674418604651163,9.266811437354868
7.694352159468439,9.18859780492467
7.714285714285715,9.11299592801423
7.73421926910299,9.040378977595594
7.754152823920266,8.971115368990251
7.774086378737542,8.905566085964807
7.794019933554818,8.844081828698549
7.813953488372093,8.787000017180123
7.83388704318937,8.734641691193067
7.853820598006645,8.687308357520774
7.8737541528239205,8.64527884374965
7.893687707641197,8.608806225415726
7.913621262458472,8.578114898548321
7.9335548172757475,8.553397872280591
7.953488372093024,8.534814355603674
7.9734219269103,8.522487708204311
7.9933554817275745,8.51650381755805
8.013289036544851,8.51690995324302
8.033222591362128,8.523714135280938
8.053156146179402,8.536885036952581
8.073089700996679,8.556352424932182
8.093023255813954,8.582008121817958
8.11295681063123,8.613707459294707
8.132890365448505,8.651271175254085
8.152823920265782,8.694487696035994
8.172757475083056,8.743115736110143
8.192691029900331,8.796887142268535
8.21262458471761,8.855509907741359
8.232558139534884,8.918671283313026
8.252491694352159,8.986040917034519
8.272425249169435,9.057273960897042
8.292358803986712,9.132014091182548
8.312292358803987,9.209896398471034
8.332225913621263,9.2905501128508
8.352159468438538,9.37360113922323
8.372093023255815,9.458674386311955
8.392026578073091,9.545395880786346
8.411960132890366,9.633394664616503
8.43189368770764,9.722304479313715
8.451827242524917,9.811765245082524
8.471760797342194,9.9014243461815
8.491694352159469,9.990937736068055
8.511627906976745,10.079970877317386
8.53156146179402,10.168199531997573
8.551495016611296,10.255310418292597
8.571428571428573,10.341001748822015
8.591362126245848,10.424983665429574
8.611295681063122,10.506978584303743
8.6312292358804,10.586721464237105
8.651162790697676,10.663960009696659
8.67109634551495,10.738454819218683
8.691029900332227,10.809979488499053
8.710963455149502,10.878320676453532
8.730897009966778,10.943278141491703
8.750830564784053,11.004664754296208
8.77076411960133,11.062306492530658
8.790697674418604,11.116042422119426
8.81063122923588,11.165724669046993
8.830564784053157,11.211218385010566
8.850498338870432,11.252401709723122
8.870431893687707,11.289165732196409
8.890365448504983,11.321414452930137
8.91029900332226,11.34906474858612
8.930232558139535,11.372046340427843
8.950166112956811,11.390301767550389
8.970099667774086,11.40378636570591
8.990033222591363,11.412468252339146
9.00996677740864,11.416328318280927
9.029900332225914,11.415360226398281
9.049833887043189,11.409570417362978
9.069767441860467,11.398978122570018
9.089700996677742,11.383615384109072
9.109634551495017,11.363527081559546
9.129568106312293,11.338770965238524
9.14950166112957,11.309417695374925
9.169435215946844,11.275550886507581
9.189368770764121,11.237267156202725
9.209302325581396,11.194676176953033
9.22923588039867,11.147900729847889
9.249169435215949,11.097076758287509
9.269102990033224,11.042353419644428
9.289036544850498,10.983893132347976
9.308970099667773,10.921871615373622
9.328903654485051,10.856477916553294
9.348837209302326,10.78791442547842
9.368770764119601,10.716396866041094
9.388704318936878,10.642154262845843
9.408637873754152,10.56542887482726
9.428571428571429,10.48647608842849
9.448504983388705,10.405564261643006
9.46843853820598,10.322974509110974
9.488372093023255,10.239000417315957
9.508305647840533,10.15394767778046
9.528239202657808,10.068133625055395
9.548172757475083,9.981886665297344
9.56810631229236,9.89554558040294
9.588039867109636,9.80945869211118
9.60797342192691,9.723982870298904
9.627906976744187,9.639482370002824
9.647840531561462,9.556327482635213
9.667774086378738,9.474892988558418
9.687707641196015,9.395556400780997
9.70764119601329,9.318695993155268
9.727574750830565,9.244688611185198
9.747508305647841,9.173907269436931
9.767441860465118,9.106718546561103
9.787375415282392,9.04347979697725
9.807308970099669,8.984536207126439
9.827242524916944,8.930217733544264
9.84717607973422,8.880835969405625
9.867109634551497,8.836680995101476
9.887043189368772,8.798018276206564
9.906976744186046,8.76508567822789
9.926910299003321,8.738090671149681
9.9468438538206,8.717207797457586
9.966777408637874,8.702576474634888
9.986710963455149,8.694299196891945
10.006644518272426,8.6924401911972
10.026578073089702,8.697024569881718
10.046511627906977,8.70803800682338
10.066445182724253,8.725426947335716
10.086378737541528,8.749099344401497
10.106312292358805,8.77892589686746
10.126245847176081,8.814741749676356
10.146179401993356,8.856348603035995
10.16611295681063,8.903517167274567
10.186046511627907,8.955989893402885
10.205980066445184,9.01348390621165
10.225913621262459,9.075694066924141
10.245847176079735,9.142296095629016
10.26578073089701,9.212949689399522
10.285714285714286,9.287301579537132
10.305647840531563,9.364988480103754
10.325581395348838,9.445639889203624
10.345514950166113,9.52888071379174
10.36544850498339,9.614333697669919
10.385382059800666,9.70162164044741
10.40531561461794,9.790369402366832
10.425249169435217,9.88020569590701
10.445182724252492,9.97076466993968
10.465116279069768,10.061687295971604
10.485049833887045,10.152622568733012
10.50498338870432,10.243228535192861
10.524916943521594,10.333173167124006
10.544850498338871,10.422135092743751
10.564784053156147,10.509804202849692
10.584717607973422,10.595882146378298
10.604651162790697,10.680082729542
10.624584717607974,10.762132231741104
10.64451827242525,10.84176965037456
10.664451827242525,10.918746885549611
10.684385382059801,10.992828874560283
10.704318936877076,11.06379368490413
10.724252491694353,11.131432573558756
10.74418604651163,11.19555001926231
10.764119601328904,11.255963733643025
10.784053156146179,11.31250465622797
10.803986710963457,11.365016937629926
10.823920265780732,11.41335791456212
10.843853820598007,11.457398079758256
10.863787375415283,11.497021049375773
10.88372093023256,11.532123530025308
