Time (s),Filtered Signal
0.0,0.03240963528948792
0.03337028824833703,-0.27214586505307437
0.06674057649667406,-0.6006024981094543
0.10011086474501109,-0.9545715781790309
0.13348115299334812,-1.3015548283709468
0.16685144124168516,-1.5794595611120559
0.20022172949002218,-1.7183515413008992
0.2335920177383592,-1.6719997456368842
0.26696230598669624,-1.445348792259006
0.3003325942350333,-1.1031866029473354
0.3337028824833703,-0.752183905651392
0.3670731707317073,-0.5011482390149837
0.40044345898004435,-0.41644778470935306
0.4338137472283814,-0.49383709190772246
0.4671840354767184,-0.6609461801733288
0.5005543237250555,-0.8096959915097016
0.5339246119733925,-0.843055676609655
0.5672949002217295,-0.7139823022592693
0.6006651884700666,-0.4393417206946411
0.6340354767184035,-0.08495056444271451
0.6674057649667406,0.2677766234775424
0.7007760532150776,0.5551971123547411
0.7341463414634146,0.7487283076101786
0.7675166297117517,0.8506352530369754
0.8008869179600887,0.8756654639487301
0.8342572062084257,0.833278881949685
0.8676274944567628,0.7229764802263239
0.9009977827050998,0.5450448787666011
0.9343680709534368,0.31772262146316776
0.9677383592017739,0.08685521549087663
1.001108647450111,-0.08137564520739947
1.0344789356984478,-0.12340511130589142
1.067849223946785,-0.00597790224987157
1.101219512195122,0.25527873879242774
1.134589800443459,0.5954357120859456
1.167960088691796,0.918171103410743
1.2013303769401331,1.12454206354291
1.23470066518847,1.142154568780234
1.268070953436807,0.9460311400144683
1.3014412416851442,0.5666578221960741
1.3348115299334813,0.0845423452683924
1.3681818181818182,-0.3871982220231907
1.4015521064301553,-0.7296240548371244
1.4349223946784924,-0.8500839645517404
1.4682926829268292,-0.7129433715789448
1.5016629711751663,-0.35926608582979447
1.5350332594235034,0.09494722175479366
1.5684035476718403,0.4881765977217756
1.6017738359201774,0.6668165883409619
1.6351441241685145,0.5463394755684208
1.6685144124168514,0.15476706126898843
1.7018847006651885,-0.3656581341826299
1.7352549889135256,-0.8079076529318805
1.7686252771618625,-0.9861136831151868
1.8019955654101996,-0.821867587160045
1.8353658536585367,-0.38851378976740153
1.8687361419068735,0.11313719466820962
1.9021064301552106,0.4418940520950235
1.9354767184035477,0.4274384209002439
1.9688470066518848,0.05208526883015383
2.002217294900222,-0.5381594149903501
2.035587583148559,-1.0998372487077341
2.0689578713968957,-1.403335196414262
2.102328159645233,-1.3346647091256645
2.13569844789357,-0.939128525848336
2.1690687361419068,-0.38891638692111374
2.202439024390244,0.1049751210296683
2.235809312638581,0.3903879340476503
2.269179600886918,0.43434517414493834
2.302549889135255,0.32156764693800627
2.335920177383592,0.1985144386529422
2.369290465631929,0.19501593250629867
2.4026607538802662,0.36224409036292315
2.436031042128603,0.6537019569211691
2.46940133037694,0.9532288055283568
2.5027716186252773,1.1324266925408852
2.536141906873614,1.1088734595202607
2.569512195121951,0.8793998158858077
2.6028824833702884,0.5164439912085033
2.6362527716186253,0.1327747548942025
2.6696230598669626,-0.16706195350280417
2.7029933481152995,-0.32638148632859204
2.7363636363636363,-0.35096204444673845
2.7697339246119737,-0.29503346336407205
2.8031042128603105,-0.2282236682151891
2.8364745011086474,-0.20090540693482428
2.8698447893569847,-0.22458959896606495
2.9032150776053216,-0.2752000671143771
2.9365853658536585,-0.31476254394114117
2.969955654101996,-0.31756529608359213
3.0033259423503327,-0.28516856885201614
3.0366962305986696,-0.24171461234249103
3.070066518847007,-0.21302409661409627
3.1034368070953438,-0.20318334176045816
3.1368070953436806,-0.1846169098787101
3.170177383592018,-0.11020881004563715
3.203547671840355,0.057169048286076316
3.2369179600886917,0.31368516727646495
3.270288248337029,0.6006987728512201
3.303658536585366,0.8186475268806511
3.337028824833703,0.8650601039688813
3.37039911308204,0.680277608159062
3.403769401330377,0.2797070984342074
3.437139689578714,-0.24314787935197046
3.470509977827051,-0.7458854708236627
3.503880266075388,-1.087452215210532
3.537250554323725,-1.1787820049975042
3.5706208425720622,-1.012517194850847
3.603991130820399,-0.6593192283877979
3.637361419068736,-0.23321066441708674
3.6707317073170733,0.1571589492443118
3.70410199556541,0.4477699142453761
3.737472283813747,0.6307822536731761
3.7708425720620844,0.7354585243359503
3.8042128603104213,0.7927241453166151
3.8375831485587586,0.8065891678283644
3.8709534368070955,0.7505265438758049
3.9043237250554323,0.5903974542587559
3.9376940133037697,0.317928307594121
3.9710643015521065,-0.02844461319159954
4.004434589800444,-0.370467850353271
4.037804878048781,-0.6218154397728757
4.071175166297118,-0.7259795193784411
4.1045454545454545,-0.6783750194093034
4.137915742793791,-0.5216458352230937
4.171286031042128,-0.32013235595174727
4.204656319290466,-0.13084851139322312
4.238026607538803,0.01279637180847663
4.27139689578714,0.09968999500558837
4.304767184035477,0.129893234777321
4.3381374722838135,0.10631291928367333
4.371507760532151,0.03633001513245729
4.404878048780488,-0.059998893060078384
4.438248337028825,-0.1456311031069799
4.471618625277162,-0.17480637167034244
4.504988913525499,-0.11335356603726632
4.538359201773836,0.03945963951205275
4.571729490022173,0.24161372311456442
4.60509977827051,0.42007990441423465
4.638470066518847,0.5005365183275662
4.671840354767184,0.44126089657001927
4.705210643015521,0.2540793938986981
4.738580931263858,0.0014729754703931117
4.771951219512196,-0.22888528504347053
4.8053215077605325,-0.359749142793363
4.838691796008869,-0.35357572200411813
4.872062084257206,-0.22337579501266094
4.905432372505543,-0.022586013565231787
4.93880266075388,0.1793904986656029
4.972172949002218,0.3245245368560143
5.005543237250555,0.3854740825333063
5.0389135254988915,0.37033346734587536
5.072283813747228,0.31221646504827033
5.105654101995565,0.24871886124828396
5.139024390243902,0.20026675783792272
5.17239467849224,0.15732968023936278
5.205764966740577,0.08348952040915682
5.239135254988914,-0.06530604413206163
5.2725055432372505,-0.31301525971783534
5.305875831485587,-0.6405725643647114
5.339246119733925,-0.9805989592761327
5.372616407982262,-1.2353176095903042
5.405986696230599,-1.3121141889008925
5.439356984478936,-1.161853001814969
5.472727272727273,-0.8026532942266514
5.5060975609756095,-0.31782745858617334
5.539467849223947,0.17194981337250698
5.572838137472284,0.5510668404829453
5.606208425720621,0.7489859921172165
5.639578713968958,0.7623064774678492
5.672949002217295,0.6508660291508078
5.706319290465632,0.5101091029677653
5.7396895787139695,0.4310713785408512
5.773059866962306,0.46408629342867813
5.806430155210643,0.6008139623586506
5.83980044345898,0.7816190753334037
5.873170731707317,0.9243999674966838
5.906541019955654,0.9613706866027575
5.939911308203992,0.8667660474969275
5.9732815964523285,0.6632294403208013
6.006651884700665,0.40572812232380456
6.040022172949002,0.15337222051939253
6.073392461197339,-0.05509279099079349
6.106762749445676,-0.2102222261523305
6.140133037694014,-0.32376929895447687
6.173503325942351,-0.4121343167439477
6.2068736141906875,-0.48330521792350173
6.240243902439024,-0.5345475891813514
6.273614190687361,-0.5596594934678625
6.306984478935698,-0.5586301233472425
6.340354767184036,-0.5424932435831693
6.373725055432373,-0.5307122055804381
6.40709534368071,-0.5433872032767744
6.4404656319290465,-0.5926600394492177
6.473835920177383,-0.6767159087818452
6.507206208425721,-0.7777774407506693
6.540576496674058,-0.8642825275989646
6.573946784922395,-0.8971724291508486
6.607317073170732,-0.8398300705116668
6.640687361419069,-0.6699376472070685
6.674057649667406,-0.3898046576480435
6.707427937915743,-0.030843023081820995
6.74079822616408,0.3510637279548787
6.774168514412417,0.6894633680735307
6.807538802660754,0.9266998826404816
6.840909090909091,1.0319153916077923
6.874279379157428,1.0105015452669952
6.9076496674057655,0.900694915907336
6.941019955654102,0.7581309900783635
6.974390243902439,0.6342779495796246
7.007760532150776,0.5573834888599013
7.041130820399113,0.5235872645736144
7.07450110864745,0.5015687955326108
7.107871396895788,0.4483814976223684
7.1412416851441245,0.3294939291641787
7.174611973392461,0.13460166836847137
7.207982261640798,-0.11689576055100134
7.241352549889135,-0.3819981179415258
7.274722838137472,-0.6081600692656738
7.30809312638581,-0.7491309280738621
7.341463414634147,-0.7770397784565508
7.3748337028824835,-0.6879963524351205
7.40820399113082,-0.5015075259690059
7.441574279379157,-0.2556600685670066
7.474944567627494,9.316267283891963e-05
7.508314855875832,0.21379678586860273
7.541685144124169,0.34153292541360575
7.575055432372506,0.3591248183833584
7.6084257206208425,0.27257981079269933
7.641796008869179,0.1227025476873872
7.675166297117517,-0.02114991654504876
7.708536585365854,-0.08043351573115633
7.741906873614191,0.0036298368995368742
7.775277161862528,0.24140563678026833
7.808647450110865,0.5795649189706766
7.842017738359202,0.9092919867494553
7.875388026607539,1.0991402381426514
7.908758314855876,1.0423469194595247
7.942128603104213,0.7003678223549732
7.97549889135255,0.12424592824843995
8.008869179600888,-0.556128347380437
8.042239467849225,-1.1716751079806405
8.075609756097561,-1.56803393485596
8.108980044345898,-1.6543333237776863
8.142350332594235,-1.4305855459839274
8.175720620842572,-0.9857828882184824
8.209090909090909,-0.4682336840092885
8.242461197339246,-0.0375597391973587
8.275831485587583,0.18696023873763717
8.30920177383592,0.1650908438440746
8.342572062084257,-0.052525592638638416
8.375942350332595,-0.3451494736626152
8.409312638580932,-0.5690488737871481
8.442682926829269,-0.6133082669442601
8.476053215077606,-0.4417983450308396
8.509423503325943,-0.10372224703512102
8.54279379157428,0.29131359407798296
8.576164079822616,0.6217371621105434
8.609534368070953,0.8034957531218455
8.64290465631929,0.8186790307856298
8.676274944567627,0.7126235110476189
8.709645232815964,0.5645946151383078
8.743015521064303,0.448994092044972
8.77638580931264,0.40625944084578997
8.809756097560976,0.4350764790289685
8.843126385809313,0.5051743480345092
8.87649667405765,0.5797188479820058
8.909866962305987,0.6332639836666744
8.943237250554324,0.6562161823285458
8.97660753880266,0.6463296694284895
9.009977827050998,0.5961655759019656
9.043348115299334,0.4878555487229128
9.076718403547671,0.3014886075301991
9.110088691796008,0.03382038919593122
9.143458980044347,-0.28449407755058786
9.176829268292684,-0.586773712477923
9.21019955654102,-0.7900244311989323
9.243569844789358,-0.8307060527408306
9.276940133037694,-0.6996197328317874
9.310310421286031,-0.45622130189764415
9.343680709534368,-0.2110133531343683
9.377050997782705,-0.08051970851603887
9.410421286031042,-0.1344208624432551
9.443791574279379,-0.36029106585777027
9.477161862527716,-0.66425258885633
9.510532150776053,-0.9089575946954006
9.543902439024391,-0.9722033617937396
9.577272727272728,-0.7994852136203668
9.610643015521065,-0.426907596646666
9.644013303769402,0.03474920196888814
9.677383592017739,0.4459324576826691
9.710753880266076,0.6926079117047104
9.744124168514412,0.7257117872620085
9.77749445676275,0.5715277821815982
9.810864745011086,0.3127270456128574
9.844235033259423,0.051612230490405864
9.87760532150776,-0.12799330002568812
9.910975609756099,-0.1862855398613426
9.944345898004435,-0.13363144042149602
9.977716186252772,-0.01840241750968603
10.01108647450111,0.096557236346381
10.044456762749446,0.15915215218004544
10.077827050997783,0.14580799608852618
10.11119733924612,0.06610978616483615
10.144567627494457,-0.04589498349996947
10.177937915742794,-0.1483488735178891
10.21130820399113,-0.20777915473765282
10.244678492239467,-0.2077664269261882
10.278048780487804,-0.1481292230016045
10.311419068736143,-0.03840145993940844
10.34478935698448,0.10798258161226977
10.378159645232817,0.274513930964033
10.411529933481154,0.4383963059815702
10.44490022172949,0.5686406154932862
10.478270509977827,0.6309115271620374
10.511640798226164,0.5999253127340364
10.545011086474501,0.4738656883001621
10.578381374722838,0.2818495423913236
10.611751662971175,0.0778462695153611
10.645121951219512,-0.07831803032917377
10.67849223946785,-0.14451384773416925
10.711862527716187,-0.11276721653844224
10.745232815964524,-0.010374894973272073
10.778603104212861,0.11435116207371052
10.811973392461198,0.21354339761089064
10.845343680709535,0.2569509698710508
10.878713968957872,0.23676725625357092
10.912084257206208,0.16003727010339455
10.945454545454545,0.03612746261956095
10.978824833702882,-0.13080782277955777
11.012195121951219,-0.3385619086997245
11.045565410199556,-0.5750809141299277
11.078935698447895,-0.8072771793169389
11.112305986696231,-0.9807800414028129
11.145676274944568,-1.035330467955126
11.179046563192905,-0.9310436904079268
11.212416851441242,-0.6728657430673579
11.245787139689579,-0.3191208108688607
11.279157427937916,0.03343631216252367
11.312527716186253,0.2841449857116931
11.34589800443459,0.3680795012766604
11.379268292682926,0.2825142232154843
11.412638580931263,0.08722317543585315
11.4460088691796,-0.12224660175629115
11.479379157427939,-0.25617597021311556
11.512749445676276,-0.26769415167652943
11.546119733924613,-0.16802166418311432
11.57949002217295,-0.0135846864841331
11.612860310421286,0.12736598615916447
11.646230598669623,0.2110773009568841
11.67960088691796,0.23926477031540325
11.712971175166297,0.25503789203207383
11.746341463414634,0.3171174374217116
11.77971175166297,0.46612356132354643
11.813082039911308,0.6995465939596635
11.846452328159646,0.9667493802511492
11.879822616407983,1.1855473372088643
11.91319290465632,1.2725709460253012
11.946563192904657,1.17456036535126
11.979933481152994,0.8883579051128937
12.01330376940133,0.462676654196098
12.046674057649668,-0.017823666666358144
12.080044345898004,-0.4591154180463725
12.113414634146341,-0.7848830033768661
12.146784922394678,-0.9550699564558215
12.180155210643015,-0.9711927523387185
12.213525498891352,-0.8690313050488988
12.24689578713969,-0.7033044490490138
12.280266075388028,-0.5303370424768596
12.313636363636364,-0.3936854756285623
12.347006651884701,-0.3154755334916755
12.380376940133038,-0.2942296148282574
12.413747228381375,-0.3088186936185414
12.447117516629712,-0.32745108015877106
12.480487804878049,-0.31959751748478615
12.513858093126386,-0.26743228924380535
12.547228381374723,-0.17267265265069023
12.58059866962306,-0.055736338316567026
12.613968957871396,0.05291194176925904
12.647339246119735,0.12572208241720645
12.680709534368072,0.1495477930344392
12.714079822616409,0.13047006270262462
12.747450110864746,0.09007481498860569
12.780820399113082,0.055509561574404905
12.81419068736142,0.04837571007541115
12.847560975609756,0.07741624412697097
12.880931263858093,0.13744176844731545
12.91430155210643,0.21368916204301105
12.947671840354767,0.28859486715304034
12.981042128603104,0.34764259057618924
13.014412416851442,0.3822223353409435
13.04778270509978,0.3893469918834989
13.081152993348116,0.3696233516931877
13.114523281596453,0.32543880588302676
13.14789356984479,0.2607375261703597
13.181263858093127,0.18234940967667002
13.214634146341464,0.1013948053568283
13.2480044345898,0.03275754960687016
13.281374722838137,-0.00850743627048227
13.314745011086474,-0.013064074890064128
13.348115299334811,0.017119951069757434
13.381485587583148,0.06670236787263786
13.414855875831487,0.11046673516023651
13.448226164079824,0.12196475315550202
13.48159645232816,0.08422202367588892
13.514966740576497,-0.0020702509157641148
13.548337028824834,-0.11699928459090121
13.581707317073171,-0.22824158751805204
13.615077605321508,-0.30442287877766744
13.648447893569845,-0.3298101266847361
13.681818181818182,-0.3134395447687767
13.715188470066519,-0.28713560361412876
13.748558758314855,-0.29145292563502007
13.781929046563192,-0.35476068081146617
13.815299334811531,-0.47534785454512024
13.848669623059868,-0.6164520521925708
13.882039911308205,-0.7185245685439405
13.915410199556542,-0.7241757835097671
13.948780487804878,-0.6039152318080966
13.982150776053215,-0.36959135324759884
14.015521064301552,-0.06865123441035194
14.048891352549889,0.2372581178663413
14.082261640798226,0.49735300236158303
14.115631929046563,0.6871004428218226
14.1490022172949,0.8071828280325006
14.182372505543238,0.8695757998702094
14.215742793791575,0.8816678752136002
14.249113082039912,0.8393002223611048
14.282483370288249,0.7325756055586022
14.315853658536586,0.5592971372774513
14.349223946784923,0.33597207158761255
14.38259423503326,0.09836451961035433
14.415964523281596,-0.10935353173431059
14.449334811529933,-0.25080022966814014
14.48270509977827,-0.31035007142128357
14.516075388026607,-0.29706564933415275
14.549445676274944,-0.2391396257776137
14.582815964523283,-0.1725745255999075
14.61618625277162,-0.1289292888916414
14.649556541019956,-0.12572789241820173
14.682926829268293,-0.16153258246655097
14.71629711751663,-0.21683487654699182
14.749667405764967,-0.2612349039989017
14.783037694013304,-0.2656899690519302
14.81640798226164,-0.2158990782650113
14.849778270509978,-0.12087835964730015
14.883148558758315,-0.011644792145906645
14.916518847006651,0.0708013404440491
14.949889135254988,0.09335674342910268
14.983259423503327,0.04612286944035055
15.016629711751664,-0.05243644618992263
15.05,-0.1630871879396353
15.083370288248338,-0.2424785248068734
15.116740576496674,-0.26098584212944387
15.150110864745011,-0.2137980345781065
15.183481152993348,-0.1210020118321592
15.216851441241685,-0.01767494666431253
15.250221729490022,0.06090197968422202
15.283592017738359,0.0925783323987112
15.316962305986696,0.07551981530099185
15.350332594235034,0.027554242039774964
15.383702882483371,-0.02133363728378929
15.417073170731708,-0.0407991655137854
15.450443458980045,-0.01285259458213064
15.483813747228382,0.058543329601415374
15.517184035476719,0.14531829654979717
15.550554323725056,0.20367561510693555
15.583924611973393,0.19240797150868005
15.61729490022173,0.09512621692984344
15.650665188470066,-0.06396614297928269
15.684035476718403,-0.2209566461769577
15.71740576496674,-0.29371932940044476
15.750776053215079,-0.2176923958970054
15.784146341463416,0.019507319187910436
15.817516629711752,0.36244173066994767
15.85088691796009,0.7020496553568181
15.884257206208426,0.9167554487518412
15.917627494456763,0.9235399621622784
15.9509977827051,0.7153208767954334
15.984368070953437,0.36589130715897433
16.017738359201775,-0.001446659183058194
16.05110864745011,-0.2676836559225067
16.08447893569845,-0.36904679700824666
16.117849223946784,-0.3209114558172199
16.151219512195123,-0.2038451529814427
16.184589800443458,-0.11962102601572358
16.217960088691797,-0.13943126584538726
16.251330376940132,-0.2695843384209474
16.28470066518847,-0.45067063851283123
16.31807095343681,-0.5895383833096608
16.351441241685144,-0.6075926671215884
16.384811529933483,-0.4813514129444688
16.418181818181818,-0.25533171516860903
16.451552106430157,-0.021154016312086313
16.48492239467849,0.12649742080591206
16.51829268292683,0.1350396557651608
16.551662971175165,0.017995167678842884
16.585033259423504,-0.15347890721869525
16.61840354767184,-0.2863197794825236
16.651773835920178,-0.30985698659898714
16.685144124168513,-0.2065729688046188
16.71851441241685,-0.015408068893675728
16.75188470066519,0.1913415333667152
16.785254988913525,0.34321840680200394
16.818625277161864,0.4001762279028031
16.8519955654102,0.36193968072517685
16.885365853658538,0.25764588076444717
16.918736141906873,0.12569986533715435
16.95210643015521,-0.003198171188535018
16.985476718403547,-0.11189267784638379
17.018847006651885,-0.19221832875682524
17.05221729490022,-0.23722990360745086
17.08558758314856,-0.23788049518862694
17.118957871396898,-0.18694337999434418
17.152328159645233,-0.08673419683630912
17.18569844789357,0.04600143606374902
17.219068736141907,0.18288019143625717
17.252439024390245,0.29399212890430837
17.28580931263858,0.36004078485621177
17.31917960088692,0.3797761196031209
