Time (s),Filtered Signal
0.0,-0.04768002391560255
0.03337004405286344,-0.1221917967212885
0.06674008810572687,-0.12386464621372963
0.10011013215859031,-0.014426864499025211
0.13348017621145375,0.1926803957209938
0.16685022026431717,0.43855113128732576
0.20022026431718062,0.6453268265295496
0.23359030837004408,0.7496133564841492
0.2669603524229075,0.7270112974057923
0.3003303964757709,0.5975186967764765
0.33370044052863435,0.411661470111738
0.3670704845814978,0.22624957821690592
0.40044052863436125,0.08216903005766096
0.43381057268722467,-0.006414026909749872
0.46718061674008815,-0.04910805385766339
0.5005506607929515,-0.06715979686198453
0.533920704845815,-0.08001493950564101
0.5672907488986785,-0.09727416007111589
0.6006607929515418,-0.11848751712534772
0.6340308370044053,-0.13863507923259086
0.6674008810572687,-0.15459668502939697
0.7007709251101322,-0.16833329140471492
0.7341409691629956,-0.18514509265339624
0.767511013215859,-0.20851745191647897
0.8008810572687225,-0.23502971576233417
0.834251101321586,-0.252723683730545
0.8676211453744493,-0.24443364117167407
0.9009911894273128,-0.19492656155836124
0.9343612334801763,-0.09862540254038508
0.9677312775330397,0.03579591446584526
1.001101321585903,0.18630607553907877
1.0344713656387665,0.32373268742136524
1.06784140969163,0.4207081355800671
1.1012114537444935,0.45965090845728773
1.134581497797357,0.43680582982638716
1.1679515418502202,0.36138387008383527
1.2013215859030837,0.2509845418313268
1.2346916299559472,0.12567536850552066
1.2680616740088106,0.0029884613680177374
1.3014317180616741,-0.10489814261486513
1.3348017621145374,-0.19165614782572965
1.3681718061674009,-0.25560871450271855
1.4015418502202643,-0.2978044058635352
1.4349118942731278,-0.3203730733398917
1.4682819383259913,-0.32595789582077384
1.5016519823788548,-0.3184422338648635
1.535022026431718,-0.304284619432888
1.5683920704845815,-0.29295811795059357
1.601762114537445,-0.2949538879309256
1.6351321585903085,-0.3169913316718937
1.668502202643172,-0.35611291618582225
1.7018722466960352,-0.39603227634032834
1.7352422907488987,-0.4090990528906892
1.7686123348017622,-0.36501686068528183
1.8019823788546256,-0.24385579546161898
1.8353524229074891,-0.04785116017946372
1.8687224669603526,0.19410576428584123
1.9020925110132159,0.43274307758772473
1.9354625550660793,0.6140433828826134
1.9688325991189428,0.6981203143791511
2.002202643171806,0.6732195127205894
2.0355726872246698,0.558719346044483
2.068942731277533,0.39611584295519336
2.1023127753303967,0.23254349254688325
2.13568281938326,0.10447128568494311
2.1690528634361232,0.028335488247712502
2.202422907488987,0.0008059242380598137
2.23579295154185,0.006565304374983138
2.269162995594714,0.028457243098705447
2.302533039647577,0.054863307372974825
2.3359030837004404,0.08166040181881327
2.369273127753304,0.10936461787577949
2.4026431718061674,0.138310475245608
2.436013215859031,0.16504979744845194
2.4693832599118943,0.18184318225482626
2.5027533039647576,0.17917890397321576
2.5361233480176213,0.14975992389025145
2.5694933920704845,0.09192694470366483
2.6028634361233483,0.01099696622825867
2.6362334801762115,-0.08194520543849165
2.6696035242290748,-0.1732039230781535
2.7029735682819385,-0.2503415079879123
2.7363436123348017,-0.3054763307429893
2.7697136563876654,-0.3371386512921057
2.8030837004405287,-0.350346375538768
2.8364537444933924,-0.35493059246301234
2.8698237885462556,-0.36232004641698495
2.903193832599119,-0.38121930838902734
2.9365638766519826,-0.4131087146982927
2.969933920704846,-0.449145484367849
3.0033039647577096,-0.470348524933029
3.036674008810573,-0.4523111511959589
3.070044052863436,-0.3739340970084981
3.1034140969162998,-0.22739680822417402
3.136784140969163,-0.025015626951774814
3.1701541850220267,0.20099825320856363
3.20352422907489,0.4071901620314857
3.2368942731277532,0.5532316297169406
3.270264317180617,0.6160637203291046
3.30363436123348,0.5973738525778097
3.337004405286344,0.5208534592004104
3.370374449339207,0.4206106048861088
3.4037444933920704,0.3264387389352851
3.437114537444934,0.25298696731570847
3.4704845814977974,0.1975334983696245
3.503854625550661,0.14639858637991504
3.5372246696035243,0.08565111666429964
3.5705947136563876,0.010002490243288168
3.6039647577092513,-0.07457155065536561
3.6373348017621145,-0.15501939998633835
3.6707048458149782,-0.21888803774085772
3.7040748898678415,-0.2605214155861497
3.737444933920705,-0.2821942773990743
3.7708149779735685,-0.29000450135086536
3.8041850220264317,-0.2876873773269803
3.8375550660792954,-0.2727731149433732
3.8709251101321587,-0.23793005534536227
3.9042951541850224,-0.17688094329644
3.9376651982378856,-0.0911005200826979
3.971035242290749,0.0073296473580777045
4.004405286343612,0.09915248046663708
4.037775330396476,0.16616918335529127
4.0711453744493395,0.19960701145585366
4.104515418502203,0.20362670619363502
4.137885462555066,0.19181516913920496
4.171255506607929,0.17875169013369926
4.2046255506607935,0.17169526440582786
4.237995594713657,0.16727253201641046
4.27136563876652,0.15492122599508323
4.304735682819383,0.12476927908419634
4.3381057268722465,0.07510862263844638
4.371475770925111,0.0150811451235203
4.404845814977974,-0.038825522265293615
4.438215859030837,-0.07030253970092479
4.4715859030837,-0.0705521034603626
4.504955947136564,-0.04172910820721647
4.538325991189428,0.004706455572256611
4.571696035242291,0.053109986053592795
4.605066079295154,0.08915892616054118
4.638436123348018,0.10319023841802788
4.671806167400881,0.09070954778090191
4.705176211453745,0.051274743708565024
4.738546255506608,-0.01241714583439391
4.7719162995594715,-0.09426981632613078
4.805286343612335,-0.18393706952484792
4.838656387665198,-0.26698100904691857
4.872026431718062,-0.32731860262190976
4.905396475770925,-0.35176017575115953
4.938766519823789,-0.33482719545891293
4.972136563876652,-0.28140900308551425
5.005506607929515,-0.20564874994398022
5.038876651982379,-0.1262688828910037
5.072246696035243,-0.0603017564595633
5.105616740088106,-0.0179158963883985
5.138986784140969,-0.0003826315819438412
5.172356828193832,-0.0016192225836092304
5.2057268722466965,-0.01205303992802799
5.23909691629956,-0.02264533706620331
5.272466960352423,-0.02720497470344094
5.305837004405286,-0.022371270804377244
5.3392070484581495,-0.00610428835342186
5.372577092511014,0.023649816660991852
5.405947136563877,0.0687259508220475
5.43931718061674,0.1287690383381432
5.4726872246696034,0.19879754133550329
5.506057268722468,0.2683285264455675
5.539427312775331,0.3235741474058762
5.572797356828194,0.3525545106611954
5.606167400881057,0.3510012657203202
5.639537444933921,0.32581379858879045
5.672907488986785,0.29342599393841484
5.706277533039648,0.2727315382303597
5.739647577092511,0.27518578370281477
5.7730176211453745,0.2967760649922614
5.806387665198238,0.3164257668978673
5.839757709251102,0.3028162848639822
5.873127753303965,0.22762772894991437
5.9064977973568284,0.0797259616276616
5.939867841409692,-0.12630502022973397
5.973237885462555,-0.3518671954994709
6.006607929515419,-0.5464278230620794
6.039977973568282,-0.6652676344289469
6.073348017621146,-0.6853494739293624
6.106718061674009,-0.6124675935251787
6.140088105726872,-0.47686497032384545
6.173458149779736,-0.3198505063978454
6.2068281938325995,-0.17789457032968342
6.240198237885463,-0.07129833509363259
6.273568281938326,-0.0016979500809632371
6.306938325991189,0.041958552774356894
6.3403083700440535,0.0732805145905323
6.373678414096917,0.0998548046555083
6.40704845814978,0.12032175188759242
6.440418502202643,0.12776139362575517
6.4737885462555065,0.11666750343801362
6.507158590308371,0.08913512948567362
6.540528634361234,0.05659014541120876
6.573898678414097,0.03590938561759291
6.60726872246696,0.04179005086986948
6.640638766519824,0.07924379871139475
6.674008810572688,0.1401272100157777
6.707378854625551,0.20564903031739407
6.740748898678414,0.25380712920555115
6.774118942731278,0.2682491411904337
6.807488986784141,0.24439738398484978
6.840859030837005,0.19012784174459274
6.874229074889868,0.12101823845900216
6.9075991189427315,0.052746856384740096
6.940969162995595,-0.005601386156008352
6.974339207048458,-0.054226667684100026
7.007709251101322,-0.10027078528019324
7.041079295154185,-0.15185926806298924
7.074449339207049,-0.2116771405660655
7.107819383259912,-0.27344502666461795
7.141189427312775,-0.32325928023800893
7.174559471365639,-0.34537860944647797
7.207929515418503,-0.3298113595173677
7.241299559471366,-0.278052499633539
7.274669603524229,-0.20401311748570833
7.308039647577092,-0.12925693335884497
7.3414096916299565,-0.07420521748856983
7.37477973568282,-0.04893859048293223
7.408149779735683,-0.04777965340547947
7.441519823788546,-0.05061329945208828
7.47488986784141,-0.031157545505348737
7.508259911894274,0.030874086482811855
7.541629955947137,0.13908062654874198
7.575,0.2764908998717758
7.608370044052863,0.41108305758165653
7.641740088105728,0.5088510992548729
7.675110132158591,0.5485303185196817
7.708480176211454,0.5306785311335678
7.741850220264317,0.47609974426247753
7.775220264317181,0.4138199742533302
7.808590308370045,0.3645000820269376
7.841960352422908,0.32820659389433043
7.875330396475771,0.28380844398851757
7.9087004405286345,0.20129904603019116
7.942070484581498,0.061038733643261414
7.975440528634362,-0.1305754756067872
8.008810572687224,-0.3382814696808432
8.042180616740088,-0.5106015876265925
8.075550660792953,-0.6021468000576518
8.108920704845815,-0.5942879789640876
8.142290748898679,-0.5035936272404355
8.175660792951541,-0.37385761094523595
8.209030837004406,-0.25603914965511637
8.24240088105727,-0.18634444254308227
8.275770925110132,-0.17300393206238932
8.309140969162996,-0.19724050808320084
8.342511013215859,-0.22649816437833994
8.375881057268723,-0.2321980434415032
8.409251101321587,-0.20290280068483013
8.44262114537445,-0.14706592775922728
8.475991189427313,-0.08537467814430506
8.509361233480176,-0.03786584980204281
8.54273127753304,-0.01299644623264611
8.576101321585904,-0.0040413675464773605
8.609471365638766,0.006116871322551064
8.64284140969163,0.03512091471774185
8.676211453744493,0.09171974335392574
8.709581497797357,0.17144141778386382
8.742951541850221,0.25883274467821704
8.776321585903084,0.334277145701959
8.809691629955948,0.3815621553230434
8.84306167400881,0.3928596770109491
8.876431718061674,0.3698285802080101
8.909801762114538,0.3216167800304165
8.9431718061674,0.2614538350638638
8.976541850220265,0.2031566671548965
9.009911894273127,0.1579945697723949
9.043281938325991,0.13190618795222644
9.076651982378856,0.12337633451286106
9.110022026431718,0.12291868550785977
9.143392070484582,0.11525972404893199
9.176762114537445,0.08448825656810961
9.210132158590309,0.020877975714466698
9.243502202643173,-0.07331022185450758
9.276872246696035,-0.18202487668029957
9.3102422907489,-0.27933760743197167
9.343612334801762,-0.3383778763261944
9.376982378854626,-0.34208560523840525
9.41035242290749,-0.29121607780807446
9.443722466960352,-0.20565377709257435
9.477092511013216,-0.11769149882863257
9.510462555066079,-0.05952222950849238
9.543832599118943,-0.05013002695168248
9.577202643171807,-0.08749318650851619
9.61057268722467,-0.14990446527273854
9.643942731277534,-0.20605814435119474
9.677312775330396,-0.22930382003948044
9.71068281938326,-0.20929533424266222
9.744052863436124,-0.15540309919583464
9.777422907488987,-0.09027447661884187
9.81079295154185,-0.03686743421889015
9.844162995594713,-0.005648599565168029
9.877533039647577,0.011329140180768632
9.910903083700441,0.03618059714044314
9.944273127753304,0.0926984136881705
9.977643171806168,0.19189727503373127
10.01101321585903,0.32307808627202733
10.044383259911895,0.4552679877457024
10.077753303964759,0.5487386874997123
10.111123348017621,0.5712762582277647
10.144493392070485,0.5115493833209697
10.177863436123348,0.3834519531554052
10.211233480176212,0.21981169548176335
10.244603524229076,0.058957428373560584
10.277973568281938,-0.0692998371894379
10.311343612334802,-0.15211974617433155
10.344713656387665,-0.19374542041951362
10.378083700440529,-0.20882576660911523
10.411453744493393,-0.21342574970958916
10.444823788546255,-0.21841000064354626
10.47819383259912,-0.22767703011525636
10.511563876651982,-0.2406527513637212
10.544933920704846,-0.2562842447768432
10.57830396475771,-0.2754975431566547
10.611674008810573,-0.30054104446804264
10.645044052863437,-0.3318157953186056
10.678414096916299,-0.364458779545096
10.711784140969163,-0.38724390022107325
10.745154185022027,-0.3851825687281237
10.77852422907489,-0.34517191041804063
10.811894273127754,-0.2622135628684519
10.845264317180618,-0.1430891599914073
10.87863436123348,-0.0053420003846168665
10.912004405286345,0.12841478346799284
10.945374449339207,0.23851837064876785
10.978744493392071,0.3149923711769665
11.012114537444935,0.35990431508923215
11.045484581497798,0.3843585424617359
11.078854625550662,0.4017755335917389
11.112224669603524,0.4208943022559485
11.145594713656388,0.44192383750081105
11.178964757709252,0.457481436416613
11.212334801762115,0.4573756750591119
11.245704845814979,0.4343362267496879
11.279074889867841,0.38751903300452545
11.312444933920705,0.32212004016342016
11.34581497797357,0.24579447534728785
11.379185022026432,0.16440492979814977
11.412555066079296,0.07985675970948994
11.445925110132158,-0.008676160326439409
11.479295154185023,-0.10108313338561675
11.512665198237887,-0.19284445678265238
11.546035242290749,-0.2744858023049192
11.579405286343613,-0.335037268674925
11.612775330396476,-0.36802884846194767
11.64614537444934,-0.3765574714519063
11.679515418502204,-0.37381439110127634
11.712885462555066,-0.3775566387693902
11.74625550660793,-0.4004405472814328
11.779625550660793,-0.44104111464584395
11.812995594713657,-0.48091462017887887
11.846365638766521,-0.4905349991097969
11.879735682819383,-0.4423875405591584
11.913105726872248,-0.32530669342710417
11.94647577092511,-0.15275516208395865
11.979845814977974,0.03975205536409128
12.013215859030838,0.20756141188444419
12.0465859030837,0.31430964914437853
12.079955947136565,0.34569785023064054
12.113325991189427,0.313354866207489
12.146696035242291,0.24758113684653957
12.180066079295155,0.18312169700276112
12.213436123348018,0.1449895293304554
12.246806167400882,0.14052869732445514
12.280176211453744,0.1602159726076191
12.313546255506608,0.18535175465127224
12.346916299559473,0.19800826252007073
12.380286343612335,0.18847767909815544
12.413656387665199,0.15758143011976955
12.447026431718061,0.11411425156154661
12.480396475770926,0.0698312938547904
12.51376651982379,0.034853234479250254
12.547136563876652,0.015277220789085607
12.580506607929516,0.013038361410087313
12.613876651982379,0.02677564915509758
12.647246696035243,0.05231808721113853
12.680616740088107,0.08235321837825103
12.71398678414097,0.10611113301450291
12.747356828193833,0.11052302920521005
12.780726872246696,0.08373701627624487
12.81409691629956,0.020327501402911008
12.847466960352424,-0.0740674788680883
12.880837004405286,-0.18152959830927992
12.91420704845815,-0.27586744257957674
12.947577092511013,-0.3312402994503232
12.980947136563877,-0.3321415446427962
13.014317180616741,-0.2800993503718977
13.047687224669604,-0.19339619009195647
13.081057268722468,-0.09925809936195891
13.11442731277533,-0.021847726795144844
13.147797356828194,0.028122392546667947
13.181167400881058,0.056824869458408804
13.21453744493392,0.08189993659194955
13.247907488986785,0.1209287768367876
13.281277533039647,0.17987155967698557
13.314647577092511,0.24767431712083837
13.348017621145376,0.3000445458723391
13.381387665198238,0.31058512218177786
13.414757709251102,0.26367181115836974
13.448127753303964,0.16266594071881296
13.481497797356829,0.02956830123471174
13.514867841409693,-0.1034362660562821
13.548237885462555,-0.20625401651764363
13.58160792951542,-0.26123884717433743
13.614977973568282,-0.2673489767083265
13.648348017621146,-0.2371917907098688
13.68171806167401,-0.18945732955008826
13.715088105726872,-0.14097263848024372
13.748458149779736,-0.1019651157606742
13.781828193832599,-0.07574105556670846
13.815198237885463,-0.06140333536100185
13.848568281938327,-0.056947296516781674
13.88193832599119,-0.06065123803860839
13.915308370044054,-0.07047083324664932
13.948678414096916,-0.08280745324985525
13.98204845814978,-0.09242791965643064
14.015418502202644,-0.09428042483603429
14.048788546255507,-0.08627801093543602
14.08215859030837,-0.07101943062643633
14.115528634361233,-0.054711353390479514
14.148898678414097,-0.04315749637741161
14.182268722466961,-0.0366532174113784
14.215638766519824,-0.026765972183494132
14.249008810572688,0.002470185637112451
14.28237885462555,0.06837772802130351
14.315748898678414,0.18049547015373768
14.349118942731279,0.3324531745010968
14.382488986784141,0.4991027426164808
14.415859030837005,0.6413488050252939
14.449229074889868,0.717860451354054
14.482599118942732,0.6995428261599846
14.515969162995596,0.5809313702220112
14.549339207048458,0.383540397072421
14.582709251101322,0.14941505400192956
14.616079295154185,-0.07273110731990318
14.649449339207049,-0.24328663760349914
14.682819383259913,-0.34324066695033767
14.716189427312775,-0.37725720014854264
14.74955947136564,-0.3678800449650884
14.782929515418502,-0.34405449203277944
14.816299559471366,-0.3290980527360452
14.84966960352423,-0.33281855974300467
14.883039647577093,-0.35014847665254617
14.916409691629957,-0.3657387562572239
14.94977973568282,-0.3617936822529175
14.983149779735683,-0.32576807601381885
15.016519823788547,-0.2552781750184875
15.04988986784141,-0.15901994054880117
15.083259911894274,-0.05392284935293206
15.116629955947138,0.04020371615014006
15.15,0.10672041669808735
15.183370044052865,0.13699033933885124
15.216740088105727,0.13246821070725986
15.250110132158591,0.10341311645385863
15.283480176211455,0.06477766212744078
15.316850220264318,0.030857616522994798
15.350220264317182,0.010711967362583407
15.383590308370044,0.0060062229388783694
15.416960352422908,0.011956803070841023
15.450330396475772,0.020839588588166532
15.483700440528635,0.026500653437536468
15.517070484581499,0.027852744175031786
15.550440528634361,0.02969710318133349
15.583810572687225,0.04033930396191042
15.61718061674009,0.06696033904845757
15.650550660792952,0.11088069519222409
15.683920704845816,0.16509107371154083
15.717290748898678,0.21551213115405105
15.750660792951543,0.2457509969007977
15.784030837004407,0.24342463802654132
15.817400881057269,0.2052524005024306
15.850770925110133,0.13856797372169694
15.884140969162996,0.05852809767086925
15.91751101321586,-0.017663780612386795
15.950881057268724,-0.07680182525756533
15.984251101321586,-0.11328610698923802
16.01762114537445,-0.12900836448713981
16.050991189427315,-0.1302190710615347
16.084361233480177,-0.12348483439751748
16.11773127753304,-0.11291473438156274
16.151101321585905,-0.0996833163481566
16.184471365638768,-0.08335555729168663
16.21784140969163,-0.06360539432144324
16.251211453744492,-0.04108244258287818
16.284581497797358,-0.01711846303448343
16.31795154185022,0.007115914870866377
16.351321585903083,0.031159192139931593
16.38469162995595,0.055165765325771735
16.41806167400881,0.07950300668721051
16.451431718061674,0.10457271515795939
16.48480176211454,0.13094293768139773
16.518171806167402,0.15923931522880783
16.551541850220264,0.18912018886979953
16.584911894273127,0.21735291306467186
16.618281938325993,0.23609379126807203
16.651651982378855,0.23305832504888443
16.685022026431717,0.1946832945331478
16.718392070484583,0.11175504629033742
16.751762114537446,-0.014767197947530281
16.785132158590308,-0.17072865033469398
16.818502202643174,-0.33064771665871284
16.851872246696036,-0.46437649360958777
16.8852422907489,-0.5461127793279235
16.91861233480176,-0.5621188351544207
16.951982378854627,-0.5141118978282079
16.98535242290749,-0.4173650937289054
17.01872246696035,-0.29491816035678314
17.052092511013218,-0.17067277064240707
17.08546255506608,-0.06395529644824037
17.118832599118942,0.013224481833797331
17.152202643171808,0.05650356639204121
17.18557268722467,0.0681808113084319
