Time (s),Filtered Signal
0.0,-0.04048391110429023
0.033370165745856356,-0.1169657836655801
0.06674033149171271,-0.19084008331644234
0.10011049723756907,-0.2615088345683149
0.13348066298342542,-0.33035578861872306
0.16685082872928178,-0.3982551970760616
0.20022099447513814,-0.4619910638844819
0.2335911602209945,-0.5121586506744074
0.26696132596685085,-0.5346624622516479
0.30033149171270723,-0.516008248561181
0.33370165745856356,-0.45025459858850714
0.3670718232044199,-0.34409466400048205
0.4004419889502763,-0.21698466454217366
0.43381215469613266,-0.09545324694997152
0.467182320441989,-0.0036511797975968953
0.5005524861878453,0.04570266465769193
0.5339226519337017,0.05574708441058752
0.5672928176795581,0.043145003646807456
0.6006629834254145,0.030108130320864297
0.6340331491712707,0.034603624387908795
0.6674033149171271,0.063311251499423
0.7007734806629835,0.11033034765017072
0.7341436464088398,0.16165255529991668
0.7675138121546962,0.20263968632850718
0.8008839779005525,0.22460031071989203
0.8342541436464089,0.22750451103824762
0.8676243093922653,0.21821989096759745
0.9009944751381216,0.2060039108244056
0.934364640883978,0.19807851184109249
0.9677348066298344,0.197489851609908
1.0011049723756906,0.20367889698558628
1.0344751381215471,0.21444793748520286
1.0678453038674034,0.22739959773750684
1.1012154696132597,0.2397869813114644
1.1345856353591162,0.24739722813696347
1.1679558011049724,0.24432959262895676
1.201325966850829,0.22525310812429333
1.2346961325966852,0.18985816346048176
1.2680662983425415,0.14688821459376103
1.301436464088398,0.11410160935126311
1.3348066298342542,0.11196670851095443
1.3681767955801105,0.15249262530713772
1.401546961325967,0.22838664641758374
1.4349171270718233,0.3091878546862571
1.4682872928176796,0.3486725743549443
1.501657458563536,0.30235460497318467
1.5350276243093923,0.14806013600020027
1.5683977900552488,-0.10028007629356964
1.601767955801105,-0.39327982306684334
1.6351381215469614,-0.6622922416901935
1.6685082872928179,-0.8445966444274106
1.7018784530386741,-0.9063708531329703
1.7352486187845306,-0.8532021614202416
1.768618784530387,-0.7240003326848512
1.8019889502762432,-0.5721478303912427
1.8353591160220997,-0.44335497184287487
1.868729281767956,-0.36025218210432575
1.9020994475138122,-0.31940187717882057
1.9354696132596687,-0.29986581255059497
1.968839779005525,-0.2772763931090619
2.0022099447513813,-0.2359207675329484
2.0355801104972375,-0.17376303295047793
2.0689502762430942,-0.09972934668953012
2.1023204419889505,-0.02642627406661701
2.135690607734807,0.0370243370515254
2.169060773480663,0.08845070370291595
2.2024309392265193,0.1314767861347812
2.235801104972376,0.17144577829127366
2.2691712707182323,0.21138530920166412
2.3025414364640886,0.2504519036505602
2.335911602209945,0.2854816540518222
2.369281767955801,0.31429162485992657
2.402651933701658,0.33834069528215077
2.436022099447514,0.36281654955271986
2.4693922651933704,0.39386368217963275
2.5027624309392267,0.4345235032988299
2.536132596685083,0.481911111019313
2.5695027624309392,0.527598592987105
2.602872928176796,0.5613729137497602
2.636243093922652,0.5764907369883778
2.6696132596685085,0.5734585149420917
2.7029834254143648,0.5599378167215877
2.736353591160221,0.5464175722749298
2.7697237569060777,0.5397565835510733
2.803093922651934,0.5381995016215583
2.8364640883977903,0.5310321052321855
2.8698342541436466,0.5036829491547936
2.903204419889503,0.44591666516380296
2.936574585635359,0.35853886148337527
2.969944751381216,0.25420277226726296
3.003314917127072,0.1507678400170044
3.0366850828729284,0.05998020506975398
3.0700552486187846,-0.022276701873653444
3.103425414364641,-0.11751787569274642
3.1367955801104976,-0.25491562276154195
3.170165745856354,-0.4535392287450386
3.20353591160221,-0.7057606159322095
3.2369060773480665,-0.9728542966415913
3.2702762430939227,-1.1993407269603948
3.3036464088397794,-1.3427773833710301
3.3370165745856357,-1.4049866275984937
3.370386740331492,-1.4454335976105217
3.4037569060773483,-1.5624001462541057
3.4371270718232045,-1.8426212312652317
3.4704972375690613,-2.298907862087642
3.5038674033149175,-2.827799237424298
3.537237569060774,-3.216536318050826
3.57060773480663,-3.208645861750553
3.6039779005524863,-2.607938652616543
3.6373480662983426,-1.3767139064919365
3.6707182320441993,0.32005794036256047
3.7040883977900556,2.151670926957868
3.737458563535912,3.729377207925218
3.770828729281768,4.739881421272834
3.8041988950276244,5.046767848421239
3.837569060773481,4.717901163594091
3.8709392265193374,3.9726959480814847
3.9043093922651937,3.0796531783914345
3.93767955801105,2.253439446286771
3.9710497237569062,1.5945679244616746
4.0044198895027625,1.0894290530830903
4.037790055248619,0.6586398988349516
4.071160220994475,0.2221441975563135
4.104530386740332,-0.25223045579717407
4.1379005524861885,-0.7360619858700159
4.171270718232044,-1.1622592011857538
4.204640883977901,-1.4641396075956796
4.238011049723757,-1.60913411272919
4.271381215469614,-1.6112807616094604
4.30475138121547,-1.5198711731574908
4.338121546961326,-1.3937906382752898
4.371491712707183,-1.2764172194892092
4.404861878453039,-1.1829304553435718
4.438232044198895,-1.1034878619732333
4.471602209944752,-1.0171857363793917
4.504972375690608,-0.9074535364544124
4.538342541436465,-0.7709421515772092
4.5717127071823205,-0.6171858772702111
4.605082872928177,-0.4617807104370912
4.638453038674034,-0.31852069313098985
4.67182320441989,-0.19498264792712788
4.7051933701657465,-0.09279083649516985
4.738563535911602,-0.01063076188032404
4.771933701657459,0.05310158143108568
4.805303867403316,0.09999303885064505
4.8386740331491715,0.13332982787948205
4.872044198895028,0.15977666522316566
4.905414364640884,0.18890876668589585
4.938784530386741,0.23004204138676806
4.972154696132597,0.28783143946671375
5.005524861878453,0.359217005879373
5.03889502762431,0.4337443525856341
5.072265193370166,0.4974088681733593
5.105635359116023,0.5381516052615298
5.1390055248618784,0.5502218578818184
5.172375690607735,0.5353412892658143
5.205745856353592,0.5004525499788853
5.239116022099448,0.45365861317315065
5.272486187845304,0.4007172145717006
5.30585635359116,0.3438278356233079
5.339226519337017,0.2829341538439884
5.372596685082874,0.21829525197370156
5.4059668508287295,0.15246260445232426
5.439337016574586,0.09030914872877675
5.472707182320442,0.037037046973525986
5.506077348066299,-0.004611653871186466
5.5394475138121555,-0.036148456117252196
5.572817679558011,-0.06285067867114529
5.606187845303868,-0.09103887106161859
5.639558011049724,-0.12456309657044128
5.672928176795581,-0.1625401245481961
5.706298342541437,-0.1997442341117165
5.739668508287293,-0.2294996670720093
5.77303867403315,-0.24738910570903955
5.806408839779006,-0.2535478083114589
5.839779005524862,-0.2521288852289952
5.873149171270718,-0.24823291087931662
5.906519337016575,-0.24417033135230812
5.939889502762432,-0.23740167673071957
5.9732596685082875,-0.2215447069532778
6.006629834254144,-0.18997007602626823
6.04,-0.1398447476455411
6.073370165745857,-0.07410045136315078
6.1067403314917135,-4.544361659798303e-05
6.140110497237569,0.07449191396499258
6.173480662983426,0.1448716583441889
6.206850828729282,0.21049798553992852
6.240220994475139,0.2718835157800098
6.273591160220995,0.3256199310620648
6.306961325966851,0.3608039702710246
6.340331491712708,0.36020010535250396
6.373701657458564,0.3069153509690342
6.40707182320442,0.19392766886785312
6.440441988950277,0.031502293295474604
6.473812154696133,-0.15209131830469672
6.50718232044199,-0.3180537743926264
6.5405524861878455,-0.4300159758410345
6.573922651933702,-0.4668186842425901
6.607292817679559,-0.4293805409942458
6.640662983425415,-0.33877099437208597
6.674033149171271,-0.22678750216337895
6.707403314917127,-0.12365641498125887
6.740773480662984,-0.048332249921598784
6.774143646408841,-0.005034584243850651
6.8075138121546965,0.013707031141234205
6.840883977900553,0.020279865217011105
6.874254143646409,0.025466497909811533
6.907624309392266,0.035109223668825754
6.9409944751381225,0.05049429479363824
6.974364640883978,0.0708039000192023
7.007734806629835,0.09526090250848135
7.041104972375691,0.12351745936356934
7.074475138121548,0.15452412478775207
7.107845303867403,0.18529408847582457
7.14121546961326,0.21090267861465375
7.174585635359117,0.22597260372784073
7.207955801104973,0.22672963840164
7.241325966850829,0.21234535527309487
7.274696132596685,0.18488238916241412
7.308066298342542,0.1481523985933422
7.341436464088399,0.10640261076599937
7.3748066298342545,0.0635791301282375
7.408176795580111,0.023220316765194243
7.441546961325967,-0.011569197440279764
7.474917127071824,-0.038624863003891556
7.5082872928176805,-0.05768012378594971
7.541657458563536,-0.07104071170825868
7.575027624309393,-0.08304333326845015
7.608397790055249,-0.09797171944257321
7.641767955801106,-0.11720618359734011
7.675138121546962,-0.13723883876425846
7.708508287292818,-0.15009976886310283
7.741878453038675,-0.14657472369420552
7.775248618784531,-0.12095124564261245
7.808618784530387,-0.07491410783833746
7.841988950276244,-0.018385220521806037
7.8753591160221,0.03344784645018924
7.908729281767957,0.06575255112073387
7.9420994475138125,0.0698368925051462
7.975469613259669,0.04654894570628312
8.008839779005525,0.005864489457621479
8.042209944751383,-0.0370745501296444
8.075580110497238,-0.06773975506451548
8.108950276243094,-0.0774245126065401
8.14232044198895,-0.06585910845588652
8.175690607734808,-0.04040480638967939
8.209060773480664,-0.012475425122071775
8.24243093922652,0.007084685479236383
8.275801104972377,0.011740038046541603
8.309171270718233,0.0008945439922132201
8.342541436464089,-0.02069826367479286
8.375911602209946,-0.04499545809599525
8.409281767955802,-0.06323215187886289
8.442651933701658,-0.0683345906270489
8.476022099447514,-0.05685495621726565
8.509392265193371,-0.03012729069743373
8.542762430939227,0.005830497652671288
8.576132596685083,0.042064644061686904
8.60950276243094,0.06985349763296858
8.642872928176796,0.08414196151102392
8.676243093922652,0.08555594284109948
8.709613259668508,0.07974807432360176
8.742983425414366,0.07417380373619174
8.776353591160222,0.07389565934304397
8.809723756906077,0.07869881878831068
8.843093922651935,0.08317346603884254
8.87646408839779,0.0797930254197348
8.909834254143647,0.06332792583435828
8.943204419889504,0.034166305865907784
8.97657458563536,-0.001290696096172756
9.009944751381216,-0.03338844429979746
9.043314917127072,-0.053682109118780755
9.07668508287293,-0.05881700327543687
9.110055248618785,-0.05192230957976664
9.143425414364641,-0.04089909984967815
9.176795580110499,-0.03445152104918396
9.210165745856354,-0.03768961994689911
9.24353591160221,-0.04928309819592058
9.276906077348068,-0.06149073182440697
9.310276243093924,-0.06321639141125023
9.34364640883978,-0.044985815358775556
9.377016574585635,-0.0038679752440903483
9.410386740331493,0.05376605747682332
9.443756906077349,0.11305216977826171
9.477127071823205,0.1551004468182376
9.510497237569062,0.16374160676340754
9.543867403314918,0.13209806074578684
9.577237569060774,0.06630574725064588
9.610607734806631,-0.015443573221530362
9.643977900552487,-0.08865172341962846
9.677348066298343,-0.13118002936999837
9.710718232044199,-0.1315451631345479
9.744088397790057,-0.09344545365096622
9.777458563535912,-0.03450655799364784
9.810828729281768,0.020393731151688098
9.844198895027626,0.04856981251530439
9.877569060773482,0.0379527914671815
9.910939226519337,-0.00876699141049574
9.944309392265193,-0.07566475402142267
9.97767955801105,-0.1398472999357385
10.011049723756907,-0.17979229561895713
10.044419889502763,-0.18255218751155947
10.07779005524862,-0.14734401995749735
10.111160220994476,-0.08462887175079031
10.144530386740332,-0.01153550293230472
10.17790055248619,0.05428353894290888
10.211270718232045,0.09999494344981201
10.244640883977901,0.12044435668655305
10.278011049723757,0.11808464397245486
10.311381215469615,0.1006748592913484
10.34475138121547,0.0780230998681764
10.378121546961326,0.05894040561932813
10.411491712707184,0.0490750117438002
10.44486187845304,0.04981715449200188
10.478232044198895,0.058250860832494894
10.511602209944753,0.06813861070363342
10.544972375690609,0.0719172165299101
10.578342541436465,0.06344198202259504
10.61171270718232,0.04075296024136639
10.645082872928178,0.00773990107436652
10.678453038674034,-0.026353709142642807
10.71182320441989,-0.04992144478381954
10.745193370165747,-0.053643243646587374
10.778563535911603,-0.03492987481887646
10.811933701657459,-4.731719527765459e-05
10.845303867403315,0.0373935559756583
10.878674033149172,0.0613276439734925
10.912044198895028,0.059647143859175605
10.945414364640884,0.029439619500339465
10.978784530386742,-0.021257216980001097
11.012154696132598,-0.07604643764833957
11.045524861878453,-0.11613577394923705
11.078895027624311,-0.1273090380506436
11.112265193370167,-0.1051671302892001
11.145635359116023,-0.05664600655428675
11.179005524861878,0.002676514062759037
11.212375690607736,0.05433131821180405
11.245745856353592,0.08347090443560005
11.279116022099448,0.08364070697538781
11.312486187845305,0.05809938430218043
11.345856353591161,0.017445118201200316
11.379226519337017,-0.025178881752339722
11.412596685082875,-0.05911960358414531
11.44596685082873,-0.07940135183912257
11.479337016574586,-0.08698149658008618
11.512707182320442,-0.0863950979355616
11.5460773480663,-0.08224134443761967
11.579447513812156,-0.07634705193546296
11.612817679558011,-0.06697318426388177
11.646187845303869,-0.05036440534353215
11.679558011049725,-0.02375431641321826
11.71292817679558,0.01183618827028652
11.746298342541436,0.05063495890933564
11.779668508287294,0.08372314410695653
11.81303867403315,0.10259795250084902
11.846408839779006,0.1029937347381235
11.879779005524863,0.08703953677510952
11.91314917127072,0.06261771116409277
11.946519337016575,0.040158519020779916
11.979889502762433,0.028328909558861113
12.013259668508288,0.030539842660163068
12.046629834254144,0.0437357080010093
12.08,0.059849234958707746
12.113370165745858,0.06916875306210282
12.146740331491714,0.06417383878087303
12.18011049723757,0.04236646666737827
12.213480662983427,0.007151947185049264
12.246850828729283,-0.03339360324295058
12.280220994475139,-0.069309500723321
12.313591160220996,-0.09207346657783633
12.346961325966852,-0.0973316715546023
12.380331491712708,-0.08613071514791491
12.413701657458564,-0.06424376650606321
12.447071823204421,-0.03982695555467903
12.480441988950277,-0.020245601320514218
12.513812154696133,-0.009264320287921884
12.54718232044199,-0.005735356903568107
12.580552486187846,-0.004400675498076858
12.613922651933702,0.0014125561704844186
12.64729281767956,0.016254319486164393
12.680662983425416,0.039679058448449656
12.714033149171271,0.0654005634898778
12.747403314917127,0.08311664089532483
12.780773480662985,0.08258559098126314
12.81414364640884,0.05848995202038665
12.847513812154697,0.013997265378744725
12.880883977900554,-0.0388974016809267
12.91425414364641,-0.08302729013987867
12.947624309392266,-0.10269205417914036
12.980994475138122,-0.09059761493842632
13.01436464088398,-0.05182796739437749
13.047734806629835,-0.0025870135308635822
13.081104972375691,0.036248709786350086
13.114475138121549,0.0481820798512769
13.147845303867404,0.028671379397784087
13.18121546961326,-0.012446935528829152
13.214585635359118,-0.05511580181808213
13.247955801104974,-0.078128251087643
13.28132596685083,-0.06900836752464849
13.314696132596685,-0.030069547951853452
13.348066298342543,0.02228754846492243
13.381436464088399,0.06484964776575178
13.414806629834255,0.07819187974733606
13.448176795580112,0.055800537755878156
13.481546961325968,0.007543140684372813
13.514917127071824,-0.044192154787405076
13.548287292817681,-0.07412358840337961
13.581657458563537,-0.06531895034377135
13.615027624309393,-0.017088452424314813
13.648397790055249,0.05408711782348365
13.681767955801106,0.12118881922669915
13.715138121546962,0.15803344221135462
13.748508287292818,0.15032179451658972
13.781878453038676,0.10135842834090532
13.815248618784532,0.029906940004605115
13.848618784530387,-0.03861680547369727
13.881988950276245,-0.08325853497595041
13.9153591160221,-0.09563905357933433
13.948729281767957,-0.0814817581943112
13.982099447513813,-0.05541975402530593
14.01546961325967,-0.03229109095965546
14.048839779005526,-0.0196504990081069
14.082209944751382,-0.015233659980205523
14.11558011049724,-0.010247839419847554
14.148950276243095,0.003792181277037212
14.182320441988951,0.028745512521634493
14.215690607734807,0.05762697495374412
14.249060773480664,0.07767907055059108
14.28243093922652,0.0769872594859627
14.315801104972376,0.051019382445422895
14.349171270718234,0.005607650591471281
14.38254143646409,-0.04515135569343332
14.415911602209945,-0.08496033982627152
14.449281767955803,-0.10229743150549167
14.482651933701659,-0.09494917771850353
14.516022099447515,-0.07010186329363348
14.54939226519337,-0.04023572816753806
14.582762430939228,-0.01705447645016733
14.616132596685084,-0.006465728768503941
14.64950276243094,-0.006881746447384825
14.682872928176797,-0.011278501725861013
14.716243093922653,-0.011532481168662623
14.749613259668509,-0.0025757893760793025
14.782983425414367,0.015656120716546696
14.816353591160222,0.039028819290153574
14.849723756906078,0.061743169020206365
14.883093922651934,0.07885357250632102
14.916464088397792,0.08746147645874312
14.949834254143648,0.08643552115983932
14.983204419889503,0.07554674000223677
15.016574585635361,0.05513806094524434
15.049944751381217,0.02677578522060572
15.083314917127073,-0.005715758205888846
15.116685082872928,-0.036058590580144725
15.150055248618786,-0.057053090613469436
15.183425414364642,-0.0635602360595456
15.216795580110498,-0.05541930817208968
15.250165745856355,-0.03839437274085916
15.283535911602211,-0.02211978467861717
15.316906077348067,-0.015734168097406933
15.350276243093925,-0.02339926488817907
15.38364640883978,-0.04218641204017617
15.417016574585636,-0.06359477907313031
15.450386740331492,-0.07791033248978137
15.48375690607735,-0.07896126494457562
15.517127071823205,-0.06661210069826613
15.550497237569061,-0.04572616971205928
15.583867403314919,-0.0224659925730538
15.617237569060775,-0.00035752629300777916
15.65060773480663,0.02144591897819543
15.683977900552488,0.04675952458476949
15.717348066298344,0.07887167833125017
15.7507182320442,0.11720670154504294
15.784088397790056,0.15612151217914608
15.817458563535913,0.18640403192566293
15.85082872928177,0.1985287011137839
15.884198895027625,0.1860340082047755
15.917569060773483,0.1477184467523748
15.950939226519338,0.08818755657115333
15.984309392265194,0.01693685028798818
16.01767955801105,-0.05366809419631487
16.051049723756908,-0.11121618506336794
16.084419889502765,-0.14647179926082113
16.11779005524862,-0.15618295966914844
16.151160220994477,-0.14431454655564366
16.18453038674033,-0.12075140156365843
16.21790055248619,-0.09748473668265284
16.251270718232046,-0.08363999811534344
16.2846408839779,-0.08161830182418534
16.318011049723758,-0.08639324103212559
16.351381215469615,-0.08853707713213531
16.38475138121547,-0.07954636990510272
16.418121546961327,-0.05664973342336898
16.451491712707185,-0.024419077785320806
16.48486187845304,0.00777970747027007
16.518232044198896,0.03109088158103363
16.551602209944754,0.042177043902074794
16.584972375690608,0.04496756258321122
16.618342541436466,0.04801084979192286
16.651712707182323,0.05884621925139536
16.685082872928177,0.0786302649387602
16.718453038674035,0.10027567630034143
16.751823204419892,0.11152166015202604
16.785193370165747,0.1016221313893963
16.818563535911604,0.06817918661326798
16.851933701657458,0.02025694359861078
16.885303867403316,-0.02440781188220361
16.918674033149173,-0.04727463764243447
16.952044198895027,-0.03828478014023843
16.985414364640885,-0.0017775386004824033
17.018784530386743,0.04436780081357832
17.052154696132597,0.07642451661505434
17.085524861878454,0.07581256193557172
17.118895027624312,0.03801186222604232
