Frequency (Hz),Amplitude
0.0,1.5983881202140626
0.019801980198019802,1.5993483213698698
0.039603960396039604,1.6022217464231638
0.0594059405940594,1.6069870027673625
0.07920792079207921,1.6136089045376052
0.09900990099009901,1.6220391515457009
0.1188118811881188,1.6322172343796622
0.13861386138613863,1.6440715249929563
0.15841584158415842,1.6575205065339704
0.1782178217821782,1.6724740940200664
0.19801980198019803,1.6888349985325668
0.21782178217821782,1.7065000913912485
0.2376237623762376,1.7253617305607356
0.25742574257425743,1.745309018578216
0.27722772277227725,1.7662289688327661
0.297029702970297,1.7880075644388271
0.31683168316831684,1.8105307007505442
0.33663366336633666,1.8336850084402705
0.3564356435643564,1.857358558850917
0.37623762376237624,1.8814414569914317
0.39603960396039606,1.9058263301357614
0.4158415841584158,1.930408721629704
0.43564356435643564,1.9550874003611969
0.45544554455445546,1.9797645965707726
0.4752475247524752,2.004346174428405
0.495049504950495,2.0287417512210664
0.5148514851485149,2.0528647722011133
0.5346534653465347,2.0766325492338535
0.5544554455445545,2.0999662704275623
0.5742574257425742,2.1227909869831283
0.594059405940594,2.145035582599922
0.613861386138614,2.166632729942999
0.6336633663366337,2.1875188379263713
0.6534653465346534,2.2076339929028923
0.6732673267326733,2.2269218962738195
0.6930693069306931,2.245329800534223
0.7128712871287128,2.2628084453511335
0.7326732673267327,2.279311994918926
0.7524752475247525,2.2947979775455325
0.7722772277227723,2.3092272281854616
0.7920792079207921,2.3225638344432777
0.8118811881188118,2.3347750864173356
0.8316831683168316,2.3458314306349655
0.8514851485148516,2.3557064282358193
0.8712871287128713,2.3643767174918016
0.891089108910891,2.3718219807011147
0.9108910891089109,2.3780249154581297
0.9306930693069307,2.3829712102787237
0.9504950495049505,2.3866495245481922
0.9702970297029703,2.389051472753527
0.99009900990099,2.390171612964027
1.00990099009901,2.3900074395298625
1.0297029702970297,2.3885593799779494
1.0495049504950495,2.385830796095067
1.0693069306930694,2.381827989201351
1.0891089108910892,2.3765602096285074
1.108910891089109,2.370039670428539
1.1287128712871286,2.362281565346321
1.1485148514851484,2.353304091094579
1.1683168316831685,2.343128473969358
1.188118811881188,2.331779000835878
1.2079207920792079,2.3192830545002323
1.227722772277228,2.3056711534536434
1.2475247524752475,2.2909769959377746
1.2673267326732673,2.275237508220366
1.2871287128712872,2.258492896894566
1.3069306930693068,2.240786704912846
1.3267326732673268,2.222165870934759
1.3465346534653466,2.2026807914015505
1.3663366336633662,2.1823853845423
1.3861386138613863,2.161337155260318
1.405940594059406,2.1395972595360613
1.4257425742574257,2.117230566606996
1.4455445544554455,2.0943057167377903
1.4653465346534653,2.0708951718688
1.4851485148514851,2.0470752558214893
1.504950495049505,2.0229261800428233
1.5247524752475248,1.9985320500898909
1.5445544554455446,1.9739808471957299
1.5643564356435644,1.9493643783355963
1.5841584158415842,1.9247781872567997
1.6039603960396038,1.9003214179856902
1.6237623762376237,1.8760966214440402
1.6435643564356437,1.852209495073129
1.6633663366336633,1.8287685448823587
1.683168316831683,1.8058846592365954
1.7029702970297032,1.7836705841204308
1.7227722772277227,1.7622402907292398
1.7425742574257426,1.7417082281997978
1.7623762376237624,1.722188457251278
1.782178217821782,1.703793664565285
1.801980198019802,1.6866340629188845
1.8217821782178218,1.6708161883204495
1.8415841584158414,1.6564416124687567
1.8613861386138615,1.6436055963858451
1.881188118811881,1.6323957185262472
1.900990099009901,1.6228905173634087
1.920792079207921,1.6151581936377009
1.9405940594059405,1.6092554203625262
1.9603960396039604,1.6052263086797232
1.98019801980198,1.6031015743186277
2.0,1.6028979426579106
2.01980198019802,1.6046178205213244
2.0396039603960396,1.608249250552787
2.0594059405940595,1.6137661503289487
2.0792079207920793,1.621128824489728
2.099009900990099,1.630284725336408
2.118811881188119,1.6411694266513017
2.1386138613861387,1.6537077677404017
2.1584158415841586,1.667815120309836
2.1782178217821784,1.6833987297949375
2.1980198019801978,1.70035908483546
2.217821782178218,1.7185912731509567
2.237623762376238,1.7379862883777557
2.257425742574257,1.7584322597167048
2.2772277227722775,1.779815583798735
2.297029702970297,1.8020219454227964
2.3168316831683167,1.8249372203310166
2.336633663366337,1.8484482586989355
2.3564356435643563,1.8724435524157264
2.376237623762376,1.8968137925120736
2.3960396039603964,1.9214523253452824
2.4158415841584158,1.9462555175059222
2.4356435643564356,1.9711230400292818
2.455445544554456,1.9959580825397385
2.4752475247524752,2.0206675075787928
2.495049504950495,2.045161954703422
2.514851485148515,2.069355903098607
2.5346534653465347,2.0931677005161653
2.5544554455445545,2.116519565396032
2.5742574257425743,2.1393375680936675
2.594059405940594,2.161551596258493
2.6138613861386135,2.1830953086052443
2.633663366336634,2.203906080598261
2.6534653465346536,2.2239249449355074
2.673267326732673,2.2430965291697516
2.6930693069306932,2.26136899233429
2.712871287128713,2.2786939620459363
2.7326732673267324,2.2950264732264083
2.7524752475247527,2.310324909311986
2.7722772277227725,2.32455094659963
2.792079207920792,2.337669502198679
2.811881188118812,2.349648685916991
2.8316831683168315,2.3604597562989147
2.8514851485148514,2.3700770809489717
2.8712871287128716,2.378478101211649
2.891089108910891,2.385643301232972
2.910891089108911,2.391556181398584
2.9306930693069306,2.396203236123972
2.9504950495049505,2.399573935963005
2.9702970297029703,2.4016607139980843
2.99009900990099,2.4024589564787537
3.00990099009901,2.4019669976826665
3.0297029702970297,2.400186118982919
3.0495049504950495,2.397120552117561
3.0693069306930694,2.3927774866690763
3.089108910891089,2.38716708177368
3.108910891089109,2.380302482089656
3.128712871287129,2.372199838061533
3.148514851485148,2.3628783305194068
3.1683168316831685,2.3523601996498593
3.1881188118811883,2.3406707783647773
3.2079207920792077,2.3278385300743487
3.227722772277228,2.313895090838962
3.2475247524752473,2.298875315828322
3.267326732673267,2.2828173299516927
3.2871287128712874,2.2657625824370244
3.3069306930693068,2.2477559050238156
3.3267326732673266,2.228845573290732
3.346534653465347,2.209083370456741
3.366336633663366,2.1885246527693742
3.386138613861386,2.1672284153163184
3.4059405940594063,2.145257356760831
3.4257425742574257,2.1226779410992047
3.4455445544554455,2.0995604540613844
3.4653465346534653,2.0759790512186007
3.485148514851485,2.052011794218551
3.504950495049505,2.027740670838473
3.5247524752475248,2.003251593732326
3.5445544554455446,1.978634371860342
3.564356435643564,1.9539826476478723
3.5841584158415842,1.9293937919571285
3.603960396039604,1.9049687480195243
3.6237623762376234,1.8808118146339663
3.6435643564356437,1.8570303582779653
3.6633663366336635,1.8337344434150191
3.683168316831683,1.8110363703498442
3.702970297029703,1.7890501106353311
3.722772277227723,1.7678906314358502
3.7425742574257423,1.747673102560627
3.762376237623762,1.728511983230392
3.7821782178217824,1.710519990112654
3.801980198019802,1.6938069537493958
3.8217821782178216,1.678478577082651
3.841584158415842,1.6646351170874731
3.8613861386138613,1.6523700181140693
3.881188118811881,1.641768532830122
3.9009900990099013,1.632906372926767
3.9207920792079207,1.625848436234364
3.9405940594059405,1.6206476588575234
3.96039603960396,1.6173440398028003
3.98019801980198,1.6159638810281205
4.0,1.6165192779367983
4.01980198019802,1.6190078845145401
4.03960396039604,1.6234129643849993
4.0594059405940595,1.6297037251376432
4.079207920792079,1.6378359196032115
4.099009900990099,1.6477526855199844
4.118811881188119,1.659385585255763
4.138613861386139,1.672655800605437
4.158415841584159,1.6874754344609393
4.178217821782178,1.7037488712493227
4.198019801980198,1.7213741510307907
4.217821782178218,1.7402443173906443
4.237623762376238,1.7602487059885283
4.257425742574258,1.7812741480892098
4.2772277227722775,1.8032060709181432
4.297029702970297,1.8259294837322195
4.316831683168317,1.8493298447022193
4.336633663366336,1.8732938088567617
4.356435643564357,1.8977098613649441
4.376237623762377,1.9224688433677437
4.3960396039603955,1.9474643795099813
4.415841584158416,1.972593217421703
4.435643564356436,1.9977554898119565
4.455445544554455,2.022854909729812
4.475247524752476,2.0477989090641735
4.4950495049504955,2.0724987296205226
4.514851485148514,2.0968694752336337
4.534653465346535,2.120830132429226
4.554455445544555,2.144303566195083
4.574257425742574,2.1672164965043894
4.594059405940594,2.189499460377469
4.613861386138614,2.211086763490915
4.633663366336633,2.231916424648872
4.653465346534653,2.2519301158251865
4.673267326732674,2.271073099961289
4.693069306930693,2.2892941682594183
4.712871287128713,2.306545578336203
4.732673267326733,2.322782994290283
4.752475247524752,2.3379654294824803
4.772277227722772,2.3520551926188213
4.792079207920793,2.3650178375613438
4.811881188118812,2.3768221171596724
4.8316831683168315,2.3874399412950607
4.851485148514852,2.3968463392509176
4.871287128712871,2.4050194264668843
4.891089108910891,2.4119403756933537
4.910891089108912,2.4175933925360824
4.930693069306931,2.4219656953648676
4.9504950495049505,2.42504749955272
4.97029702970297,2.42683200601166
4.99009900990099,2.4273153939954835
5.00990099009901,2.4264968181483875
5.02970297029703,2.424378409788741
5.0495049504950495,2.420965282429337
5.069306930693069,2.4162655415474634
5.089108910891089,2.410290298629098
5.108910891089109,2.4030536895205215
5.128712871287129,2.3945728971262845
5.148514851485149,2.3848681784929737
5.1683168316831685,2.373962896312977
5.188118811881188,2.361883554868438
5.207920792079208,2.34865984041136
5.227722772277227,2.3343246659388863
5.247524752475248,2.3189142202695114
5.267326732673268,2.3024680212533593
5.2871287128712865,2.2850289728535436
5.306930693069307,2.2666434257107295
5.326732673267327,2.2473612406445946
5.346534653465346,2.2272358543472666
5.366336633663367,2.206324346277945
5.3861386138613865,2.1846875054683177
5.405940594059405,2.1623898955861542
5.425742574257426,2.1394999161724138
5.445544554455446,2.1160898574580225
5.465346534653465,2.0922359455738033
5.485148514851486,2.0680183742873446
5.504950495049505,2.043521318633532
5.524752475247524,2.018832924957544
5.544554455445545,1.994045270971845
5.564356435643565,1.9692542884693458
5.584158415841584,1.9445596403674965
5.603960396039604,1.9200645428415761
5.623762376237624,1.8958755225122548
5.643564356435643,1.872102098081608
5.663366336633663,1.8488563755850802
5.683168316831684,1.8262525466862718
5.702970297029703,1.8044062803472816
5.7227722772277225,1.7834339999238058
5.742574257425743,1.763452040415358
5.762376237623762,1.7445756843646725
5.782178217821782,1.7269180798017036
5.801980198019803,1.710589049622342
5.821782178217822,1.6956938087066362
5.841584158415841,1.6823316125882253
5.861386138613861,1.670594369091321
5.881188118811881,1.6605652514136637
5.900990099009901,1.6523173569056553
5.920792079207921,1.6459124595059682
5.9405940594059405,1.641399904748472
5.96039603960396,1.6388156939538012
5.98019801980198,1.638181798468201
6.0,1.6395057357916718
6.01980198019802,1.6427804277305738
6.03960396039604,1.6479843472455662
6.0594059405940595,1.6550819466161373
6.079207920792079,1.664024346157717
6.099009900990099,1.6747502511664434
6.118811881188119,1.6871870559378883
6.138613861386139,1.70125208816438
6.158415841584159,1.7168539449157412
6.178217821782178,1.7338938725318984
6.198019801980198,1.7522671465890731
6.217821782178218,1.7718644139428126
6.237623762376237,1.7925729659303424
6.257425742574258,1.8142779193932792
6.2772277227722775,1.8368632896283705
6.297029702970296,1.8602129462081933
6.316831683168317,1.8842114485197312
6.336633663366337,1.9087447626811334
6.356435643564356,1.933700865181526
6.376237623762377,1.9589702412014147
6.396039603960396,1.9844462872352944
6.415841584158415,2.0100256285048506
6.435643564356436,2.035608361885806
6.455445544554456,2.0610982348307028
6.475247524752475,2.0864027701946277
6.495049504950495,2.111433346080401
6.514851485148515,2.136105238909866
6.534653465346534,2.160337636971716
6.554455445544554,2.184053630748258
6.574257425742575,2.2071801854195474
6.594059405940594,2.229648100107409
6.6138613861386135,2.2513919576670487
6.633663366336634,2.2723500681647955
6.653465346534653,2.2924644085975667
6.673267326732673,2.3116805609091053
6.693069306930694,2.3299476499327367
6.712871287128713,2.3472182825349552
6.732673267326732,2.3634484889389387
6.752475247524753,2.378597666965996
6.772277227722772,2.39262852973744
6.792079207920792,2.405507057223814
6.811881188118813,2.4172024519056787
6.8316831683168315,2.4276870987159387
6.851485148514851,2.4369365293620606
6.871287128712871,2.444929391075021
6.891089108910891,2.451647419795001
6.910891089108911,2.457075417780716
6.930693069306931,2.4612012356155915
6.9504950495049505,2.4640157585793823
6.97029702970297,2.465512897354057
6.99009900990099,2.4656895830394165
7.00990099009901,2.464545766462261
7.02970297029703,2.4620844217744264
7.0495049504950495,2.458311554346883
7.069306930693069,2.4532362129787395
7.089108910891089,2.446870506450592
7.108910891089109,2.4392296244591227
7.128712871287128,2.4303318629741595
7.148514851485149,2.4201986540575757
7.1683168316831685,2.408854600175027
7.188118811881187,2.396327513013909
7.207920792079208,2.3826484567918333
7.227722772277228,2.367851795996713
7.247524752475247,2.3519752474390683
7.267326732673268,2.335059936415225
7.287128712871287,2.31715045667281
7.306930693069306,2.2982949337317797
7.326732673267327,2.2785450909396685
7.346534653465347,2.257956317422075
7.366336633663366,2.23658773682176
7.3861386138613865,2.2145022753940777
7.405940594059406,2.191766727635204
7.425742574257425,2.168451817154706
7.445544554455446,2.1446322499584776
7.465346534653466,2.120386756676619
7.485148514851485,2.0957981195505235
7.504950495049505,2.070953179186129
7.524752475247524,2.045942815194563
7.544554455445544,2.02086189389359
7.564356435643565,1.9958091752631009
7.584158415841584,1.970887170379015
7.603960396039604,1.9462019396549315
7.623762376237624,1.9218628214836289
7.643564356435643,1.8979820803987033
7.663366336633663,1.874674463799825
7.683168316831684,1.8520566567560663
7.702970297029703,1.8302466255837906
7.7227722772277225,1.8093628429535555
7.742574257425743,1.7895233903612051
7.762376237623762,1.7708449380016078
7.782178217821782,1.7534416074344943
7.801980198019803,1.7374237288447407
7.821782178217822,1.7228965119477118
7.841584158415841,1.7099586572846504
7.861386138613862,1.6987009422420822
7.881188118811881,1.6892048229211158
7.900990099009901,1.6815410982051333
7.92079207920792,1.675768685261923
7.9405940594059405,1.6719335556210633
7.96039603960396,1.6700678774782391
7.980198019801979,1.6701894029192967
8.0,1.672301128648093
8.01980198019802,1.6763912462562156
8.03960396039604,1.6824333841251713
8.05940594059406,1.6903871289291486
8.07920792079208,1.700198801660324
8.099009900990099,1.7118024522295785
8.118811881188119,1.7251210288119285
8.138613861386139,1.740067673636723
8.158415841584159,1.7565470958947922
8.178217821782178,1.7744569745205943
8.198019801980198,1.7936893482150933
8.217821782178218,1.8141319564613554
8.237623762376238,1.83566950267399
8.257425742574258,1.8581848182986136
8.277227722772277,1.8815599140473998
8.297029702970297,1.9056769110905623
8.316831683168317,1.9304188506519404
8.336633663366337,1.9556703849596104
8.356435643564357,1.981318355875698
8.376237623762377,2.0072522698558886
8.396039603960396,2.0333646793036313
8.415841584158416,2.0595514810454354
8.435643564356436,2.0857121427281897
8.455445544554456,2.111749867579667
8.475247524752476,2.137571707315849
8.495049504950495,2.163088632135801
8.514851485148515,2.1882155658062
8.534653465346535,2.2128713928708454
8.554455445544555,2.2369789440739645
8.574257425742575,2.260464965193334
8.594059405940595,2.283260073658784
8.613861386138613,2.3052987065958335
8.633663366336634,2.3265190632849393
8.653465346534654,2.346863044463637
8.673267326732672,2.366276190416701
8.693069306930694,2.3847076193918806
8.712871287128714,2.4021099675384385
8.732673267326732,2.4184393312844534
8.752475247524753,2.4336552128397244
8.772277227722773,2.4477204693258585
8.792079207920791,2.4606012658885055
8.811881188118813,2.472267033031289
8.831683168316832,2.482690428323246
8.85148514851485,2.4918473025652497
8.871287128712872,2.499716670453294
8.891089108910892,2.506280685744146
8.91089108910891,2.511524620907921
8.930693069306932,2.5154368512416014
8.950495049504951,2.5180088434141
8.97029702970297,2.5192351484161644
8.990099009900991,2.5191133988952688
9.00990099009901,2.517644310865771
9.029702970297029,2.514831689795725
9.04950495049505,2.510682441084398
9.06930693069307,2.5052065849556793
9.089108910891088,2.4984172758024665
9.10891089108911,2.4903308260238406
9.12871287128713,2.480966734398824
9.148514851485148,2.4703477190371945
9.16831683168317,2.4584997549355077
9.188118811881187,2.4454521161456055
9.207920792079207,2.4312374225278037
9.227722772277229,2.4158916910121158
9.247524752475247,2.3994543912212616
9.267326732673267,2.381968505218107
9.287128712871288,2.363480591020075
9.306930693069306,2.3440408493700864
9.326732673267326,2.323703193061516
9.346534653465348,2.3025253178753444
9.366336633663366,2.2805687738954536
9.386138613861386,2.2578990356133146
9.405940594059407,2.2345855688087237
9.425742574257425,2.2107018916912327
9.445544554455445,2.186325627199671
9.465346534653467,2.161538542681228
9.485148514851485,2.136426572403945
9.504950495049505,2.1110798175026115
9.524752475247526,2.085592517027314
9.544554455445544,2.0600629827786068
9.564356435643564,2.0345934896071527
9.584158415841586,2.009290111879503
9.603960396039604,1.9842624959371078
9.623762376237623,1.9596235576943208
9.643564356435645,1.9354890941532945
9.663366336633663,1.9119772976974612
9.683168316831683,1.8892081627232358
9.702970297029704,1.8673027756504668
9.722772277227723,1.846382481780694
9.742574257425742,1.826567925987001
9.762376237623764,1.8079779689002935
9.782178217821782,1.7907284860979567
9.801980198019802,1.7749310646697207
9.821782178217823,1.7606916191491047
9.841584158415841,1.7481089567044452
9.861386138613861,1.7372733290665345
9.881188118811881,1.7282650151893015
9.900990099009901,1.7211529832972787
9.92079207920792,1.7159936830121292
9.94059405940594,1.7128300170739876
9.96039603960396,1.7116905374615297
9.98019801980198,1.7125889025177452
10.0,1.7155236204637683
10.01980198019802,1.7204780912771829
10.03960396039604,1.7274209444602096
10.05940594059406,1.7363066560077198
10.07920792079208,1.7470764151518465
10.099009900990099,1.7596592012509984
10.118811881188119,1.7739730242150193
10.138613861386139,1.7899262784200523
10.158415841584159,1.807419160071983
10.178217821782178,1.8263451009942862
10.198019801980198,1.8465921771773066
10.217821782178218,1.868044457352526
10.237623762376238,1.8905832645637315
10.257425742574258,1.9140883315015598
10.277227722772277,1.9384388376949087
10.297029702970297,1.9635143231251357
10.316831683168317,1.9891954782220358
10.336633663366337,2.015364814433239
10.356435643564357,2.041907222657553
10.376237623762377,2.0687104289022753
10.396039603960396,2.0956653577127304
10.415841584158416,2.12266641439557
10.435643564356436,2.1496116969813657
10.455445544554454,2.1764031483988986
10.475247524752476,2.202946658594375
10.495049504950495,2.2291521254311166
10.514851485148514,2.254933482233301
10.534653465346535,2.280208698853918
10.554455445544555,2.3048997621957654
10.574257425742573,2.328932641225093
10.594059405940595,2.352237240706441
10.613861386138614,2.374747347163844
10.633663366336632,2.3964005699382636
10.653465346534654,2.417138279662837
10.673267326732674,2.436905546009235
10.693069306930692,2.455651076164739
10.712871287128714,2.47332715517129
10.732673267326733,2.489889588987884
