Time (s),Filtered Signal
0.0,-0.10718859813922978
0.03337004405286344,-0.08709195892732252
0.06674008810572687,-0.05792592834206385
0.10011013215859031,-0.014811157395408614
0.13348017621145375,0.04328850714881348
0.16685022026431717,0.11348466861186936
0.20022026431718062,0.18992522951695048
0.23359030837004408,0.265033159667967
0.2669603524229075,0.3303985832124083
0.3003303964757709,0.3773281044831022
0.33370044052863435,0.3976927211642626
0.3670704845814978,0.38578195548715516
0.40044052863436125,0.34113359500137497
0.43381057268722467,0.2711510443247436
0.46718061674008815,0.19158357405515375
0.5005506607929515,0.12337571702873149
0.533920704845815,0.08606746652247049
0.5672907488986785,0.09004921318098276
0.6006607929515418,0.13124065690455078
0.6340308370044053,0.19116142850085396
0.6674008810572687,0.2429417289298922
0.7007709251101322,0.2608474307273847
0.7341409691629956,0.2291368644754323
0.767511013215859,0.146619954298916
0.8008810572687225,0.025764721196183518
0.834251101321586,-0.11203904853642316
0.8676211453744493,-0.24210451728120486
0.9009911894273128,-0.34069663923562904
0.9343612334801763,-0.3875871947324136
0.9677312775330397,-0.3683006588779741
1.001101321585903,-0.2776702207972394
1.0344713656387665,-0.12482848379495896
1.06784140969163,0.06260503459531183
1.1012114537444935,0.2390116270802297
1.134581497797357,0.34925682829794835
1.1679515418502202,0.3453768918074549
1.2013215859030837,0.20708324345089438
1.2346916299559472,-0.042249910032411325
1.2680616740088106,-0.3334424727015038
1.3014317180616741,-0.5689821039199653
1.3348017621145374,-0.6579017388903514
1.3681718061674009,-0.5561067374313285
1.4015418502202643,-0.2936880452587682
1.4349118942731278,0.02742863798810123
1.4682819383259913,0.2703668833281802
1.5016519823788548,0.32211788869708746
1.535022026431718,0.14766619079809243
1.5683920704845815,-0.18871124005688295
1.601762114537445,-0.5490481736805167
1.6351321585903085,-0.7846552563286413
1.668502202643172,-0.8062881874866809
1.7018722466960352,-0.6257736162781755
1.7352422907488987,-0.3469662043343785
1.7686123348017622,-0.11005465101733174
1.8019823788546256,-0.017899119332640837
1.8353524229074891,-0.08280321815184533
1.8687224669603526,-0.22149747352770668
1.9020925110132159,-0.3007262061626728
1.9354625550660793,-0.20920828638395225
1.9688325991189428,0.08191489973784429
2.002202643171806,0.501494781893893
2.0355726872246698,0.9120050602878107
2.068942731277533,1.1759244599601506
2.1023127753303967,1.2202241923655748
2.13568281938326,1.0668595592035528
2.1690528634361232,0.8160417352150832
2.202422907488987,0.5933936288841515
2.23579295154185,0.48910865953224497
2.269162995594714,0.5191102644594624
2.302533039647577,0.6253641154068226
2.3359030837004404,0.7123091746310216
2.369273127753304,0.6989854622004688
2.4026431718061674,0.5599537349641278
2.436013215859031,0.3351100988480853
2.4693832599118943,0.10503898554099268
2.5027533039647576,-0.05390748305931821
2.5361233480176213,-0.11089550420598272
2.5694933920704845,-0.09708678997431093
2.6028634361233483,-0.0894605989671054
2.6362334801762115,-0.1708873376533433
2.6696035242290748,-0.3869821537195479
2.7029735682819385,-0.7212091394876805
2.7363436123348017,-1.0999762391278343
2.7697136563876654,-1.4242782039203372
2.8030837004405287,-1.6115213932025694
2.8364537444933924,-1.626948581237582
2.8698237885462556,-1.490539734272675
2.903193832599119,-1.2587193396181344
2.9365638766519826,-0.9931651066709184
2.969933920704846,-0.7343787667649585
3.0033039647577096,-0.4928989320202522
3.036674008810573,-0.25957621779248596
3.070044052863436,-0.025354231655024057
3.1034140969162998,0.20320443889696077
3.136784140969163,0.40214209776604054
3.1701541850220267,0.5422387371777283
3.20352422907489,0.6066892969806109
3.2368942731277532,0.6029916205336784
3.270264317180617,0.5615074169115538
3.30363436123348,0.521168707841038
3.337004405286344,0.5103272299692825
3.370374449339207,0.5335056470246363
3.4037444933920704,0.5713041451299753
3.437114537444934,0.5931051021645677
3.4704845814977974,0.5750666526443341
3.503854625550661,0.513378009043657
3.5372246696035243,0.42609237337141936
3.5705947136563876,0.3437087892178641
3.6039647577092513,0.2947645975654804
3.6373348017621145,0.2945408022606742
3.6707048458149782,0.34191342030359145
3.7040748898678415,0.4237603955682339
3.737444933920705,0.5219119485416599
3.7708149779735685,0.6171764384754704
3.8041850220264317,0.6885174656097615
3.8375550660792954,0.7103034929473788
3.8709251101321587,0.6530761612394552
3.9042951541850224,0.49143007851377
3.9376651982378856,0.21736985845636994
3.971035242290749,-0.14760512786275454
4.004405286343612,-0.5498056997077864
4.037775330396476,-0.9144738352008422
4.0711453744493395,-1.1682758108066926
4.104515418502203,-1.2644731676078
4.137885462555066,-1.199837929996262
4.171255506607929,-1.0153856555521863
4.2046255506607935,-0.7799407323240568
4.237995594713657,-0.5632775729885408
4.27136563876652,-0.4104603538294334
4.304735682819383,-0.3285202993905828
4.3381057268722465,-0.2907343082044208
4.371475770925111,-0.25525751682849385
4.404845814977974,-0.18805620208391402
4.438215859030837,-0.07864092070132979
4.4715859030837,0.058185399460047985
4.504955947136564,0.19324401435492722
4.538325991189428,0.2986196029753087
4.571696035242291,0.3588637842485855
4.605066079295154,0.37308127305162536
4.638436123348018,0.34983751230276894
4.671806167400881,0.3008434343228295
4.705176211453745,0.2383501222493548
4.738546255506608,0.17660331762429035
4.7719162995594715,0.13349862059609105
4.805286343612335,0.12799148335011445
4.838656387665198,0.1721492262087004
4.872026431718062,0.26143856539375615
4.905396475770925,0.3695279658848076
4.938766519823789,0.4525695241303598
4.972136563876652,0.46318053991273206
5.005506607929515,0.3688566650383911
5.038876651982379,0.16651751495197656
5.072246696035243,-0.11382451336478598
5.105616740088106,-0.4182323530800155
5.138986784140969,-0.6866945464735533
5.172356828193832,-0.871619158828628
5.2057268722466965,-0.9492770504696147
5.23909691629956,-0.9206246965845525
5.272466960352423,-0.8033147122551454
5.305837004405286,-0.6203893928703054
5.3392070484581495,-0.39156892875142796
5.372577092511014,-0.13062545308041798
5.405947136563877,0.15121283114296333
5.43931718061674,0.43882638226264253
5.4726872246696034,0.7080843310956343
5.506057268722468,0.9258981011142219
5.539427312775331,1.057215985792514
5.572797356828194,1.0776010038562214
5.606167400881057,0.986814419471713
5.639537444933921,0.8168006681791096
5.672907488986785,0.6279752961938837
5.706277533039648,0.49148672069934385
5.739647577092511,0.4614641014882602
5.7730176211453745,0.5476878927013774
5.806387665198238,0.7020463059489306
5.839757709251102,0.8287381860081391
5.873127753303965,0.8184616398551985
5.9064977973568284,0.5945937516177335
5.939867841409692,0.15098325117620584
5.973237885462555,-0.43792590868902476
6.006607929515419,-1.0421817702358613
6.039977973568282,-1.5268059037197759
6.073348017621146,-1.804104477740304
6.106718061674009,-1.862367293007818
6.140088105726872,-1.7574642234709523
6.173458149779736,-1.5734665739848825
6.2068281938325995,-1.3747450327253163
6.240198237885463,-1.1757671667880942
6.273568281938326,-0.9440106414840144
6.306938325991189,-0.6323645178941925
6.3403083700440535,-0.22099715335360653
6.373678414096917,0.25599596020387766
6.40704845814978,0.7146329584368339
6.440418502202643,1.0538686061265674
6.4737885462555065,1.1997496880884666
6.507158590308371,1.138099882467659
6.540528634361234,0.9199297207863456
6.573898678414097,0.6384117354793534
6.60726872246696,0.3902129714429878
6.640638766519824,0.24012916141054885
6.674008810572688,0.20406925097206027
6.707378854625551,0.25471754792518564
6.740748898678414,0.34298561297071867
6.774118942731278,0.4223813371693492
6.807488986784141,0.4648574370698426
6.840859030837005,0.46353835654466685
6.874229074889868,0.42540339635764085
6.9075991189427315,0.36125657703481046
6.940969162995595,0.27949388753568266
6.974339207048458,0.1858120088945844
7.007709251101322,0.08640260695017218
7.041079295154185,-0.009810662964577678
7.074449339207049,-0.09293083197754284
7.107819383259912,-0.15745377538643943
7.141189427312775,-0.20775899002431505
7.174559471365639,-0.2593748936788082
7.207929515418503,-0.3335570015638536
7.241299559471366,-0.44639799961528664
7.274669603524229,-0.5972200066338889
7.308039647577092,-0.7623838163608381
7.3414096916299565,-0.8988722457288933
7.37477973568282,-0.9576962185744666
7.408149779735683,-0.9023996656855251
7.441519823788546,-0.7250965718019512
7.47488986784141,-0.45295501972255287
7.508259911894274,-0.14159779217318255
7.541629955947137,0.1430160427695195
7.575,0.3479628059033802
7.608370044052863,0.45306418870033344
7.641740088105728,0.478530254711149
7.675110132158591,0.4761092572594121
7.708480176211454,0.5058441069141257
7.741850220264317,0.6072360743232814
7.775220264317181,0.7773266225786659
7.808590308370045,0.9665347337959052
7.841960352422908,1.0959958810199413
7.875330396475771,1.0904290164967032
7.9087004405286345,0.9126997337358931
7.942070484581498,0.5842883275126666
7.975440528634362,0.1813153868715318
8.008810572687224,-0.19340841487114047
8.042180616740088,-0.4506012059683058
8.075550660792953,-0.5492375756547113
8.108920704845815,-0.5104386841842667
8.142290748898679,-0.4049294240563149
8.175660792951541,-0.32049752445020085
8.209030837004406,-0.3242179816713714
8.24240088105727,-0.4353664638377061
8.275770925110132,-0.6193978650561
8.309140969162996,-0.8043173903351926
8.342511013215859,-0.9119871308636023
8.375881057268723,-0.8913271591847781
8.409251101321587,-0.7397652349826432
8.44262114537445,-0.5040810361749825
8.475991189427313,-0.260485696318969
8.509361233480176,-0.08283628891465121
8.54273127753304,-0.01300085128288689
8.576101321585904,-0.045901626775596636
8.609471365638766,-0.13450241419721198
8.64284140969163,-0.2109353218749463
8.676211453744493,-0.21370650730730084
8.709581497797357,-0.10999104949277932
8.742951541850221,0.0942714516833162
8.776321585903084,0.35823502456993583
8.809691629955948,0.6210778171377818
8.84306167400881,0.8225315164013324
8.876431718061674,0.9226530103129503
8.909801762114538,0.9147332940192865
8.9431718061674,0.8267599661587147
8.976541850220265,0.7101370905373093
9.009911894273127,0.6190746903715166
9.043281938325991,0.5883600676586969
9.076651982378856,0.6186408083032985
9.110022026431718,0.6755570707119413
9.143392070484582,0.703104510267541
9.176762114537445,0.6454733838475344
9.210132158590309,0.4683874219521554
9.243502202643173,0.17198830478967975
9.276872246696035,-0.2084715160211751
9.3102422907489,-0.612949971584869
9.343612334801762,-0.9734219831627556
9.376982378854626,-1.2316749950046089
9.41035242290749,-1.353391929521337
9.443722466960352,-1.3352931517386486
9.477092511013216,-1.203697289793835
9.510462555066079,-1.004705984003404
9.543832599118943,-0.7885324299549512
9.577202643171807,-0.5928283545758798
9.61057268722467,-0.43103940826572845
9.643942731277534,-0.2906745494024112
9.677312775330396,-0.14276337672060113
9.71068281938326,0.04100618965850757
9.744052863436124,0.2707126766202544
9.777422907488987,0.5281689775068604
9.81079295154185,0.7695595355701185
9.844162995594713,0.9405234272753161
9.877533039647577,0.9978740076607006
9.910903083700441,0.9287522251999993
9.944273127753304,0.758451498736348
9.977643171806168,0.5425943673125652
10.01101321585903,0.3461848482452156
10.044383259911895,0.21830276110588653
10.077753303964759,0.17366953343866084
10.111123348017621,0.18938585866874044
10.144493392070485,0.2179944292804737
10.177863436123348,0.21027890621352158
10.211233480176212,0.1369524382194455
10.244603524229076,-0.000291766670143224
10.277973568281938,-0.17208947261343469
10.311343612334802,-0.3359048916306992
10.344713656387665,-0.4540821612420375
10.378083700440529,-0.5074563012082871
10.411453744493393,-0.49968491843174995
10.444823788546255,-0.4520686163257324
10.47819383259912,-0.3924882787715814
10.511563876651982,-0.34380512776411337
10.544933920704846,-0.3163750109146161
10.57830396475771,-0.3069120530727621
10.611674008810573,-0.30302462925466617
10.645044052863437,-0.2905830968691349
10.678414096916299,-0.2604421066317554
10.711784140969163,-0.21195045994327902
10.745154185022027,-0.15245809435668597
10.77852422907489,-0.09371120885904856
10.811894273127754,-0.04692199152914121
10.845264317180618,-0.018313021022861017
10.87863436123348,-0.006440288790350901
10.912004405286345,-0.0019982038610246874
10.945374449339207,0.009779574603836487
10.978744493392071,0.044681054870275384
11.012114537444935,0.11431270120835205
11.045484581497798,0.2218347540732072
11.078854625550662,0.36008912130336374
11.112224669603524,0.5126262562203323
11.145594713656388,0.6569897139582768
11.178964757709252,0.7689634282652567
11.212334801762115,0.8266710394903805
11.245704845814979,0.8141451145226793
11.279074889867841,0.7245452299583937
11.312444933920705,0.5630222286184522
11.34581497797357,0.3483489472574579
11.379185022026432,0.11161594403305528
11.412555066079296,-0.10946623446926569
11.445925110132158,-0.28032855172848486
11.479295154185023,-0.38038314267395307
11.512665198237887,-0.41013645174939994
11.546035242290749,-0.39045775440910624
11.579405286343613,-0.35334328836523493
11.612775330396476,-0.32804412415091105
11.64614537444934,-0.329244803931597
11.679515418502204,-0.35309905683494647
11.712885462555066,-0.3826381504387693
11.74625550660793,-0.3988997296211497
11.779625550660793,-0.3912381911253493
11.812995594713657,-0.36136443158272996
11.846365638766521,-0.319854267445896
11.879735682819383,-0.2783796291324897
11.913105726872248,-0.24295917336340664
11.94647577092511,-0.21208240947245377
11.979845814977974,-0.17990545728889598
12.013215859030838,-0.1413947102752418
12.0465859030837,-0.09541091434312572
12.079955947136565,-0.04365941542747746
12.113325991189427,0.013273597083638684
12.146696035242291,0.07919737693527312
12.180066079295155,0.16146604852788793
12.213436123348018,0.26524752443485033
12.246806167400882,0.38572404303529917
12.280176211453744,0.5032313121666577
12.313546255506608,0.5856638048751607
12.346916299559473,0.5990349074849313
12.380286343612335,0.5225498294888368
12.413656387665199,0.36129207548497305
12.447026431718061,0.14955965298881582
12.480396475770926,-0.05848123030958745
12.51376651982379,-0.20819179609322927
12.547136563876652,-0.2658339811822355
12.580506607929516,-0.2319987731969894
12.613876651982379,-0.1403874988709005
12.647246696035243,-0.04224912083149967
12.680616740088107,0.016087760084437165
12.71398678414097,0.011859261499954551
12.747356828193833,-0.047652395864186424
12.780726872246696,-0.13255705414853172
12.81409691629956,-0.2065415945082008
12.847466960352424,-0.24312761078951572
12.880837004405286,-0.23471466752269127
12.91420704845815,-0.19191513820450676
12.947577092511013,-0.13570294223484478
12.980947136563877,-0.08739933034698222
13.014317180616741,-0.06079527417831579
13.047687224669604,-0.058151325141633334
13.081057268722468,-0.06960846089839318
13.11442731277533,-0.07504431287688813
13.147797356828194,-0.04831549321013
13.181167400881058,0.03540202809458977
13.21453744493392,0.18930300459667898
13.247907488986785,0.40435692180624977
13.281277533039647,0.6437013725593762
13.314647577092511,0.8474398851894989
13.348017621145376,0.949558359946057
13.381387665198238,0.902351832864558
13.414757709251102,0.6983486079577399
13.448127753303964,0.3788950652821649
13.481497797356829,0.023534148328692453
13.514867841409693,-0.27714468423006294
13.548237885462555,-0.4547123643456183
13.58160792951542,-0.4885279985584347
13.614977973568282,-0.41304083857310797
13.648348017621146,-0.303511804901741
13.68171806167401,-0.24565932567299953
13.715088105726872,-0.3011301198023211
13.748458149779736,-0.482258530461042
13.781828193832599,-0.7458662493666542
13.815198237885463,-1.0084718645767783
13.848568281938327,-1.1771021955757914
13.88193832599119,-1.1839484260699573
13.915308370044054,-1.0115852601558621
13.948678414096916,-0.6990675961919712
13.98204845814978,-0.3267526723027159
14.015418502202644,0.013757005455202032
14.048788546255507,0.2522466326760346
14.08215859030837,0.3622115627292087
14.115528634361233,0.3649624155123179
14.148898678414097,0.31568726187803536
14.182268722466961,0.2789401589246957
14.215638766519824,0.30429798668863095
14.249008810572688,0.4112108702451506
14.28237885462555,0.5868793154668392
14.315748898678414,0.7951795726099049
14.349118942731279,0.990838737235221
14.382488986784141,1.1325031830265717
14.415859030837005,1.1907024936403967
14.449229074889868,1.1503811491046414
14.482599118942732,1.0105415548752
14.515969162995596,0.7840014818050328
14.549339207048458,0.4981385358614717
14.582709251101322,0.19434367880070988
14.616079295154185,-0.07770402863316539
14.649449339207049,-0.2729958676518884
14.682819383259913,-0.3685132610811263
14.716189427312775,-0.3769321034414697
14.74955947136564,-0.34737216554664485
14.782929515418502,-0.34846995715705975
14.816299559471366,-0.43817032181321763
14.84966960352423,-0.6333178645821805
14.883039647577093,-0.8947876198593137
14.916409691629957,-1.1379176778385873
14.94977973568282,-1.2658310034627829
14.983149779735683,-1.2112544249626598
15.016519823788547,-0.967344639567618
15.04988986784141,-0.5928284130385258
15.083259911894274,-0.18902455095865417
15.116629955947138,0.14039011799297424
15.15,0.328431665797499
15.183370044052865,0.3658373684665261
15.216740088105727,0.2966198011131225
15.250110132158591,0.19274366841150892
15.283480176211455,0.12125755381546931
15.316850220264318,0.1188542634375881
15.350220264317182,0.1834372587090376
15.383590308370044,0.28327204251768373
15.416960352422908,0.37642043235892686
15.450330396475772,0.42993466690757265
15.483700440528635,0.43052417802812204
15.517070484581499,0.3841195598700446
15.550440528634361,0.30754036005251545
15.583810572687225,0.2184353996735834
15.61718061674009,0.12887278718169964
15.650550660792952,0.04461368569305186
15.683920704845816,-0.031487955586058075
15.717290748898678,-0.09541184162388133
15.750660792951543,-0.14024685167481635
15.784030837004407,-0.15782027429002496
15.817400881057269,-0.1424885373572856
15.850770925110133,-0.09473245357824735
15.884140969162996,-0.022499005504620154
15.91751101321586,0.06041578889223665
15.950881057268724,0.1381177141185717
15.984251101321586,0.19676629053381295
16.01762114537445,0.22744916494780182
16.050991189427315,0.22692232206836205
16.084361233480177,0.19643592933497483
16.11773127753304,0.13967364604000754
16.151101321585905,0.06107333622191826
16.184471365638768,-0.034543997818278424
16.21784140969163,-0.14084742995835922
16.251211453744492,-0.2480538457052825
16.284581497797358,-0.341563281792239
16.31795154185022,-0.4027655312109094
16.351321585903083,-0.41298008210636594
16.38469162995595,-0.3599923029375925
16.41806167400881,-0.24480453429710514
16.451431718061674,-0.08507133043840025
16.48480176211454,0.08772638757184889
16.518171806167402,0.2377239628779021
16.551541850220264,0.3374863804918787
16.584911894273127,0.3783090588177196
16.618281938325993,0.37234281614618003
16.651651982378855,0.34447725307088783
16.685022026431717,0.3173938837638586
16.718392070484583,0.2976049107393422
16.751762114537446,0.27080623111569724
16.785132158590308,0.21054927969371245
16.818502202643174,0.09686312523595464
16.851872246696036,-0.06508388766454651
16.8852422907489,-0.23789921023231264
16.91861233480176,-0.36316345755469204
16.951982378854627,-0.3879501680391826
16.98535242290749,-0.2942663948531118
17.01872246696035,-0.11539741452466723
17.052092511013218,0.07171863982988361
17.08546255506608,0.17698042244207388
17.118832599118942,0.13679262577275117
17.152202643171808,-0.0567216880790605
17.18557268722467,-0.35203085227323305
17.218942731277533,-0.6620323556300629
17.2523127753304,-0.9029564949144044
17.28568281938326,-1.0281331768921689
17.319052863436124,-1.0398355190361994
17.352422907488986,-0.9750141048970076
