Time (s),Filtered Signal
0.0,0.004754093051289593
0.0334075723830735,-0.18260254416332722
0.066815144766147,-0.34051267922751105
0.1002227171492205,-0.4457194448392762
0.133630289532294,-0.4861886208967516
0.1670378619153675,-0.4637012438710053
0.200445434298441,-0.3927974052800785
0.23385300668151449,-0.2958392689616618
0.267260579064588,-0.1956354204425473
0.3006681514476615,-0.1084530596362167
0.334075723830735,-0.04034076924234149
0.3674832962138085,0.011756508242931755
0.400890868596882,0.05489818107685803
0.4342984409799555,0.0938207290011659
0.46770601336302897,0.12672785475292705
0.5011135857461025,0.14544389937914665
0.534521158129176,0.13990483376394613
0.5679287305122495,0.10463686474606414
0.601336302895323,0.04368658602344216
0.6347438752783965,-0.02890314052978847
0.66815144766147,-0.09374710258059765
0.7015590200445435,-0.1338390352549583
0.734966592427617,-0.1415106414184373
0.7683741648106905,-0.12106364511352888
0.801781737193764,-0.08576287946276398
0.8351893095768375,-0.050884876862787226
0.868596881959911,-0.026543041058890066
0.9020044543429845,-0.013898689947853012
0.9354120267260579,-0.006268273048799201
0.9688195991091315,0.006110860309718094
1.002227171492205,0.03065170235356652
1.0356347438752784,0.06917819423899538
1.069042316258352,0.11799512259623016
1.1024498886414256,0.17029775191105312
1.135857461024499,0.218822764228476
1.1692650334075725,0.2570639684863921
1.202672605790646,0.27889767735368864
1.2360801781737194,0.27793076192559046
1.269487750556793,0.24821772914907742
1.3028953229398665,0.18691255182911934
1.33630289532294,0.09766467844316798
1.3697104677060135,-0.007582217948939005
1.403118040089087,-0.1103340782743726
1.4365256124721606,-0.19092461596591767
1.469933184855234,-0.23541885784437444
1.5033407572383075,-0.2407838654183231
1.536748329621381,-0.21572057918241144
1.5701559020044544,-0.17663424011353182
1.603563474387528,-0.14054278703016052
1.6369710467706016,-0.11806464161504081
1.670378619153675,-0.10944771620563064
1.7037861915367485,-0.10519339258189982
1.737193763919822,-0.09095272719762122
1.7706013363028954,-0.05475649833452374
1.804008908685969,0.006266171987171625
1.8374164810690425,0.08251232993073954
1.8708240534521159,0.15369307805632018
1.9042316258351895,0.19572098466751206
1.937639198218263,0.19040177635841815
1.9710467706013366,0.13401035298124284
2.00445434298441,0.04080375909576259
2.0378619153674835,-0.060558952631441676
2.071269487750557,-0.13660206777460157
2.1046770601336307,-0.160789245625578
2.138084632516704,-0.1227143523143974
2.1714922048997773,-0.03135366353251409
2.204899777282851,0.08826372936786275
2.2383073496659245,0.20307128196677202
2.271714922048998,0.28158282391012623
2.3051224944320716,0.30229963539270405
2.338530066815145,0.2590718909834073
2.3719376391982183,0.16246024465862666
2.405345211581292,0.036732490857947095
2.4387527839643655,-0.08717071846649953
2.472160356347439,-0.18118584678258431
2.5055679287305126,-0.22928395254360368
2.538975501113586,-0.2326418485378279
2.5723830734966593,-0.2081593718955334
2.605790645879733,-0.18026904356833878
2.6391982182628064,-0.16922152072209476
2.67260579064588,-0.18116422352869302
2.7060133630289536,-0.20497084747892794
2.739420935412027,-0.2177769489424752
2.7728285077951007,-0.1968691900800352
2.806236080178174,-0.1321754246921326
2.8396436525612474,-0.03301326776001577
2.873051224944321,0.07453924516331793
2.9064587973273945,0.15859410355815698
2.939866369710468,0.19544020606211182
2.9732739420935417,0.17976910397825274
3.006681514476615,0.1263299136894881
3.0400890868596884,0.06258956157179428
3.073496659242762,0.016405180033543416
3.1069042316258355,0.004888529832746998
3.140311804008909,0.029531994990659994
3.1737193763919826,0.07902415481994443
3.207126948775056,0.13708010547814628
3.2405345211581293,0.19028765510482604
3.273942093541203,0.2316231839339394
3.3073496659242765,0.2584350594084505
3.34075723830735,0.26742470560709125
3.3741648106904236,0.2512070288273971
3.407572383073497,0.2000719127978959
3.4409799554565703,0.1090348850094539
3.474387527839644,-0.013791085741416648
3.5077951002227175,-0.1434963076256466
3.541202672605791,-0.24375688854963729
3.5746102449888646,-0.28093868691114254
3.608017817371938,-0.24102482221993743
3.6414253897550113,-0.14041811878525218
3.674832962138085,-0.023378213627672888
3.7082405345211584,0.05492071209024302
3.7416481069042318,0.052978420928246714
3.7750556792873056,-0.03648812033926484
3.808463251670379,-0.18075643718096676
3.8418708240534527,-0.3198975371571079
3.875278396436526,-0.3926899987837865
3.9086859688195994,-0.36345484756009605
3.942093541202673,-0.2371283894799596
3.9755011135857465,-0.05583603947310256
4.00890868596882,0.12064633184338387
4.042316258351893,0.24062503464605917
4.075723830734967,0.2802365856898166
4.109131403118041,0.24883819869365936
4.142538975501114,0.1792466392380916
4.1759465478841875,0.10933364579877455
4.209354120267261,0.06484660615417481
4.242761692650334,0.051359623872002644
4.276169265033408,0.057524228304019494
4.309576837416482,0.06574638625715318
4.342984409799555,0.06333323619632324
4.3763919821826285,0.04823818825297936
4.409799554565702,0.02751103174892307
4.443207126948775,0.010785930348402794
4.476614699331849,0.00332918450813933
4.510022271714923,0.002577517552761822
4.543429844097996,-0.0004029451687928999
4.5768374164810695,-0.015852401575509104
4.610244988864143,-0.04954239415297087
4.643652561247216,-0.09909784961645172
4.67706013363029,-0.15390040382065134
4.710467706013364,-0.19838804924517564
4.743875278396437,-0.2173317386493023
4.77728285077951,-0.20120121191806267
4.810690423162584,-0.14991908781406826
4.844097995545657,-0.07384048395506777
4.877505567928731,0.008532663665505216
4.910913140311805,0.07580988818145734
4.944320712694878,0.1107138198718387
4.977728285077951,0.10665631441203659
5.011135857461025,0.07124318110580169
5.044543429844098,0.024624183550968445
5.077951002227172,-0.007578153561714052
5.111358574610246,-0.004509360930799161
5.144766146993319,0.04072358330223596
5.178173719376392,0.11724455762044547
5.211581291759466,0.200169220924817
5.244988864142539,0.2605849477495617
5.278396436525613,0.2773268803324158
5.311804008908687,0.2452144419597983
5.34521158129176,0.17618884965683693
5.378619153674833,0.09329398103139872
5.412026726057907,0.020788196022178976
5.445434298440981,-0.02485936418348754
5.478841870824054,-0.03936690239091743
5.512249443207128,-0.029467110797825595
5.545657015590201,-0.008015509078450776
5.579064587973274,0.011433675765506473
5.612472160356348,0.01807687794155393
5.645879732739422,0.004788890327808188
5.679287305122495,-0.03221810714097774
5.712694877505569,-0.09328574525456818
5.746102449888642,-0.17406229816338378
5.779510022271715,-0.2640632833702438
5.812917594654789,-0.3469350297711612
5.846325167037863,-0.40377140027926345
5.879732739420936,-0.4190179848693514
5.91314031180401,-0.38655109576607727
5.946547884187083,-0.3127842626786777
5.979955456570156,-0.21479595967711046
6.01336302895323,-0.11397529362179162
6.046770601336304,-0.028102791625501812
6.080178173719377,0.03436937230201193
6.1135857461024505,0.07536139010418576
6.146993318485524,0.10370504148358199
6.180400890868597,0.12970896538646223
6.213808463251671,0.16090817806322938
6.247216035634745,0.2007758483726209
6.280623608017818,0.24986178258128233
6.3140311804008915,0.30723282666722357
6.347438752783965,0.3702947811816933
6.380846325167038,0.43282546039347625
6.414253897550112,0.4830012790536686
6.447661469933186,0.5038898458241652
6.481069042316259,0.4777272173061303
6.5144766146993325,0.39296601137784065
6.547884187082406,0.2510199688783978
6.581291759465479,0.0691569029642194
6.614699331848553,-0.1225059675486558
6.648106904231627,-0.28923113239851167
6.6815144766147,-0.4019637035095424
6.7149220489977735,-0.4456283924928116
6.748329621380847,-0.4223659523202422
6.78173719376392,-0.34896792814935707
6.815144766146994,-0.2501287497277182
6.848552338530068,-0.1504895877307216
6.881959910913141,-0.06842336517045343
6.915367483296214,-0.013381241138084622
6.948775055679288,0.013010623415064529
6.982182628062361,0.013418655255704608
7.015590200445435,-0.008993093463012363
7.048997772828509,-0.05254927955597724
7.082405345211582,-0.1162218944505274
7.115812917594655,-0.1965227364627676
7.149220489977729,-0.28407029368281284
7.182628062360802,-0.3622314623857713
7.216035634743876,-0.40945293127372245
7.24944320712695,-0.40514253952994983
7.282850779510023,-0.337038542590314
7.316258351893096,-0.20689579953719933
7.34966592427617,-0.03169997399742235
7.383073496659243,0.1605475509289577
7.416481069042317,0.33899276702182685
7.449888641425391,0.4787511655454931
7.4832962138084635,0.5668473670815886
7.516703786191537,0.6031168743712023
7.550111358574611,0.5962067083346151
7.583518930957685,0.5569407568246567
7.616926503340758,0.4923975423373871
7.650334075723832,0.4036594743402612
7.683741648106905,0.2884348875390649
7.717149220489978,0.14725425356645924
7.750556792873052,-0.010223714029432939
7.783964365256126,-0.16289899774068037
7.817371937639199,-0.2824522735970659
7.850779510022273,-0.34333292590872155
7.884187082405346,-0.33428281883760896
7.917594654788419,-0.265538471816502
7.951002227171493,-0.16725897720113725
7.984409799554567,-0.07874815540349675
8.01781737193764,-0.03273049794333315
8.051224944320714,-0.041814825234412954
8.084632516703786,-0.09366779360818844
8.118040089086861,-0.1574350815344997
8.151447661469934,-0.19851343730550153
8.184855233853007,-0.1946591900340732
8.218262806236082,-0.14577119640276193
8.251670378619155,-0.07287616327914423
8.285077951002227,-0.007227372423277844
8.318485523385302,0.024785505554368176
8.351893095768375,0.013461744929399477
8.385300668151448,-0.03105156728971696
8.418708240534523,-0.08505588357307639
8.452115812917596,-0.1231828346519239
8.485523385300668,-0.1296543925515518
8.518930957683743,-0.10368212614554885
8.552338530066816,-0.057237715961661544
8.585746102449889,-0.007390085547382179
8.619153674832964,0.032223426309916675
8.652561247216036,0.05650314895243233
8.68596881959911,0.06875503815545903
8.719376391982184,0.07655592922874657
8.752783964365257,0.08670470178044906
8.78619153674833,0.10212679342644168
8.819599109131405,0.12177477158349596
8.853006681514477,0.14252566330847252
8.88641425389755,0.16113398085871847
8.919821826280625,0.1748659359132437
8.953229398663698,0.18086332792275994
8.98663697104677,0.17542229071327398
9.020044543429846,0.15442287287031317
9.053452115812918,0.11516709310859685
9.086859688195991,0.05866642414671035
9.120267260579066,-0.009125419466541928
9.153674832962139,-0.07812522515822651
9.187082405345212,-0.13676529791742975
9.220489977728286,-0.1751876419078769
9.25389755011136,-0.18747217705148447
9.287305122494432,-0.1721096102228182
9.320712694877507,-0.1310867372998706
9.35412026726058,-0.06872636735448605
9.387527839643653,0.00872974819373865
9.420935412026727,0.09276305309439037
9.4543429844098,0.17242012767756293
9.487750556792873,0.2355226189659277
9.521158129175948,0.2714879749423921
9.55456570155902,0.2745443986778343
9.587973273942094,0.24528316911739168
9.621380846325168,0.1891497076340602
9.654788418708241,0.1124577938841206
9.688195991091314,0.018528829241852906
9.721603563474389,-0.09296681930095956
9.755011135857462,-0.2221356484490011
9.788418708240535,-0.3622295078181802
9.82182628062361,-0.49453656111660305
9.855233853006682,-0.589177144790301
9.888641425389755,-0.6134681020685404
9.92204899777283,-0.5452939677902578
9.955456570155903,-0.38552476168120486
9.988864142538976,-0.1629756862550154
10.02227171492205,0.07172291250439228
10.055679287305123,0.2619536874617282
10.089086859688196,0.36454818262716765
10.12249443207127,0.3647563834352129
10.155902004454344,0.280448995641479
10.189309576837417,0.15393548704589302
10.222717149220491,0.03511163372857095
10.256124721603564,-0.03686337934669741
10.289532293986637,-0.04599550937829409
10.322939866369712,-0.0016118160111326986
10.356347438752785,0.06956241929530174
10.389755011135858,0.13712461221153793
10.423162583518932,0.1802462523798817
10.456570155902005,0.1949029257714247
10.489977728285078,0.19247744656621293
10.523385300668153,0.19103189872809742
10.556792873051226,0.20377773491473447
10.590200445434299,0.23045015143479097
10.623608017817373,0.2558528272619127
10.657015590200446,0.25638935109501854
10.69042316258352,0.21153344114067066
10.723830734966594,0.11476635978794253
10.757238307349667,-0.02129164840514671
10.790645879732741,-0.16811126192284395
10.824053452115814,-0.2914904990323652
10.857461024498887,-0.36421571833000127
10.890868596881962,-0.3755323806993599
10.924276169265035,-0.33341764283303144
10.957683741648108,-0.2590890870319724
10.991091314031182,-0.1767977174361002
11.024498886414255,-0.10399697025486901
11.057906458797328,-0.04646431062703718
11.091314031180403,-0.00015440429993503584
11.124721603563476,0.042054945774625214
11.158129175946549,0.0830640153590417
11.191536748329623,0.1180597784024405
11.224944320712696,0.13674981530148111
11.25835189309577,0.12977076708897364
11.291759465478844,0.09525532452334608
11.325167037861917,0.0415006358688622
11.35857461024499,-0.015960249194405175
11.391982182628064,-0.06126128696971162
11.425389755011137,-0.0851596906630404
11.45879732739421,-0.08819859507609061
11.492204899777285,-0.07858669736111432
11.525612472160358,-0.06647484455012245
11.55902004454343,-0.058336794372955476
11.592427616926505,-0.05481910800438861
11.625835189309578,-0.05297930330924659
11.659242761692651,-0.05086754652712569
11.692650334075726,-0.05082233228333838
11.726057906458799,-0.05866757798333932
11.759465478841872,-0.0787514944180678
11.792873051224946,-0.1077953363759911
11.82628062360802,-0.13193506773469
11.859688195991092,-0.13010468510439144
11.893095768374167,-0.08347101686497108
11.92650334075724,0.013225354403475664
11.959910913140313,0.1445894060933377
11.993318485523387,0.27663379321726267
12.02672605790646,0.36855325272922035
12.060133630289533,0.38954442985273413
12.093541202672608,0.33276632335532935
12.12694877505568,0.2193520177232432
12.160356347438753,0.09008253781982407
12.193763919821828,-0.011537045243737888
12.227171492204901,-0.05684202155612663
12.260579064587974,-0.042189680789916945
12.293986636971049,0.012315793546667477
12.327394209354122,0.07396485083713428
12.360801781737194,0.11249871668770162
12.39420935412027,0.11209149038689685
12.427616926503342,0.07561806534085105
12.461024498886415,0.020644733755971294
12.49443207126949,-0.02984149999311536
12.527839643652563,-0.05740477148467739
12.561247216035635,-0.05497294573694905
12.59465478841871,-0.028666777556563897
12.628062360801783,0.005064071804537626
12.661469933184856,0.025364976927157154
12.69487750556793,0.013896028903945949
12.728285077951004,-0.039164598360330614
12.761692650334076,-0.1315399899670607
12.795100222717151,-0.2486167503283753
12.828507795100224,-0.366650332424398
12.861915367483297,-0.45856710455966787
12.895322939866372,-0.5007784747201205
12.928730512249444,-0.4792056583664265
12.962138084632517,-0.3930408970575067
12.995545657015592,-0.25539365080380755
13.028953229398665,-0.09063436474120048
13.062360801781738,0.07111521416594777
13.095768374164813,0.20124575358137592
13.129175946547885,0.2799676087204984
13.162583518930958,0.3016131828539025
13.195991091314033,0.2761128627067918
13.229398663697106,0.22575321624613076
13.262806236080179,0.17779826653890396
13.296213808463254,0.1551044834823911
13.329621380846326,0.1678681847811594
13.3630289532294,0.20959470532737157
13.396436525612474,0.25912504616365617
13.429844097995547,0.2884429562163813
13.46325167037862,0.27374860235777476
13.496659242761694,0.20577467436669433
13.530066815144767,0.09519492085716572
13.56347438752784,-0.02953986311910932
13.596881959910915,-0.13185139887024178
13.630289532293988,-0.18097787826901704
13.66369710467706,-0.16482606269108596
13.697104677060135,-0.09618475108000635
13.730512249443208,-0.009029178776962136
13.763919821826281,0.054335497382390394
13.797327394209356,0.06043868727131962
13.830734966592429,-0.0010037471854963261
13.864142538975502,-0.11186751197660533
13.897550111358576,-0.23212990099464062
13.93095768374165,-0.3156618842273011
13.964365256124722,-0.3287441457407931
13.997772828507797,-0.26348353795311685
14.03118040089087,-0.14049276460769877
14.064587973273943,0.0001307887443314773
14.097995545657017,0.11541835282327464
14.13140311804009,0.17641656020237695
14.164810690423163,0.17811148979948957
14.198218262806238,0.13847757563175728
14.23162583518931,0.08776712125435196
14.265033407572384,0.05354187201341145
14.298440979955458,0.048629350038561725
14.331848552338531,0.06739057199410105
14.365256124721604,0.09133732436802186
14.398663697104679,0.10044177256729817
14.432071269487752,0.08384250079763349
14.465478841870825,0.04441985887261022
14.4988864142539,-0.00458356684487043
14.532293986636972,-0.048183083801347434
14.565701559020045,-0.07799847234987911
14.59910913140312,-0.09532264971356284
14.632516703786193,-0.10737204549368327
14.665924276169266,-0.1195142955948456
14.69933184855234,-0.12887733120362563
14.732739420935413,-0.12402315954503493
14.766146993318486,-0.09166906789783023
14.79955456570156,-0.026897852042467002
14.832962138084634,0.059363517372757905
14.866369710467707,0.14088346423226855
14.899777282850781,0.18576865540851534
14.933184855233854,0.17108665214676533
14.966592427616927,0.0950914204131399
15.0,-0.01963933648347808
