Frequency (Hz),Amplitude
0.0,1.3331519539910186
0.01993355481727575,1.339202666261249
0.0398671096345515,1.3571695090904963
0.059800664451827246,1.386520578065511
0.079734219269103,1.4264422476238188
0.09966777408637874,1.4759273465948974
0.11960132890365449,1.5338663817310352
0.13953488372093023,1.5991262155187709
0.159468438538206,1.6706083939254435
0.17940199335548174,1.7472862555331752
0.19933554817275748,1.828224147953919
0.21926910299003324,1.91258359760996
0.23920265780730898,1.9996210722368946
0.25913621262458475,2.0886810040507418
0.27906976744186046,2.1791866360555723
0.29900332225913623,2.2706303131815124
0.318936877076412,2.362564148203804
0.3388704318936877,2.4545915304719883
0.3588039867109635,2.546359659809124
0.37873754152823924,2.637553124044669
0.39867109634551495,2.727888453036906
0.4186046511627907,2.817109543889423
0.4385382059800665,2.9049838410576347
0.4584717607973422,2.9912991584861612
0.47840531561461797,3.075861041240462
0.49833887043189373,3.158490576975782
0.5182724252491695,3.2390225806938187
0.5382059800664452,3.317304088420117
0.5581395348837209,3.39319310620986
0.5780730897009968,3.466557570138367
0.5980066445182725,3.537274480721768
0.6179401993355482,3.6052291816933284
0.637873754152824,3.670314758409365
0.6578073089700996,3.732431535551363
0.6777408637873754,3.7914866573886647
0.6976744186046512,3.8473937368091438
0.717607973421927,3.900072561732431
0.7375415282392027,3.949448849490881
0.7574750830564785,3.9954540413792876
0.7774086378737541,4.038025130902031
0.7973421926910299,4.077104520340393
0.8172757475083057,4.112639901167434
0.8372093023255814,4.144584154588646
0.8571428571428572,4.172895269112829
0.877076411960133,4.197536272582813
0.8970099667774087,4.218475176539037
0.9169435215946844,4.235684931166115
0.9368770764119602,4.249143389396812
0.9568106312292359,4.258833279029397
0.9767441860465116,4.2647421819628235
0.9966777408637875,4.266862519876781
1.0166112956810631,4.265191545887291
1.036544850498339,4.259731341898968
1.0564784053156147,4.250488821557837
1.0764119601328903,4.237475738888569
1.0963455149501662,4.220708702882395
1.1162790697674418,4.200209198491711
1.1362126245847177,4.176003614689831
1.1561461794019936,4.1481232804754375
1.176079734219269,4.116604509947644
1.196013289036545,4.081488657856393
1.2159468438538206,4.042822187353789
1.2358803986710964,4.000656752044838
1.255813953488372,3.9550492948739477
1.275747508305648,3.906062166902105
1.2956810631229239,3.853763269647353
1.3156146179401993,3.7982262254017627
1.3355481727574752,3.739530580829602
1.3554817275747508,3.6777620502292288
1.3754152823920267,3.6130128061488715
1.3953488372093024,3.5453818266368136
1.4152823920265782,3.474975310345752
1.435215946843854,3.4019071730789356
1.4551495016611296,3.3262996422597912
1.4750830564784054,3.2482839693438392
1.495016611295681,3.1680012845093057
1.514950166112957,3.0856036232196455
1.5348837209302328,3.0012551606199827
1.5548172757475083,2.9151336973871675
1.5747508305647842,2.827432449749897
1.5946843853820598,2.738362207004418
1.6146179401993357,2.6481539318682197
1.6345514950166113,2.557061891987725
1.6544850498338872,2.465367423754381
1.6744186046511629,2.3733834400669793
1.6943521594684385,2.2814597976791555
1.7142857142857144,2.189989630033878
1.73421926910299,2.0994167158368264
1.754152823920266,2.010243872521669
1.7740863787375416,1.9230422074637736
1.7940199335548175,1.838460786127492
1.8139534883720931,1.7572358319158519
1.8338870431893688,1.680197903542276
1.8538205980066447,1.6082745791222335
1.8737541528239203,1.542485084850739
1.893687707641196,1.483922315924392
1.9136212624584719,1.433717405305781
1.9335548172757475,1.3929833353656107
1.9534883720930232,1.3627380205539765
1.9734219269102993,1.3438139908820685
1.993355481727575,1.3367695889859452
2.0132890365448506,1.341821629177043
2.0332225913621262,1.3588175693008406
2.0531561461794023,1.3872553142290218
2.073089700996678,1.4263448260846028
2.0930232558139537,1.4750946750859806
2.1129568106312293,1.5324033295073316
2.132890365448505,1.5971390850268967
2.1528239202657806,1.6682001609363788
2.1727574750830567,1.7445535606903497
2.1926910299003324,1.825255728205572
2.212624584717608,1.909459756468963
2.2325581395348837,1.9964138202624206
2.25249169435216,2.085454582693306
2.2724252491694354,2.175998224859678
2.292358803986711,2.2675307926500774
2.312292358803987,2.35959884356883
2.332225913621263,2.4518008971955263
2.352159468438538,2.543779893982771
2.3720930232558137,2.635216694007013
2.39202657807309,2.7258245556922858
2.4119601328903655,2.8153444926716378
2.431893687707641,2.903541393761872
2.4518272425249172,2.9902007932601484
2.471760797342193,3.075126188473154
2.4916943521594686,3.1581368139975576
2.511627906976744,3.2390657953019915
2.5315614617940203,3.317758616371559
2.551495016611296,3.394071847028305
2.5714285714285716,3.4678720848860376
2.5913621262458477,3.5390350747856996
2.611295681063123,3.6074449751294586
2.6312292358803986,3.672993745962073
2.6511627906976742,3.735580638112019
2.6710963455149503,3.795111766362512
2.691029900332226,3.851499752616335
2.7109634551495017,3.9046634274674674
2.7308970099667778,3.954527580597917
2.7508305647840534,4.001022752062446
2.770764119601329,4.044085057875407
2.7906976744186047,4.083656044427041
2.810631229235881,4.11968256717729
2.8305647840531565,4.152116689839182
2.850498338870432,4.180915600900612
2.870431893687708,4.206041544867625
2.8903654485049834,4.227461766062792
2.910299003322259,4.245148463195673
2.9302325581395348,4.259078753251306
2.950166112956811,4.269234643528628
2.9700996677740865,4.275603010912271
2.990033222591362,4.278175587686814
3.0099667774086383,4.276948953408217
3.029900332225914,4.271924532539487
3.0498338870431896,4.263108597741726
3.0697674418604657,4.250512278892776
3.089700996677741,4.2341515780886585
3.1096345514950166,4.214047391073112
3.129568106312292,4.190225535743036
3.1495016611295683,4.162716788598288
3.169435215946844,4.131556930249826
3.1893687707641196,4.096786801377862
3.2093023255813957,4.058452370850584
3.2292358803986714,4.016604818084348
3.249169435215947,3.971300632160869
3.2691029900332227,3.9226017307307304
3.289036544850499,3.8705756023447186
3.3089700996677744,3.8152954765871034
3.32890365448505,3.7568405272668564
3.3488372093023258,3.695296114987787
3.3687707641196014,3.630754076709637
3.388704318936877,3.5633130714813595
3.4086378737541527,3.493078993439315
3.428571428571429,3.4201654654955043
3.4485049833887045,3.3446944299888406
3.46843853820598,3.2667968560501923
3.4883720930232562,3.186613587673029
3.508305647840532,3.1042963616398733
3.5282392026578075,3.0200090306981213
3.548172757475083,2.933929034877857
3.5681063122923593,2.846249172742662
3.588039867109635,2.757179734731187
3.60797342192691,2.666951072476852
3.6279069767441863,2.575816690644658
3.647840531561462,2.484056960334537
3.6677740863787376,2.391983563320736
3.6877076411960132,2.2999447803361215
3.7076411960132893,2.2083317272747345
3.727574750830565,2.1175856088572576
3.7475083056478407,2.0282059812088913
3.7674418604651168,1.9407598643700528
3.787375415282392,1.8558912824831784
3.807308970099668,1.77433038186298
3.8272425249169437,1.6969006330235625
3.8471760797342194,1.6245217377117767
3.867109634551495,1.5582048012524208
3.887043189368771,1.4990353497654627
3.9069767441860463,1.4481394320752323
3.9269102990033224,1.4066292374246343
3.9468438538205985,1.3755283286222582
3.9667774086378738,1.3556829817685225
3.98671096345515,1.3476737444457523
4.0066445182724255,1.3517465794492642
4.026578073089701,1.3677817170753588
4.046511627906977,1.395309192371566
4.0664451827242525,1.4335665154984432
4.086378737541528,1.4815826543923822
4.106312292358805,1.5382685025526224
4.1262458471760795,1.6024974483897017
4.146179401993356,1.6731669602013315
4.166112956810632,1.749239185751879
4.186046511627907,1.8297631963517007
4.205980066445183,1.9138834470900943
4.225913621262459,2.0008390944530365
4.245847176079734,2.0899579707686446
4.26578073089701,2.1806479411448323
4.2857142857142865,2.272387410552996
4.305647840531561,2.364716023303835
4.325581395348838,2.4572261016926737
4.345514950166113,2.549555057780887
4.365448504983389,2.6413788286794184
4.385382059800665,2.7324062867464285
4.40531561461794,2.8223745293737696
4.425249169435216,2.911044936743158
4.445182724252492,2.9981998862685297
4.465116279069767,3.083640021033893
4.485049833887043,3.1671819815312445
4.50498338870432,3.248656522727091
4.524916943521594,3.327906950569639
4.544850498338871,3.4047878228773722
4.5647840531561465,3.4791638689255158
4.584717607973422,3.550909089992111
4.604651162790698,3.619906009764986
4.624584717607974,3.6860450490094148
4.644518272425249,3.7492240034235627
4.664451827242526,3.8093476073244976
4.6843853820598005,3.8663271688513574
4.704318936877076,3.920080264864854
4.724252491694353,3.9705304857649253
4.7441860465116275,4.01760722212369
4.764119601328904,4.061245486409106
4.78405315614618,4.101385764209719
4.803986710963455,4.137973890310309
4.823920265780731,4.170960945747683
4.8438538205980075,4.200303172625697
4.863787375415282,4.2259619040137615
4.883720930232559,4.247903506712546
4.9036544850498345,4.266099335061981
4.92358803986711,4.280525694301752
4.943521594684386,4.291163812286081
4.963455149501661,4.297999818610846
4.983388704318937,4.301024730440223
5.003322259136213,4.30023444452958
5.023255813953488,4.295629735136068
5.043189368770764,4.287216257694989
5.063122923588041,4.275004558323314
5.083056478405315,4.259010089396024
5.102990033222592,4.239253231632917
5.122923588039868,4.215759323336835
5.142857142857143,4.188558697645887
5.162790697674419,4.157686728908398
5.182724252491695,4.123183889566964
5.20265780730897,4.085095819256996
5.222591362126246,4.043473408194608
5.242524916943522,3.9983728973619135
5.262458471760797,3.949855998509739
5.282392026578074,3.8979900376065237
5.3023255813953485,3.842848126090185
5.322259136212625,3.7845093651553037
5.342192691029901,3.723059089363594
5.362126245847176,3.6585891571447657
5.382059800664452,3.5911982973067684
5.4019933554817285,3.5209925225632035
5.421926910299003,3.4480856233867843
5.44186046511628,3.372599758303821
5.4617940199335555,3.294666160165615
5.48172757475083,3.214425982097697
5.501661129568107,3.132031311884377
5.5215946843853825,3.047646389653329
5.541528239202658,2.961449071043353
5.561461794019934,2.8736325866996917
5.5813953488372094,2.7844076589986884
5.601328903654485,2.6940050482386333
5.621262458471762,2.6026786126928942
5.641196013289036,2.510708978843711
5.661129568106313,2.4184079276791475
5.681063122923589,2.3261236062374944
5.700996677740864,2.234246663824971
5.72093023255814,2.143217378188821
5.740863787375416,2.0535337603464145
5.760797342192691,1.9657604804161775
5.780730897009967,1.8805382020721724
5.800664451827243,1.798592501382847
5.820598006644518,1.7207409273215657
5.840531561461795,1.6478959131879116
5.8604651162790695,1.5810602314633386
5.880398671096346,1.5213107382801059
5.900332225913622,1.4697658025346252
5.920265780730897,1.427532895277598
5.940199335548173,1.3956362314243376
5.960132890365449,1.3749303874167038
5.980066445182724,1.3660131443566288
6.0,1.3691561056312027
6.0199335548172765,1.3842709406458258
6.039867109634551,1.4109208141669802
6.059800664451828,1.448373681958104
6.0797342192691035,1.4956828872642158
6.099667774086379,1.5517759251197942
6.119601328903655,1.6155349630704832
6.139534883720931,1.6858595252561388
6.159468438538206,1.7617087161016232
6.179401993355482,1.8421251242646735
6.1993355481727574,1.926244700792217
6.219269102990033,2.013297153288775
6.23920265780731,2.102600665443626
6.259136212624584,2.1935537266838065
6.279069767441861,2.285625909925676
6.299003322259137,2.3783487026050794
6.318936877076412,2.471306987007056
6.338870431893688,2.5641314393558123
6.3588039867109645,2.6564919221615217
6.378737541528239,2.7480918368735043
6.398671096345516,2.838663351192268
6.418604651162791,2.9279633951015573
6.438538205980066,3.0157703174311257
6.458471760797343,3.101881101736289
6.4784053156146175,3.1861090513005603
6.498338870431894,3.2682818652304406
6.51827242524917,3.348240039394858
6.538205980066445,3.42583553664885
6.558139534883721,3.500930680110982
6.578073089700998,3.5733972312163864
6.598006644518272,3.6431156209423845
6.617940199335549,3.7099743081507155
6.6378737541528245,3.7738692435705614
6.6578073089701,3.8347034217135163
6.677740863787376,3.8923865061036103
6.6976744186046515,3.946834515741122
6.717607973421927,3.997969562799578
6.737541528239203,4.045719633263967
6.7574750830564785,4.090018403624331
6.777408637873754,4.130805087898921
6.797342192691031,4.168024310220707
6.8172757475083055,4.201625999018438
6.837209302325582,4.231565299488155
6.857142857142858,4.257802501608825
6.877076411960133,4.280302981426411
6.897009966777409,4.299037153730855
6.9169435215946855,4.313980434593787
6.93687707641196,4.32511321253295
6.956810631229236,4.332420827331399
6.9767441860465125,4.335893555774065
6.996677740863787,4.335526603777582
7.016611295681064,4.33132010458858
7.036544850498339,4.323279122915364
7.056478405315615,4.311413665044114
7.076411960132891,4.295738695178397
7.096345514950166,4.276274158434642
7.116279069767442,4.253045011132376
7.136212624584719,4.226081259241456
7.156146179401993,4.195418006096847
7.17607973421927,4.161095510770833
7.196013289036546,4.123159258813162
7.21594684385382,4.0816600474403
7.235880398671097,4.036654087689211
7.2558139534883725,3.988203126563468
7.275747508305648,3.936374592807653
7.295681063122924,3.881241770673291
7.3156146179402,3.822884006911498
7.335548172757475,3.761386957279356
7.355481727574752,3.6968428801173214
7.3754152823920265,3.629350986095896
7.395348837209303,3.55901785510051
7.415282392026579,3.4859579334993698
7.435215946843854,3.4102941278081276
7.45514950166113,3.3321585141342354
7.475083056478406,3.2516931868752303
7.495016611295681,3.1690512750986666
7.514950166112956,3.0843981609958804
7.5348837209302335,2.997912941922355
7.554817275747508,2.9097901859281188
7.574750830564784,2.8202420403719755
7.5946843853820605,2.729500764056541
7.614617940199336,2.6378217648336078
7.634551495016611,2.545487235722326
7.6544850498338874,2.452810491124495
7.674418604651163,2.360141106842121
7.694352159468439,2.2678709566353183
7.714285714285715,2.1764412029997198
7.73421926910299,2.086350223306098
7.754152823920266,1.998162308332854
7.774086378737542,1.912516722036926
7.794019933554818,1.8301363135551474
7.813953488372093,1.7518342794752098
7.83388704318937,1.6785168668905925
7.853820598006645,1.611178845606234
7.8737541528239205,1.5508876871957553
7.893687707641197,1.4987520596164277
7.913621262458472,1.4558712556570483
7.9335548172757475,1.4232653629465455
7.953488372093024,1.401791630586283
7.9734219269103,1.3920594151812034
7.9933554817275745,1.394361266964121
8.013289036544851,1.4086374258031475
8.033222591362128,1.4344835600260817
8.053156146179402,1.471199527491443
8.073089700996679,1.517865962391084
8.093023255813954,1.5734305226200376
8.11295681063123,1.6367876299708952
8.132890365448505,1.7068417589388358
8.152823920265782,1.7825510528357396
8.172757475083056,1.8629528615869166
8.192691029900331,1.9471751355944618
8.21262458471761,2.0344380474893557
8.232558139534884,2.1240496142850027
8.252491694352159,2.2153981391776574
8.272425249169435,2.3079433720595057
8.292358803986712,2.4012075564291444
8.312292358803987,2.4947670116081757
8.332225913621263,2.588244560128689
8.352159468438538,2.6813029036730667
8.372093023255815,2.773638934273938
8.392026578073091,2.8649789079600536
8.411960132890366,2.9550743829491704
8.43189368770764,3.043698818999488
8.451827242524917,3.1306447393847403
8.471760797342194,3.2157213666289493
8.491694352159469,3.298752654468847
8.511627906976745,3.3795756498043596
8.53156146179402,3.4580391288110732
8.551495016611296,3.5340024605816196
8.571428571428573,3.6073346595616167
8.591362126245848,3.677913594715551
8.611295681063122,3.745625328928125
8.6312292358804,3.810363566761881
8.651162790697676,3.872029192501287
8.67109634551495,3.930529883547085
8.691029900332227,3.985779786801094
8.710963455149502,4.037699247799312
8.730897009966778,4.086214584092985
8.750830564784053,4.1312578958130715
8.77076411960133,4.17276690753905
8.790697674418604,4.210684836574951
8.81063122923588,4.244960283552238
8.830564784053157,4.275547141960316
8.850498338870432,4.3024045237774935
8.870431893687707,4.325496698858359
8.890365448504983,4.344793046143927
8.91029900332226,4.360268015113796
8.930232558139535,4.371901096205517
8.950166112956811,4.379676799195616
8.970099667774086,4.383584638776852
8.990033222591363,4.3836191267862805
9.00996677740864,4.3797797707414015
9.029900332225914,4.372071078537325
9.049833887043189,4.3605025693472355
9.069767441860467,4.345088790960679
9.089700996677742,4.325849343991435
9.109634551495017,4.302808913596617
9.129568106312293,4.2759973095757315
9.14950166112957,4.245449515969975
9.169435215946844,4.2112057515654095
9.189368770764121,4.1733115430270855
9.209302325581396,4.131817812766137
9.22923588039867,4.086780984079012
9.249169435215949,4.03826310661393
9.269102990033224,3.986332005830823
9.289036544850498,3.9310614608506733
9.308970099667773,3.872531415963707
9.328903654485051,3.8108282321176628
9.348837209302326,3.7460449859755673
9.368770764119601,3.678281825667337
9.388704318936878,3.607646394219552
9.408637873754152,3.534254333904774
9.428571428571429,3.4582298874914352
9.448504983388705,3.3797066156982867
9.46843853820598,3.2988282541809237
9.488372093023255,3.2157497382299267
9.508305647840533,3.130638429178581
9.528239202657808,3.043675583428312
9.548172757475083,2.9550581130920057
9.56810631229236,2.865000696526988
9.588039867109636,2.7737383072912136
9.60797342192691,2.6815292407762548
9.627906976744187,2.5886587278026942
9.647840531561462,2.495443231627934
9.667774086378738,2.4022355252227774
9.687707641196015,2.3094306327173153
9.70764119601329,2.217472681839202
9.727574750830565,2.12686263617381
9.747508305647841,2.0381667322846195
9.767441860465118,1.9520252028559417
9.787375415282392,1.869160481052081
9.807308970099669,1.790383512825109
9.827242524916944,1.7165960388698152
9.84717607973422,1.64878580838709
9.867109634551497,1.5880108698676314
9.887043189368772,1.535368808148983
9.906976744186046,1.4919477764262774
9.926910299003321,1.4587591699538052
9.9468438538206,1.436657050222986
9.966777408637874,1.426255885063761
9.986710963455149,1.4278630773246137
10.006644518272426,1.441442707380957
10.026578073089702,1.4666202687911376
10.046511627906977,1.5027270545906446
10.066445182724253,1.5488723706414047
10.086378737541528,1.6040265817967425
10.106312292358805,1.667099333987663
10.126245847176081,1.7370028569176093
10.146179401993356,1.8126966098762076
10.16611295681063,1.8932143038342892
10.186046511627907,1.9776768133913376
10.205980066445184,2.0652951137516955
10.225913621262459,2.1553669267304896
10.245847176079735,2.2472698972320453
10.26578073089701,2.3404532440356545
10.285714285714286,2.4344291092798263
10.305647840531563,2.5287643084964935
10.325581395348838,2.6230728341928744
10.345514950166113,2.717009248795963
10.36544850498339,2.8102629767573135
10.385382059800666,2.902553438763653
10.40531561461794,2.9936259405234535
10.425249169435217,3.0832482193131194
10.445182724252492,3.171207553733217
10.465116279069768,3.257308350081209
10.485049833887045,3.3413701289720654
10.50498338870432,3.4232258464354395
10.524916943521594,3.502720493711608
10.544850498338871,3.5797099289194954
10.564784053156147,3.654059901541564
10.584717607973422,3.7256452372847155
10.604651162790697,3.7943491564332956
10.624584717607974,3.860062703438869
10.64451827242525,3.9226842693260977
10.664451827242525,3.9821191916605105
10.684385382059801,4.038279419434265
10.704318936877076,4.091083232376995
10.724252491694353,4.140455005972537
10.74418604651163,4.186325014926229
10.764119601328904,4.22862926903915
10.784053156146179,4.267309376450316
10.803986710963457,4.302312430044421
10.823920265780732,4.333590913521675
