Frequency (Hz),Amplitude
0.0,0.14283084428974924
0.01978021978021978,0.22806938502379973
0.03956043956043956,0.38306184763612033
0.05934065934065934,0.5515347656044062
0.07912087912087912,0.7237123026410832
0.0989010989010989,0.8969839228099846
0.11868131868131868,1.0703031969554044
0.13846153846153844,1.2431113322389669
0.15824175824175823,1.4150404732241848
0.17802197802197803,1.5858102262547948
0.1978021978021978,1.7551852745789167
0.21758241758241756,1.9229558845425738
0.23736263736263735,2.0889281319208983
0.2571428571428572,2.2529186717449705
0.2769230769230769,2.4147517998721346
0.2967032967032967,2.5742577441620638
0.31648351648351647,2.7312716498893543
0.3362637362637363,2.885632974164025
0.35604395604395606,3.0371851300769053
0.3758241758241758,3.185775287940317
0.3956043956043956,3.3312542778168233
0.4153846153846154,3.4734765586476564
0.4351648351648351,3.612300231809892
0.45494505494505494,3.7475870845715744
0.4747252747252747,3.8792026536997533
0.4945054945054945,4.007016302546786
0.5142857142857143,4.130901306951436
0.5340659340659341,4.250734946635919
0.5538461538461538,4.366398599694065
0.5736263736263736,4.47777783839854
0.5934065934065934,4.584762524999397
0.6131868131868132,4.687246906503069
0.6329670329670329,4.78512970765012
0.6527472527472528,4.878314221478007
0.6725274725274726,4.966708396979971
0.6923076923076923,5.050224923464928
0.7120879120879121,5.1287813112953815
0.7318681318681318,5.202299968735235
0.7516483516483516,5.270708274683523
0.7714285714285715,5.33393864710426
0.7912087912087912,5.391928606991152
0.810989010989011,5.444620837728397
0.8307692307692308,5.491963239728607
0.8505494505494506,5.533908980244975
0.8703296703296702,5.570416538269036
0.8901098901098901,5.601449744437926
0.9098901098901099,5.626977815886164
0.9296703296703297,5.6469753859871235
0.9494505494505494,5.661422528938858
0.9692307692307692,5.6703047791576955
0.989010989010989,5.673613145451339
1.0087912087912088,5.671344119951451
1.0285714285714287,5.663499681793437
1.0483516483516484,5.650087295538891
1.0681318681318681,5.6311199043440805
1.087912087912088,5.60661591788534
1.1076923076923075,5.576599195060549
1.1274725274725275,5.541099021493738
1.1472527472527472,5.500150081878626
1.1670329670329669,5.4537924272058
1.1868131868131868,5.402071436927976
1.2065934065934065,5.345037776128348
1.2263736263736265,5.282747347768452
1.2461538461538462,5.215261240105209
1.2659340659340659,5.142645669381533
1.2857142857142858,5.064971917912123
1.3054945054945055,4.982316267706456
1.3252747252747252,4.894759929795178
1.3450549450549452,4.802388969456025
1.3648351648351649,4.705294227572026
1.3846153846153846,4.603571238400856
1.4043956043956045,4.497320144093374
1.4241758241758242,4.386645606375198
1.443956043956044,4.271656715905025
1.4637362637362636,4.15246689995581
1.4835164835164834,4.029193829242587
1.5032967032967033,3.9019593249635656
1.523076923076923,3.770889267455486
1.542857142857143,3.636113508333197
1.5626373626373626,3.497765788649154
1.5824175824175823,3.3559836665690526
1.6021978021978023,3.2109084594683672
1.621978021978022,3.0626852074572595
1.6417582417582417,2.9114626685405374
1.6615384615384616,2.757393360591814
1.6813186813186813,2.600633673228817
1.7010989010989013,2.44134408558274
1.720879120879121,2.2796895476294763
1.7406593406593405,2.1158401203493216
1.7604395604395604,1.949972037639919
1.7802197802197801,1.7822694798805978
1.7999999999999998,1.612927599211792
1.8197802197802198,1.4421578583953014
1.8395604395604395,1.27019790990653
1.8593406593406594,1.09733106469913
1.879120879120879,0.9239279740557609
1.8989010989010988,0.750546284614486
1.9186813186813187,0.5782079085417264
1.9384615384615385,0.40935863819144996
1.9582417582417584,0.252474121207019
1.978021978021978,0.15250050035855786
1.9978021978021978,0.21515394343151453
2.0175824175824175,0.364383122082058
2.0373626373626372,0.5313999945028381
2.0571428571428574,0.7032451596834773
2.076923076923077,0.8766198301870741
2.096703296703297,1.0502631619179745
2.1164835164835165,1.2235306405942616
2.1362637362637362,1.3960138070833985
2.1560439560439564,1.567410491254474
2.175824175824176,1.7374724965382216
2.195604395604396,1.9059818199368377
2.215384615384615,2.0727388312671295
2.2351648351648348,2.2375559845510677
2.254945054945055,2.4002542963083893
2.2747252747252746,2.560661298095569
2.2945054945054943,2.7186098166294816
2.314285714285714,2.8739372391834492
2.3340659340659338,3.026485074155147
2.353846153846154,3.17609869679322
2.3736263736263736,3.32262721408972
2.3934065934065933,3.4659234079791688
2.413186813186813,3.6058437308236466
2.4329670329670328,3.742248336187264
2.452747252747253,3.8750011335382255
2.4725274725274726,4.003969859120911
2.4923076923076923,4.12902615759506
2.512087912087912,4.250045670609088
2.5318681318681318,4.366908129539823
2.5516483516483515,4.479497450365836
2.5714285714285716,4.587701829157419
2.5912087912087913,4.691413837032372
2.610989010989011,4.790530513691845
2.6307692307692307,4.884953458843262
2.6505494505494505,4.974588920961377
2.6703296703296706,5.059347882945662
2.6901098901098903,5.139146144314183
2.70989010989011,5.2139043996372605
2.7296703296703297,5.283548312963646
2.7494505494505495,5.348008588030688
2.769230769230769,5.407221034081806
2.7890109890109893,5.461126627140096
2.808791208791209,5.509671566608273
2.8285714285714287,5.552807327083331
2.8483516483516484,5.590490705289633
2.8681318681318677,5.622683862047896
2.887912087912088,5.6493543592096005
2.9076923076923076,5.670475191497053
2.9274725274725273,5.686024813199824
2.947252747252747,5.695987159687374
2.9670329670329667,5.700351663706639
2.986813186813187,5.699113266442125
3.0065934065934066,5.692272423324277
3.0263736263736263,5.679835104580296
3.046153846153846,5.661812790529767
3.0659340659340657,5.638222461635912
3.085714285714286,5.609086583331999
3.1054945054945056,5.574433085651203
3.1252747252747253,5.534295337697894
3.145054945054945,5.4887121170081725
3.1648351648351647,5.437727573858682
3.184615384615385,5.381391190594449
3.2043956043956046,5.319757736060297
3.2241758241758243,5.2528872152352495
3.243956043956044,5.18084481418747
3.2637362637362637,5.103700840487534
3.2835164835164834,5.021530659242635
3.3032967032967036,4.934414624944359
3.3230769230769233,4.842438009358938
3.342857142857143,4.745690925734899
3.3626373626373627,4.644268249660366
3.3824175824175824,4.538269536976286
3.4021978021978025,4.427798939247272
3.4219780219780223,4.312965117417321
3.441758241758242,4.19388115444414
3.4615384615384617,4.070664467930139
3.481318681318681,3.9434367240732193
3.501098901098901,3.8123237546815867
3.520879120879121,3.6774554795858787
3.5406593406593405,3.5389658376165976
3.5604395604395602,3.396992730517426
3.58021978021978,3.251677985923468
3.5999999999999996,3.103167348152063
3.61978021978022,2.951610509525614
3.6395604395604395,2.797161201096785
3.659340659340659,2.6399773713920354
3.679120879120879,2.480221497622231
3.6989010989010986,2.31806110026686
3.718681318681319,2.1536695775688655
3.7384615384615385,1.987227558039857
3.758241758241758,1.8189251209494819
3.7780219780219784,1.6489655312306686
3.7978021978021976,1.4775717467031404
3.8175824175824173,1.304998301777043
3.8373626373626375,1.1315543780892994
3.8571428571428568,0.9576522823583341
3.876923076923077,0.7839204583854177
3.896703296703296,0.6115064889286985
3.916483516483517,0.4430644788204345
3.936263736263736,0.28699049881953526
3.956043956043956,0.18054572438085878
3.9758241758241755,0.21734307214661572
3.9956043956043956,0.35533990765300877
4.015384615384615,0.5190453857770988
4.035164835164835,0.6900267437318627
4.054945054945055,0.8635256713742454
4.0747252747252745,1.0377878858431666
4.094505494505494,1.2119618451255296
4.114285714285715,1.3855377738690087
4.134065934065934,1.558157963031969
4.153846153846154,1.7295409635394605
4.173626373626373,1.8994473742017939
4.193406593406594,2.067662921529778
4.213186813186813,2.2339894822553643
4.232967032967033,2.3982400543748525
4.252747252747253,2.5602358211958274
4.2725274725274724,2.719804385250877
4.292307692307692,2.876778685795386
4.312087912087913,3.0309963310148014
4.331868131868132,3.182299189955787
4.351648351648352,3.3305331515489645
4.371428571428571,3.4755479935660865
4.391208791208792,3.6171973252310123
4.410989010989011,3.7553385798623955
4.43076923076923,3.889833041809563
4.450549450549451,4.02054589697213
4.4703296703296695,4.1473462994726615
4.49010989010989,4.270107449231997
4.50989010989011,4.388706676673281
4.52967032967033,4.503025531797588
4.549450549450549,4.612949875584969
4.569230769230769,4.718369972179617
4.589010989010989,4.819180580680802
4.608791208791209,4.915281045626207
4.628571428571428,5.006575385449566
4.648351648351649,5.092972378341008
4.6681318681318675,5.1743856450488375
4.687912087912088,5.250733728246576
4.707692307692308,5.321940168154789
4.7274725274725276,5.387933574159071
4.747252747252747,5.448647692206816
4.767032967032967,5.504021467798839
4.786813186813187,5.553999104419257
4.806593406593407,5.598530117270068
4.826373626373626,5.6375693821959825
4.846153846153847,5.671077179702147
4.8659340659340655,5.699019233981688
4.885714285714286,5.721366746883483
4.905494505494506,5.738096426762204
4.9252747252747255,5.7491905121638744
4.945054945054945,5.754636790310501
4.964835164835165,5.754428610357204
4.984615384615385,5.748564891405136
5.004395604395604,5.737050125262789
5.024175824175824,5.719894373957968
5.043956043956045,5.697113262012471
5.0637362637362635,5.668727963501619
5.083516483516483,5.634765183931328
5.103296703296703,5.595257136976808
5.123076923076923,5.550241516139086
5.142857142857143,5.499761461389291
5.162637362637362,5.443865520885534
5.182417582417583,5.382607607864426
5.2021978021978015,5.316046952829243
5.221978021978022,5.2442480511797
5.241758241758242,5.167280606456212
5.2615384615384615,5.085219469404674
5.281318681318681,4.998144573108565
5.301098901098901,4.906140864485887
5.320879120879121,4.809298232511664
5.340659340659341,4.707711433607487
5.36043956043956,4.601480014742843
5.380219780219781,4.4907082349280385
5.3999999999999995,4.375504985954904
5.41978021978022,4.255983713477337
5.43956043956044,4.132262339840154
5.4593406593406595,4.004463190495878
5.479120879120879,3.872712926443403
5.498901098901099,3.7371424859523668
5.518681318681319,3.597887040011582
5.538461538461538,3.4550859676275762
5.558241758241758,3.308882859561459
5.578021978021979,3.1594255627469865
5.5978021978021975,3.0068662831574695
5.617582417582418,2.851361773412784
5.637362637362637,2.6930736448612196
5.6571428571428575,2.5321688656042154
5.676923076923077,2.368820542040714
5.696703296703297,2.20320914337145
5.716483516483517,2.035524438230905
5.736263736263735,1.865968615077295
5.756043956043956,1.6947614488876233
5.775824175824176,1.522149172355973
5.795604395604395,1.3484204328184675
5.815384615384615,1.1739367338998556
5.835164835164835,0.999195008596144
5.854945054945055,0.8249691678544244
5.874725274725275,0.6526730514668093
5.894505494505494,0.4854596363295978
5.914285714285715,0.33233309757690666
5.934065934065933,0.22550764187566905
5.953846153846154,0.23913898760004068
5.973626373626374,0.359831512607898
5.993406593406593,0.517204354608847
6.013186813186813,0.6861243696997213
6.032967032967033,0.859380686271297
6.052747252747253,1.0343159069495602
6.072527472527473,1.209686988295754
6.092307692307692,1.384789724141638
6.112087912087913,1.5591591679705032
6.131868131868131,1.7324496257700381
6.151648351648352,1.904380517109933
6.171428571428572,2.0747096204578286
6.191208791208791,2.2432188759188927
6.210989010989011,2.4097064162891173
6.230769230769231,2.5739818916000585
6.2505494505494505,2.7358636303564885
6.270329670329671,2.89517687191711
6.29010989010989,3.051752647762422
6.309890109890111,3.2054270688376043
6.329670329670329,3.356040874189977
6.349450549450549,3.503439151777687
6.36923076923077,3.6474711750132216
6.3890109890109885,3.787990318386996
6.408791208791209,3.9248540278132804
6.428571428571428,4.057923829171385
6.4483516483516485,4.1870653636112465
6.468131868131868,4.312148441576136
6.487912087912088,4.433047109782137
6.507692307692308,4.54963972696659
6.527472527472527,4.661809045315046
6.547252747252747,4.769442295254053
6.567032967032967,4.872431271854895
6.5868131868131865,4.970672421499531
6.606593406593407,5.06406692775863
6.626373626373626,5.152520795654378
6.6461538461538465,5.235944933648119
6.665934065934065,5.314255232821251
6.685714285714286,5.387372642815962
6.705494505494506,5.4552232441796535
6.725274725274725,5.517738316817499
6.745054945054945,5.5748544043063095
6.764835164835165,5.6265133738622
6.7846153846153845,5.672662471786961
6.804395604395605,5.713254374245207
6.824175824175824,5.7482472332471195
6.8439560439560445,5.7776047177314345
6.863736263736263,5.801296049660877
6.883516483516484,5.819296035057382
6.903296703296704,5.831585089918999
6.923076923076923,5.83814926097324
6.942857142857143,5.8389802412342
6.962637362637362,5.834075380342723
6.9824175824175825,5.823437689680902
7.002197802197802,5.807075842263863
7.021978021978022,5.785004167424179
7.041758241758242,5.7572426403168
7.061538461538461,5.723816866286034
7.081318681318681,5.6847580601504655
7.101098901098901,5.640103020478039
7.1208791208791204,5.589894098941161
7.140659340659341,5.534179164862392
7.16043956043956,5.473011565084579
7.1802197802197805,5.406450079327119
7.199999999999999,5.334558871222681
7.21978021978022,5.257407435268423
7.23956043956044,5.175070539973754
7.259340659340659,5.087628167546364
7.279120879120879,4.995165450532394
7.298901098901099,4.897772605920535
7.318681318681318,4.795544867339425
7.338461538461539,4.688582416131961
7.358241758241758,4.576990312291257
7.3780219780219785,4.460878426507486
7.397802197802197,4.3403613749268475
7.417582417582418,4.215558458697618
7.437362637362638,4.0865936110222885
7.457142857142857,3.9535953553215375
7.476923076923077,3.8166967793518527
7.496703296703297,3.676035531864578
7.516483516483516,3.531753850895095
7.536263736263736,3.3839986364099075
7.556043956043957,3.232921585420828
7.575824175824176,3.0786794157793156
7.595604395604395,2.9214342173094785
7.615384615384615,2.761353988467584
7.635164835164835,2.5986134481025296
7.654945054945055,2.4333952636869713
7.674725274725275,2.26589192543274
7.694505494505494,2.0963086504330706
7.7142857142857135,1.924867983352562
7.734065934065935,1.751817298229289
7.753846153846154,1.577441483367772
7.7736263736263735,1.4020853772529458
7.793406593406592,1.2261957148949507
7.813186813186814,1.050405126217628
7.832967032967034,0.8757153927566264
7.852747252747252,0.7039426161709311
7.872527472527472,0.538951659785558
7.892307692307693,0.39059374163089244
7.912087912087912,0.28712456107787626
7.931868131868132,0.28364686288296176
7.951648351648351,0.38300970606160745
7.971428571428572,0.5300781704611419
7.991208791208791,0.6948861902497162
8.010989010989011,0.8669683509126271
8.03076923076923,1.0422605577080208
8.05054945054945,1.2188716294262931
8.07032967032967,1.3957665279113962
8.09010989010989,1.5722954850493491
8.10989010989011,1.7480015366052732
8.129670329670331,1.92253280333061
8.149450549450549,2.0955988866694306
8.169230769230769,2.2669476330313
8.189010989010988,2.4363520376024947
8.20879120879121,2.6036025200347375
8.22857142857143,2.7685021986504244
8.248351648351647,2.930863914118523
8.268131868131867,3.0905083132476046
8.287912087912087,3.2472625964818125
8.307692307692308,3.4009596928199097
8.327472527472528,3.5514377168064026
8.347252747252746,3.698539615637436
8.367032967032966,3.842112946725322
8.386813186813187,3.982009746134685
8.406593406593407,4.118086461074766
8.426373626373627,4.2502039279389425
8.446153846153845,4.378227382892174
8.465934065934066,4.502026495728603
8.485714285714286,4.6214754202775525
8.505494505494505,4.736452856417928
8.525274725274725,4.846842120022394
8.545054945054945,4.952531218055789
8.564835164835165,5.053412926708991
8.584615384615384,5.149384870930836
8.604395604395604,5.240349604079173
8.624175824175826,5.326214686680836
8.643956043956043,5.406892763494846
8.663736263736263,5.482301638229609
8.683516483516483,5.55236434538668
8.703296703296704,5.617009218798894
8.723076923076924,5.676169956506252
8.742857142857142,5.729785681673604
8.762637362637362,5.777800999303478
8.782417582417583,5.82016604853789
8.802197802197803,5.856836550376958
8.821978021978023,5.887773850670822
8.84175824175824,5.912944958266223
8.86153846153846,5.932322578210921
8.881318681318682,5.94588513993867
8.901098901098901,5.953616820375405
8.920879120879121,5.955507561924093
8.940659340659339,5.951553085301685
8.96043956043956,5.941754897217407
8.98021978021978,5.9261202928974175
9.0,5.904662353476963
9.01978021978022,5.877399938298234
9.03956043956044,5.84435767217028
9.05934065934066,5.805565927667305
9.079120879120879,5.761060802563577
9.098901098901099,5.710884092528674
9.11868131868132,5.6550832592353055
9.138461538461538,5.593711394066094
9.158241758241758,5.526827177645503
9.178021978021977,5.4544948354715155
9.197802197802199,5.376784089979854
9.217582417582419,5.293770109445759
9.237362637362637,5.205533454217284
9.257142857142856,5.112160020886324
9.276923076923078,5.013740985145336
9.296703296703297,4.910372744259508
9.316483516483517,4.8021568603180755
9.336263736263735,4.689200005734831
9.356043956043957,4.571613912869697
9.375824175824176,4.44951533017901
9.395604395604396,4.323025988020855
9.415384615384616,4.192272578219072
9.435164835164835,4.057386752831098
9.454945054945055,3.918505149431458
9.474725274725275,3.7757694528505126
9.494505494505495,3.6293265070620544
9.514285714285714,3.4793284963530664
9.534065934065934,3.3259332229212943
9.553846153846154,3.169304520053515
9.573626373626373,3.009612858377485
9.593406593406593,2.8470362312823245
9.613186813186815,2.6817614512419197
9.632967032967032,2.513986063473347
9.652747252747252,2.343921209116524
9.672527472527472,2.1717959886133835
9.692307692307693,1.997864269299522
9.712087912087913,1.8224156183257327
9.731868131868131,1.6457934879826381
9.75164835164835,1.4684267694548376
9.771428571428572,1.2908873926765325
9.791208791208792,1.1140020842967628
9.810989010989012,0.9390856446267968
9.83076923076923,0.7684715405756215
9.850549450549451,0.6068361965265983
9.87032967032967,0.46472154011840155
9.89010989010989,0.36660773525617235
9.90989010989011,0.3521122232649306
9.92967032967033,0.4299529979729856
9.94945054945055,0.5629376548048021
9.96923076923077,0.7208942949304976
9.989010989010989,0.890246135352387
10.008791208791209,1.0651200169309805
10.028571428571428,1.2426891704321053
10.048351648351648,1.4214139670974812
10.068131868131868,1.6003544697455414
10.08791208791209,1.7788762901743773
10.107692307692307,1.9565130046563144
10.127472527472527,2.1328966582265485
10.147252747252747,2.3077203295894617
10.167032967032966,2.480716857789527
10.186813186813188,2.651646203234343
10.206593406593406,2.8202876561053922
10.226373626373626,2.9864348845579216
10.246153846153845,3.149892709003938
10.265934065934067,3.3104749597040164
10.285714285714286,3.4680030335583014
10.305494505494504,3.622304913384099
10.325274725274724,3.7732144997451336
10.345054945054946,3.9205711579977596
10.364835164835165,4.064219415946948
10.384615384615385,4.204008768354399
10.404395604395603,4.339793558110996
10.424175824175824,4.471432912891549
10.443956043956044,4.598790722193877
10.463736263736264,4.721735643843552
10.483516483516484,4.8401411319589025
10.503296703296703,4.953885480431719
10.523076923076923,5.062851877455382
10.542857142857143,5.166928467702985
10.562637362637362,5.266008419544054
10.582417582417584,5.359989995271279
10.602197802197802,5.4487766227462275
10.621978021978022,5.53227696720374
10.641758241758241,5.610405002208524
10.661538461538463,5.68308007895305
10.681318681318682,5.7502269932384396
10.7010989010989,5.811776049600989
10.72087912087912,5.867663122142431
10.740659340659342,5.917829711699595
10.760439560439561,5.962222999052177
