Time (s),Filtered Signal
0.0,-0.009047685022585985
0.03337004405286344,-0.11557899849186458
0.06674008810572687,-0.22864816055684814
0.10011013215859031,-0.3378045109670968
0.13348017621145375,-0.4121827260602077
0.16685022026431717,-0.4157011238748058
0.20022026431718062,-0.33104413020249657
0.23359030837004408,-0.1757915780139163
0.2669603524229075,0.0015046660257046895
0.3003303964757709,0.1443094142728543
0.33370044052863435,0.21628066131004492
0.3670704845814978,0.21715781436990805
0.40044052863436125,0.17707698261676635
0.43381057268722467,0.13420802431734066
0.46718061674008815,0.11096792257159523
0.5005506607929515,0.1038750876079004
0.533920704845815,0.09219205655319966
0.5672907488986785,0.05805163352606406
0.6006607929515418,0.003929571321944865
0.6340308370044053,-0.04413801563469383
0.6674008810572687,-0.04974294099146501
0.7007709251101322,0.012211225531595739
0.7341409691629956,0.13802491559725844
0.767511013215859,0.2919568564073404
0.8008810572687225,0.41933009827772005
0.834251101321586,0.4695667698074492
0.8676211453744493,0.41794284880951876
0.9009911894273128,0.27582198143644826
0.9343612334801763,0.08496464311546346
0.9677312775330397,-0.10078648063188844
1.001101321585903,-0.23727845943714154
1.0344713656387665,-0.3049126856616531
1.06784140969163,-0.3103128348854686
1.1012114537444935,-0.27576378725122075
1.134581497797357,-0.22392782012788998
1.1679515418502202,-0.16747242982668695
1.2013215859030837,-0.10958900942036993
1.2346916299559472,-0.053902973467983326
1.2680616740088106,-0.015430885050635145
1.3014317180616741,-0.022509251163395232
1.3348017621145374,-0.10469582988857333
1.3681718061674009,-0.2710470102643639
1.4015418502202643,-0.4913365555957553
1.4349118942731278,-0.6941745409965905
1.4682819383259913,-0.788590214239328
1.5016519823788548,-0.7026851947806121
1.535022026431718,-0.4216137371441254
1.5683920704845815,-0.004529620310518205
1.601762114537445,0.4311366210472112
1.6351321585903085,0.7536058215625935
1.668502202643172,0.8695457759081014
1.7018722466960352,0.7610839367722624
1.7352422907488987,0.48981392269212826
1.7686123348017622,0.1668629602417009
1.8019823788546256,-0.09549436505571005
1.8353524229074891,-0.22727397857203951
1.8687224669603526,-0.2201680934838406
1.9020925110132159,-0.11723899835669678
1.9354625550660793,0.017802784099384933
1.9688325991189428,0.1338737827689484
2.002202643171806,0.21187630320886655
2.0355726872246698,0.2630965049632276
2.068942731277533,0.3112542358515188
2.1023127753303967,0.3705533734708257
2.13568281938326,0.43255886424691886
2.1690528634361232,0.46864247617830473
2.202422907488987,0.44584640641731227
2.23579295154185,0.3469023628800935
2.269162995594714,0.18311126848493736
2.302533039647577,-0.007404273159869743
2.3359030837004404,-0.1758834316188246
2.369273127753304,-0.2856474171686226
2.4026431718061674,-0.32967988984386326
2.436013215859031,-0.3335940112475518
2.4693832599118943,-0.34168473758480644
2.5027533039647576,-0.3923387353450815
2.5361233480176213,-0.4947949773726065
2.5694933920704845,-0.6192640680020427
2.6028634361233483,-0.7065441859057303
2.6362334801762115,-0.6940694645378837
2.6696035242290748,-0.5470205494609687
2.7029735682819385,-0.27978829797622556
2.7363436123348017,0.04332372373809962
2.7697136563876654,0.3300378666419248
2.8030837004405287,0.49589070738469065
2.8364537444933924,0.49819659551104956
2.8698237885462556,0.3530185637508438
2.903193832599119,0.12779028535268772
2.9365638766519826,-0.08658287671645068
2.969933920704846,-0.21142834743606193
3.0033039647577096,-0.2086935218366174
3.036674008810573,-0.0914193121269717
3.070044052863436,0.08590925015269309
3.1034140969162998,0.251414341310316
3.136784140969163,0.3441135194317314
3.1701541850220267,0.3360181378276692
3.20352422907489,0.24059961045690142
3.2368942731277532,0.10509838574430692
3.270264317180617,-0.010180970664596393
3.30363436123348,-0.057448591302905784
3.337004405286344,-0.021328444734765542
3.370374449339207,0.07565418679654691
3.4037444933920704,0.18467007861589527
3.437114537444934,0.2540346455566306
3.4704845814977974,0.2534199316194874
3.503854625550661,0.1871807830811246
3.5372246696035243,0.09042987138272902
3.5705947136563876,0.010028041702608194
3.6039647577092513,-0.0198986513974717
3.6373348017621145,0.004324005047932794
3.6707048458149782,0.05378005294172739
3.7040748898678415,0.08151563598032364
3.737444933920705,0.046748887812426095
3.7708149779735685,-0.06293569551645242
3.8041850220264317,-0.22209541495262092
3.8375550660792954,-0.3753802378220028
3.8709251101321587,-0.4597138890983342
3.9042951541850224,-0.43119350427971453
3.9376651982378856,-0.2851808347578099
3.971035242290749,-0.06092118122539612
4.004405286343612,0.17162964821520327
4.037775330396476,0.3378490782646071
4.0711453744493395,0.38706276270001405
4.104515418502203,0.31200988669304824
4.137885462555066,0.15076420211904631
4.171255506607929,-0.030169297801237806
4.2046255506607935,-0.16466849082872542
4.237995594713657,-0.21515623355702035
4.27136563876652,-0.18736309852172378
4.304735682819383,-0.12478867394458544
4.3381057268722465,-0.08540351863938658
4.371475770925111,-0.11170175926368796
4.404845814977974,-0.20858060205282022
4.438215859030837,-0.33980805878421555
4.4715859030837,-0.44473626792505827
4.504955947136564,-0.46696227231527193
4.538325991189428,-0.3809085135989189
4.571696035242291,-0.20368551140549868
4.605066079295154,0.01278395790311372
4.638436123348018,0.20469743913305
4.671806167400881,0.3228946676739329
4.705176211453745,0.35076503938581804
4.738546255506608,0.30645984673076754
4.7719162995594715,0.2302600985751041
4.805286343612335,0.16461418929347535
4.838656387665198,0.13672377000355224
4.872026431718062,0.15096047375071492
4.905396475770925,0.19265670254544884
4.938766519823789,0.23916396535386986
4.972136563876652,0.27141546604459404
5.005506607929515,0.2805402712203279
5.038876651982379,0.2679288232159458
5.072246696035243,0.24082865164262746
5.105616740088106,0.20701245921858014
5.138986784140969,0.17119313835048366
5.172356828193832,0.1340552778735581
5.2057268722466965,0.09344731172213669
5.23909691629956,0.04681142010254532
5.272466960352423,-0.0061557012987461
5.305837004405286,-0.06173291217563016
5.3392070484581495,-0.11236666416411811
5.372577092511014,-0.14920967257308093
5.405947136563877,-0.1660751766393377
5.43931718061674,-0.16271048451757406
5.4726872246696034,-0.1452919830366792
5.506057268722468,-0.12353708748572186
5.539427312775331,-0.10601644116962834
5.572797356828194,-0.09665958225661882
5.606167400881057,-0.09496044761699196
5.639537444933921,-0.10005543998973893
5.672907488986785,-0.11595322114992437
5.706277533039648,-0.1535979332225169
5.739647577092511,-0.2265222638160129
5.7730176211453745,-0.3405329169188803
5.806387665198238,-0.48236172157067914
5.839757709251102,-0.6147129838780363
5.873127753303965,-0.6834809788406101
5.9064977973568284,-0.6371481937302096
5.939867841409692,-0.45117908352067515
5.973237885462555,-0.14569228366075626
6.006607929515419,0.21396829069866058
6.039977973568282,0.5367759752799353
6.073348017621146,0.7387532327566891
6.106718061674009,0.7748407646810309
6.140088105726872,0.6556360452585704
6.173458149779736,0.44165435692325805
6.2068281938325995,0.21805737618626944
6.240198237885463,0.06114451818973251
6.273568281938326,0.010582557751993205
6.306938325991189,0.05790110244311982
6.3403083700440535,0.15453721189702896
6.373678414096917,0.2350436462635605
6.40704845814978,0.24575862714996025
6.440418502202643,0.16769931190913598
6.4737885462555065,0.024805060305216464
6.507158590308371,-0.12593669877274685
6.540528634361234,-0.2190837027740219
6.573898678414097,-0.21050056085018087
6.60726872246696,-0.09971996330540674
6.640638766519824,0.06572305291641665
6.674008810572688,0.20764505443079037
6.707378854625551,0.2503398513498647
6.740748898678414,0.15563267582577273
6.774118942731278,-0.05613871685816039
6.807488986784141,-0.30995409685844066
6.840859030837005,-0.5047601135674203
6.874229074889868,-0.5555339475999925
6.9075991189427315,-0.43062118245346964
6.940969162995595,-0.1675534213523437
6.974339207048458,0.14027632125012152
7.007709251101322,0.3807359315937535
7.041079295154185,0.46787415549557815
7.074449339207049,0.37545710050853964
7.107819383259912,0.14563506085282144
7.141189427312775,-0.1293554057730126
7.174559471365639,-0.34331624198148897
7.207929515418503,-0.4149178871877842
7.241299559471366,-0.3150767580270944
7.274669603524229,-0.0747528962212153
7.308039647577092,0.22738869153327407
7.3414096916299565,0.4918060006445151
7.37477973568282,0.6302084040065906
7.408149779735683,0.5930396927287648
7.441519823788546,0.3841801493555696
7.47488986784141,0.05874788220162557
7.508259911894274,-0.2948178142008947
7.541629955947137,-0.5822860011765398
7.575,-0.7319312786349597
7.608370044052863,-0.7151011383151691
7.641740088105728,-0.5534870742416833
7.675110132158591,-0.3116094273132562
7.708480176211454,-0.07687321588016098
7.741850220264317,0.06751902894245103
7.775220264317181,0.06966063095006764
7.808590308370045,-0.07170136248440116
7.841960352422908,-0.3022051740550632
7.875330396475771,-0.5247765729087818
7.9087004405286345,-0.6287177284960825
7.942070484581498,-0.5274140891346383
7.975440528634362,-0.19258710106220736
8.008810572687224,0.32779099351599467
8.042180616740088,0.9166453116190841
8.075550660792953,1.4203345844245574
8.108920704845815,1.6971032248093014
8.142290748898679,1.6647501692705302
8.175660792951541,1.3295677715652754
8.209030837004406,0.784577277656471
8.24240088105727,0.17654691515602522
8.275770925110132,-0.3461084566087269
8.309140969162996,-0.6840576477183794
8.342511013215859,-0.8158873956277211
8.375881057268723,-0.7935609023381784
8.409251101321587,-0.7076285145522162
8.44262114537445,-0.6389524183274832
8.475991189427313,-0.6198580671356942
8.509361233480176,-0.6230962711407705
8.54273127753304,-0.5836076530778022
8.576101321585904,-0.4419028737077329
8.609471365638766,-0.18655464671629285
8.64284140969163,0.1273413797779599
8.676211453744493,0.39570613083935363
8.709581497797357,0.512690939602879
8.742951541850221,0.42480183144932365
8.776321585903084,0.1636464698654998
8.809691629955948,-0.16158417462233657
8.84306167400881,-0.41050226853650235
8.876431718061674,-0.4748060183317758
8.909801762114538,-0.3270647872843045
8.9431718061674,-0.03089134021054041
8.976541850220265,0.291504176772501
9.009911894273127,0.5166293368600897
9.043281938325991,0.5726563014995633
9.076651982378856,0.463218291774887
9.110022026431718,0.2541397661492626
9.143392070484582,0.03439583200069035
9.176762114537445,-0.126183516978659
9.210132158590309,-0.20161001120344244
9.243502202643173,-0.20803439962820838
9.276872246696035,-0.18172413631785053
9.3102422907489,-0.15241721757825902
9.343612334801762,-0.12765582297203773
9.376982378854626,-0.09501628386293501
9.41035242290749,-0.03756334917159335
9.443722466960352,0.049672180575227605
9.477092511013216,0.15363812307689695
9.510462555066079,0.2510101922005454
9.543832599118943,0.32327067002273785
9.577202643171807,0.3675303362330304
9.61057268722467,0.39452194594658685
9.643942731277534,0.4143678676919606
9.677312775330396,0.419990503616342
9.71068281938326,0.38110800948349977
9.744052863436124,0.25619942724596184
9.777422907488987,0.018677404240171155
9.81079295154185,-0.3165164246378989
9.844162995594713,-0.6823064320621169
9.877533039647577,-0.974470969386348
9.910903083700441,-1.0889457548331611
9.944273127753304,-0.9660181750732099
9.977643171806168,-0.6210296236916341
10.01101321585903,-0.146174098132803
10.044383259911895,0.3193605459702838
10.077753303964759,0.6393214044433956
10.111123348017621,0.7295987609310107
10.144493392070485,0.5862115047969411
10.177863436123348,0.28113186099083337
10.211233480176212,-0.0707838230619566
10.244603524229076,-0.3583184122054156
10.277973568281938,-0.5136801792323892
10.311343612334802,-0.5297006060858797
10.344713656387665,-0.4495466519097916
10.378083700440529,-0.3364531380057565
10.411453744493393,-0.23934187151589956
10.444823788546255,-0.17093762592037876
10.47819383259912,-0.10792093837411423
10.511563876651982,-0.011199894775143845
10.544933920704846,0.14577039248284146
10.57830396475771,0.35635458301665257
10.611674008810573,0.5788930596292369
10.645044052863437,0.7545012392838919
10.678414096916299,0.8350755748708378
10.711784140969163,0.8069959814646777
10.745154185022027,0.6983749120121944
10.77852422907489,0.5659167438754629
10.811894273127754,0.46734676824293486
10.845264317180618,0.43234736690734726
10.87863436123348,0.44596836091941205
10.912004405286345,0.45319293562478025
10.945374449339207,0.38399165710525035
10.978744493392071,0.18867564119402902
11.012114537444935,-0.1322483871240544
11.045484581497798,-0.5184383807698991
11.078854625550662,-0.8670387300916529
11.112224669603524,-1.0717601845013596
11.145594713656388,-1.0678178297380807
11.178964757709252,-0.8626813720045136
11.212334801762115,-0.5376177833724773
11.245704845814979,-0.21749576239570914
11.279074889867841,-0.020756188986860408
11.312444933920705,-0.011025128437674104
11.34581497797357,-0.17176882086383585
11.379185022026432,-0.41536774962719314
11.412555066079296,-0.6225368252690767
11.445925110132158,-0.6943659931744133
11.479295154185023,-0.59381940010712
11.512665198237887,-0.3587849545862939
11.546035242290749,-0.08204437239250603
11.579405286343613,0.1316013502198513
11.612775330396476,0.2113081429677385
11.64614537444934,0.14936819241389349
11.679515418502204,0.002198377764955414
11.712885462555066,-0.13563206432682381
11.74625550660793,-0.17211045359725066
11.779625550660793,-0.05589767000569737
11.812995594713657,0.20333515033894958
11.846365638766521,0.5396402101343997
11.879735682819383,0.8576023812108023
11.913105726872248,1.0695560469550214
11.94647577092511,1.127784734089147
11.979845814977974,1.0388748568872093
12.013215859030838,0.8552601074723422
12.0465859030837,0.6488285641538444
12.079955947136565,0.47904302602393894
12.113325991189427,0.3699817738361082
12.146696035242291,0.30608472534274817
12.180066079295155,0.24723946560947063
12.213436123348018,0.1544835409283795
12.246806167400882,0.012673780638759097
12.280176211453744,-0.16143684737851682
12.313546255506608,-0.32919369556310646
12.346916299559473,-0.4518211061637335
12.380286343612335,-0.5115809872104186
12.413656387665199,-0.5207259908746952
12.447026431718061,-0.513775005314493
12.480396475770926,-0.5278434060741498
12.51376651982379,-0.5819132994072735
12.547136563876652,-0.6659244134163487
12.580506607929516,-0.7448740742874775
12.613876651982379,-0.7751644304880869
12.647246696035243,-0.7245332003060594
12.680616740088107,-0.5859342648914337
12.71398678414097,-0.3797294107111035
12.747356828193833,-0.14483081534188577
12.780726872246696,0.07567403143438295
12.81409691629956,0.24772064688868695
12.847466960352424,0.3539027288821422
12.880837004405286,0.3947271223676363
12.91420704845815,0.385195858960708
12.947577092511013,0.3489725618775704
12.980947136563877,0.31158741093078174
13.014317180616741,0.2933052791669494
13.047687224669604,0.3024086293749216
13.081057268722468,0.3307102812321483
13.11442731277533,0.35406322575001004
13.147797356828194,0.340048585718562
13.181167400881058,0.26218023298968335
13.21453744493392,0.1157523329100101
13.247907488986785,-0.07267519050077663
13.281277533039647,-0.24946605913191472
13.314647577092511,-0.3534960324057779
13.348017621145376,-0.3443836412111032
13.381387665198238,-0.22589220521386932
13.414757709251102,-0.05085394954774289
13.448127753303964,0.09811263654554889
13.481497797356829,0.14520470393501983
13.514867841409693,0.05811120315349729
13.548237885462555,-0.13412242712653674
13.58160792951542,-0.3520797716525881
13.614977973568282,-0.5009565484052912
13.648348017621146,-0.5120760611458968
13.68171806167401,-0.3704095813666488
13.715088105726872,-0.11577500018032007
13.748458149779736,0.18015025924987133
13.781828193832599,0.44673398968928596
13.815198237885463,0.6398582246212337
13.848568281938327,0.7493016537264919
13.88193832599119,0.788729894117191
13.915308370044054,0.7778702994201704
13.948678414096916,0.7284117234618563
13.98204845814978,0.6405294614562501
14.015418502202644,0.50957865343363
14.048788546255507,0.33690697837298944
14.08215859030837,0.13743020482789028
14.115528634361233,-0.06066437203272832
14.148898678414097,-0.22414156237281221
14.182268722466961,-0.3269909182843376
14.215638766519824,-0.36118119895956413
14.249008810572688,-0.34117385366231534
14.28237885462555,-0.30013063082638153
14.315748898678414,-0.2790219653518516
14.349118942731279,-0.3124939425849905
14.382488986784141,-0.4164620173866495
14.415859030837005,-0.5816567366308518
14.449229074889868,-0.7751673952412204
14.482599118942732,-0.9493484571422046
14.515969162995596,-1.0552411891214653
14.549339207048458,-1.0564928043814237
14.582709251101322,-0.939722037948942
14.616079295154185,-0.7182470022342685
14.649449339207049,-0.4279206546399391
14.682819383259913,-0.11627462749240425
14.716189427312775,0.1713859332140233
14.74955947136564,0.4039293541476823
14.782929515418502,0.5700247387460394
14.816299559471366,0.6757672533346614
14.84966960352423,0.7361743926939575
14.883039647577093,0.7650993827049557
14.916409691629957,0.7685603989785935
14.94977973568282,0.7445192939041672
14.983149779735683,0.6887277495739591
15.016519823788547,0.6029951578463266
15.04988986784141,0.5006704247987697
15.083259911894274,0.4051683656078205
15.116629955947138,0.3408352089894363
15.15,0.3199374360701051
15.183370044052865,0.33279158164582145
15.216740088105727,0.34783989544590366
15.250110132158591,0.3240723594143569
15.283480176211455,0.231266607338974
15.316850220264318,0.06782107486626633
15.350220264317182,-0.13457907438226382
15.383590308370044,-0.3241440919636705
15.416960352422908,-0.4546159612902982
15.450330396475772,-0.5096824852276763
15.483700440528635,-0.5116045007542283
15.517070484581499,-0.5075491567233971
15.550440528634361,-0.53999781503275
15.583810572687225,-0.6176415018063177
15.61718061674009,-0.704019870647336
15.650550660792952,-0.7318987022874611
15.683920704845816,-0.6372321885932654
15.717290748898678,-0.39558611154461554
15.750660792951543,-0.04213506249004643
15.784030837004407,0.33555640946963433
15.817400881057269,0.629448720976155
15.850770925110133,0.7535074506510174
15.884140969162996,0.6780719551850852
15.91751101321586,0.44143043921074393
15.950881057268724,0.13405145679909966
15.984251101321586,-0.13744221109382432
16.01762114537445,-0.2911684672656432
16.050991189427315,-0.2987476549715276
16.084361233480177,-0.1906572665263482
16.11773127753304,-0.03742998166963345
16.151101321585905,0.08360886150410746
16.184471365638768,0.12088100182486647
16.21784140969163,0.06692547292073234
16.251211453744492,-0.04338324925130393
16.284581497797358,-0.15168077876028044
16.31795154185022,-0.20247992036820817
16.351321585903083,-0.16589160339434095
16.38469162995595,-0.04840767781065906
16.41806167400881,0.11112801404249359
16.451431718061674,0.2575683545053746
16.48480176211454,0.3406487412077364
16.518171806167402,0.333030325174742
16.551541850220264,0.23857087990741702
16.584911894273127,0.08832373157110641
16.618281938325993,-0.07316136293413068
16.651651982378855,-0.20476086285228723
16.685022026431717,-0.2815230445194562
16.718392070484583,-0.2983801384766436
16.751762114537446,-0.2647325025023285
16.785132158590308,-0.19432169857400733
16.818502202643174,-0.09670733597853397
16.851872246696036,0.02495678238364114
16.8852422907489,0.1692137698970919
16.91861233480176,0.32816542856635783
16.951982378854627,0.4813956892543677
16.98535242290749,0.596413845448368
17.01872246696035,0.6367576168260344
17.052092511013218,0.5750052396716347
17.08546255506608,0.40527029576852375
17.118832599118942,0.1494628296995303
17.152202643171808,-0.1461361857657715
17.18557268722467,-0.4235223174148031
17.218942731277533,-0.6304330669093794
17.2523127753304,-0.7359522192794761
17.28568281938326,-0.7380085498062386
