Time (s),Filtered Signal
0.0,-0.043517307257427015
0.03337008452774715,1.3131626925882751
0.0667401690554943,2.451414749650078
0.10011025358324147,3.203437409802437
0.1334803381109886,3.4859545137353725
0.16685042263873576,3.311370088935196
0.20022050716648293,2.7751821929520077
0.23359059169423008,2.026283818868977
0.2669606762219772,1.2295946118650605
0.30033076074972437,0.5300607549606711
0.3337008452774715,0.025240567131964348
0.36707092980521866,-0.24855460133852486
0.40044101433296586,-0.31444441406545964
0.433811098860713,-0.23908070596663458
0.46718118338846015,-0.10811262696564757
0.5005512679162073,-0.0008375599582857414
0.5339213524439544,0.02863045542377687
0.5672914369717016,-0.040342199068444586
0.6006615214994487,-0.19671726770344922
0.6340316060271959,-0.40605050006741183
0.667401690554943,-0.6210403416976948
0.7007717750826902,-0.7919474022160639
0.7341418596104373,-0.8766190069732812
0.7675119441381845,-0.8504338508889393
0.8008820286659317,-0.7149575511901308
0.8342521131936789,-0.5017934772251039
0.867622197721426,-0.26736997974086574
0.9009922822491732,-0.07692274660903585
0.9343623667769203,0.018739884971334223
0.9677324513046675,0.004771960602556185
1.0011025358324146,-0.08846155229283105
1.0344726203601617,-0.1949652315400975
1.0678427048879089,-0.23956926866662015
1.101212789415656,-0.17058830786648735
1.1345828739434032,0.01609635835732134
1.1679529584711503,0.27321907847836413
1.2013230429988975,0.5211601648193626
1.2346931275266446,0.6815998348184593
1.2680632120543918,0.7103031585032594
1.301433296582139,0.6135458740477034
1.334803381109886,0.4404167398802282
1.3681734656376332,0.255279904776668
1.4015435501653803,0.10493796982510101
1.4349136346931275,-0.0022880903595858563
1.4682837192208746,-0.09508494630985244
1.5016538037486218,-0.21720302298285937
1.535023888276369,-0.397817136786017
1.568393972804116,-0.6302398513306716
1.6017640573318634,-0.8695964913377149
1.6351341418596106,-1.0497850703422646
1.6685042263873577,-1.1107415242021041
1.7018743109151049,-1.0229928607366883
1.735244395442852,-0.7987432578464546
1.7686144799705992,-0.48547068997182125
1.8019845644983463,-0.14589985565784036
1.8353546490260935,0.16611067482828967
1.8687247335538406,0.4230201087184806
1.9020948180815878,0.6272140649996967
1.935464902609335,0.80018534236434
1.968834987137082,0.9633155235699222
2.002205071664829,1.1199901779630932
2.0355751561925763,1.24799322276339
2.0689452407203235,1.306222153977957
2.1023153252480706,1.2529156785623503
2.1356854097758178,1.066921043544822
2.169055494303565,0.7618116463335228
2.202425578831312,0.3858770516493419
2.235795663359059,0.007632385582801419
2.2691657478868064,-0.30682936941905703
2.3025358324145535,-0.5149481974842293
2.3359059169423007,-0.6089497136609552
2.369276001470048,-0.6138664202968221
2.402646085997795,-0.574646375465225
2.436016170525542,-0.5383918903235334
2.4693862550532892,-0.5383362486266483
2.5027563395810364,-0.5841881127046955
2.5361264241087835,-0.6605894340363726
2.5694965086365307,-0.7330969876751804
2.602866593164278,-0.7597591195819376
2.636236677692025,-0.705547680337649
2.669606762219772,-0.5560654004863653
2.7029768467475193,-0.3262553399952409
2.7363469312752664,-0.06020519624980053
2.7697170158030135,0.17964705668734768
2.8030871003307607,0.33183096521354444
2.836457184858508,0.35778001139669596
2.869827269386255,0.258442148265068
2.903197353914002,0.0785102430670504
2.9365674384417493,-0.10502495291879349
2.9699375229694964,-0.20776663481239713
3.0033076074972436,-0.16846535446381172
3.0366776920249907,0.02600452314358764
3.070047776552738,0.3318861511135595
3.103417861080485,0.6612396029635311
3.136787945608232,0.9126658250730905
3.1701580301359793,1.0084134649681569
3.203528114663727,0.9226727759083895
3.236898199191474,0.6891369814805717
3.270268283719221,0.3847932052135196
3.3036383682469683,0.09735336552085835
3.3370084527747155,-0.1091048597380583
3.3703785373024626,-0.21525927599720165
3.4037486218302098,-0.24598103432704788
3.437118706357957,-0.2501610308530687
3.470488790885704,-0.27223473390185515
3.503858875413451,-0.3300096145194518
3.5372289599411983,-0.409199932046245
3.5705990444689455,-0.4758024393520837
3.6039691289966926,-0.49811816150932764
3.63733921352444,-0.4657125127921583
3.670709298052187,-0.3950914128237089
3.704079382579934,-0.31974448356397217
3.7374494671076812,-0.27094323074190274
3.7708195516354284,-0.260371947024046
3.8041896361631755,-0.2738912039482776
3.8375597206909227,-0.2789648895884814
3.87092980521867,-0.240807550737378
3.904299889746417,-0.13840415865634864
3.937669974274164,0.027070775106593965
3.9710400588019112,0.23379324164641782
4.004410143329658,0.44775055612699116
4.0377802278574055,0.6325230920660203
4.071150312385153,0.756073109579196
4.1045203969129,0.7939097377538452
4.137890481440647,0.7312507147748637
4.171260565968394,0.5672200571664218
4.204630650496141,0.3212505332884403
4.238000735023888,0.037626713961444194
4.2713708195516356,-0.21816559038994693
4.304740904079383,-0.3753028209417655
4.33811098860713,-0.3830276561361975
4.371481073134877,-0.2354498995982582
4.404851157662624,0.017555407030854817
4.438221242190371,0.28230869305433337
4.471591326718118,0.45452887312310664
4.504961411245866,0.46079422725985086
4.538331495773613,0.28960461382299907
4.57170158030136,-0.002954112697703308
4.605071664829107,-0.31641468585750865
4.638441749356854,-0.5478681626334108
4.671811833884601,-0.633744032754336
4.7051819184123485,-0.5729228578103843
4.738552002940096,-0.4217343151249548
4.771922087467843,-0.26442300347784686
4.80529217199559,-0.17342910785742027
4.838662256523337,-0.1776613737688007
4.872032341051084,-0.2525802236841205
4.905402425578831,-0.3356274895419076
4.9387725101065785,-0.35894896218284816
4.972142594634326,-0.2835638947727769
5.005512679162073,-0.11869116353266576
5.03888276368982,0.08281758584466116
5.072252848217567,0.2503652278652362
5.105622932745314,0.3298514175314812
5.138993017273061,0.3093405495601941
5.1723631018008085,0.22370462006721709
5.205733186328556,0.1363444395494279
5.239103270856303,0.10726243301498892
5.27247335538405,0.16305067039223944
5.305843439911797,0.2830755468230905
5.339213524439544,0.40833787069150335
5.372583608967291,0.46895837677205054
5.4059536934950385,0.4176620760276245
5.439323778022786,0.2537561910816625
5.472693862550533,0.026267620048484
5.50606394707828,-0.18565687472245665
5.539434031606027,-0.30660098688401705
5.572804116133774,-0.297983992671759
5.606174200661521,-0.17568775332577424
5.6395442851892685,-0.004179332986639925
5.672914369717016,0.1308208469839368
5.706284454244763,0.15984144709861076
5.73965453877251,0.06135411538654886
5.773024623300257,-0.1264641643230796
5.806394707828004,-0.3200030826294778
5.839764792355751,-0.42540786885249976
5.873134876883499,-0.37989872399173596
5.906504961411246,-0.18093237471312398
5.939875045938993,0.11028795539359833
5.97324513046674,0.393129278070975
6.006615214994487,0.5691408610862567
6.039985299522234,0.5824166830709447
6.073355384049981,0.4407838578594089
6.106725468577729,0.20888267858108212
6.140095553105476,-0.02276608526015847
6.173465637633223,-0.17772064349537667
6.20683572216097,-0.22392589770197363
6.240205806688717,-0.1808879001240948
6.273575891216464,-0.10190145233214629
6.3069459757442115,-0.04203082825741667
6.340316060271959,-0.02948955959401178
6.373686144799706,-0.05552346171882658
6.407056229327454,-0.08700472992853617
6.440426313855201,-0.09279014560359891
6.473796398382948,-0.06718731531244702
6.507166482910695,-0.03613560829421645
6.540536567438442,-0.04237126848479645
6.5739066519661895,-0.11833278007833777
6.607276736493937,-0.26257364276044537
6.640646821021684,-0.43336440272721366
6.674016905549431,-0.5637481198544093
6.707386990077178,-0.5910878311662383
6.740757074604925,-0.48695759486702944
6.774127159132672,-0.2732353532568994
6.8074972436604195,-0.0168161634039698
6.840867328188167,0.19504166734548994
6.874237412715914,0.28849846924077416
6.907607497243661,0.2322838549147855
6.940977581771408,0.05074598031574929
6.974347666299155,-0.18389597381192777
7.007717750826902,-0.37657293490936233
7.0410878353546495,-0.44189566702093436
7.074457919882397,-0.3324705461539784
7.107828004410144,-0.0538353875563431
7.141198088937891,0.33777744325281145
7.174568173465638,0.7528843927413024
7.207938257993385,1.095136679054842
7.241308342521132,1.2883392613102393
7.27467842704888,1.2961096574581434
7.308048511576627,1.1286999657553836
7.341418596104374,0.8356968298697146
7.374788680632121,0.48800819176009796
7.408158765159868,0.15604124439923944
7.441528849687615,-0.10825312717888338
7.4748989342153624,-0.2801717769826808
7.50826901874311,-0.3609583564456691
7.541639103270857,-0.36960640946140827
7.575009187798604,-0.3328373534068338
7.608379272326351,-0.2773721599613554
7.641749356854098,-0.22589847595925308
7.675119441381845,-0.19554124348473295
7.7084895259095925,-0.19672961545669307
7.74185961043734,-0.23147819011379198
7.775229694965087,-0.29221493373659985
7.808599779492834,-0.3635209453775547
7.841969864020581,-0.4281020317415678
7.875339948548328,-0.47529867714923246
7.908710033076075,-0.5075534477392527
7.9420801176038225,-0.5399544516516988
7.97545020213157,-0.5911724230421846
8.008820286659317,-0.6692833070201863
8.042190371187063,-0.7599983889664578
8.075560455714811,-0.8249467646914614
8.108930540242557,-0.8132351705274796
8.142300624770305,-0.6825826224608869
8.175670709298052,-0.42060663711485885
8.2090407938258,-0.055695436978283525
8.242410878353546,0.3486413374093043
8.275780962881294,0.7141383460368134
8.30915104740904,0.9739421472360013
8.342521131936788,1.0932234920699027
8.375891216464534,1.0762077434643336
8.409261300992283,0.9584963509973558
8.442631385520029,0.7900871314184708
8.476001470047777,0.6174667967365586
8.509371554575523,0.4717271523457123
8.542741639103271,0.36542287369119003
8.57611172363102,0.2965014723930328
8.609481808158765,0.2552229164723131
8.642851892686513,0.2301856653750977
8.67622197721426,0.21155234281105031
8.709592061742008,0.1917502983037136
8.742962146269754,0.16500586905640802
8.776332230797502,0.12678937215639144
8.809702315325248,0.07340742937445041
8.843072399852996,0.00165009712148058
8.876442484380743,-0.09112278906839202
8.90981256890849,-0.20557946534093302
8.943182653436237,-0.33738912946534183
8.976552737963985,-0.47399785612003364
9.009922822491731,-0.5942048811645109
9.04329290701948,-0.6730910828367419
9.076662991547225,-0.6917696454924325
9.110033076074973,-0.6473507807460122
9.14340316060272,-0.556555683777136
9.176773245130468,-0.44887718246950087
9.210143329658214,-0.35140889022553556
9.243513414185962,-0.27368483791261916
9.276883498713708,-0.20250303533439937
9.310253583241456,-0.11167628915222902
9.343623667769203,0.017626276806449456
9.37699375229695,0.17799096746839635
9.410363836824697,0.3310149352897463
9.443733921352445,0.4217891338119779
9.477104005880191,0.40618672094621017
9.51047409040794,0.2763672395138991
9.543844174935685,0.07032242379472718
9.577214259463434,-0.14003063965201595
9.61058434399118,-0.2762760407857809
9.643954428518928,-0.2831474491090085
9.677324513046674,-0.14745775570836428
9.710694597574422,0.09991853407807469
9.744064682102168,0.3969376495283192
9.777434766629916,0.670797527241384
9.810804851157663,0.857896196946188
9.84417493568541,0.9179248308587158
9.877545020213157,0.8398531587162721
9.910915104740905,0.6399372275064605
9.944285189268651,0.3536159113594372
9.9776552737964,0.024690948301497373
10.011025358324146,-0.30402962947238177
10.044395442851894,-0.5955369727122821
10.07776552737964,-0.8189151937752963
10.111135611907388,-0.9485515526666162
10.144505696435134,-0.966624043354051
10.177875780962882,-0.870344152294686
10.211245865490628,-0.6802975311850156
10.244615950018376,-0.4426069822149328
10.277986034546123,-0.21886899443115554
10.31135611907387,-0.06418003293989161
10.344726203601617,-0.0017368678064160334
10.378096288129365,-0.007365216911900339
10.411466372657111,-0.015116386225421852
10.44483645718486,0.054272581184403326
10.478206541712606,0.25258545412356476
10.511576626240354,0.5702980458059284
10.5449467107681,0.9286330759817915
10.578316795295848,1.2055969240207907
10.611686879823594,1.2872728222576704
10.645056964351342,1.121299117919078
10.678427048879088,0.7457976811874569
10.711797133406836,0.27725276038435653
10.745167217934583,-0.13919062201042545
10.77853730246233,-0.39384753085012186
10.811907386990077,-0.45927069246028923
10.845277471517825,-0.3959265693653214
10.878647556045571,-0.3141314122843613
10.91201764057332,-0.3126394802544086
10.945387725101066,-0.4264154759641898
10.978757809628814,-0.6105196420644032
11.01212789415656,-0.7670086635291234
11.045497978684308,-0.7988195060052914
11.078868063212054,-0.6614538083674435
11.112238147739802,-0.38635131065312556
11.145608232267548,-0.06610664110629559
11.178978316795297,0.18868315924293677
11.212348401323043,0.29853423557736336
11.24571848585079,0.2474072025033556
11.279088570378537,0.08567366149271605
11.312458654906285,-0.09472323003804656
11.345828739434031,-0.20020640829333627
11.37919882396178,-0.17363639062253447
11.412568908489526,-0.01619065972245138
11.445938993017274,0.2141698137666383
11.47930907754502,0.4262126361815568
11.512679162072768,0.5317793663326912
11.546049246600514,0.48116753081547736
11.579419331128262,0.2838193866584389
11.612789415656009,0.005852008236410844
11.646159500183757,-0.2550284618875098
11.679529584711503,-0.4072570009320965
11.71289966923925,-0.40006110731577477
11.746269753766997,-0.24032073821275904
11.779639838294745,0.01506039158217403
11.813009922822491,0.2863869094629267
11.84638000735024,0.5038674424091312
11.879750091877986,0.6298652452993645
11.913120176405734,0.661624235479259
11.94649026093348,0.6168687572690791
11.979860345461228,0.5140139458839269
12.013230429988974,0.36042122296546153
12.046600514516722,0.15540821932743473
12.079970599044469,-0.09592169259829847
12.113340683572217,-0.36953346427023476
12.146710768099963,-0.621061093463849
12.180080852627711,-0.7992196685615449
12.213450937155457,-0.8670353067250333
12.246821021683205,-0.8184818960232235
12.280191106210951,-0.680694245366266
12.3135611907387,-0.5005176489922566
12.346931275266446,-0.32309138008869964
12.380301359794194,-0.1739882377525766
12.41367144432194,-0.05331121422072185
12.447041528849688,0.057258834636841685
12.480411613377434,0.1801541713213813
12.513781697905182,0.32823315539463704
12.547151782432929,0.4971479256071511
12.580521866960677,0.6649751961168174
12.613891951488423,0.7974557405465796
12.647262036016171,0.8566963044522001
12.680632120543917,0.811812842633015
12.714002205071665,0.6499741502223986
12.747372289599411,0.38514553413064423
12.78074237412716,0.06064873865900276
12.814112458654908,-0.2578706617449749
12.847482543182654,-0.4994967042303723
12.880852627710402,-0.6108656889728656
12.914222712238148,-0.5764094413898713
12.947592796765896,-0.4267839949366182
12.980962881293642,-0.22994103233162044
13.01433296582139,-0.06652181477270214
13.047703050349137,0.0012824806308629555
13.081073134876885,-0.0455660392909325
13.114443219404631,-0.1755730940804722
13.147813303932379,-0.32027401953594314
13.181183388460125,-0.40328327610408293
13.214553472987873,-0.37275284971826717
13.24792355751562,-0.22385528690957973
13.281293642043368,-0.002156081793678279
13.314663726571114,0.21357319881007256
13.348033811098862,0.3425375835516181
13.381403895626608,0.33500134242545265
13.414773980154356,0.193997036494817
13.448144064682102,-0.023743518893305456
13.48151414920985,-0.22901169083542558
13.514884233737597,-0.3354717736113883
13.548254318265345,-0.29444807708326126
13.581624402793091,-0.1141251157310954
13.614994487320839,0.14504645067031668
13.648364571848585,0.39597676067817544
13.681734656376333,0.5592721569068676
13.71510474090408,0.5908060884598836
13.748474825431828,0.4917668401361289
13.781844909959574,0.3000024609127928
13.815214994487322,0.0703465948359664
13.848585079015068,-0.1449776334974821
13.881955163542816,-0.3078944762080482
13.915325248070562,-0.3966615008397749
13.94869533259831,-0.4029445044126154
13.982065417126057,-0.3291651722188713
14.015435501653805,-0.18850846647610733
14.048805586181551,-0.005920992478479629
14.082175670709299,0.18338743662232287
14.115545755237045,0.3399731389586368
14.148915839764793,0.42962982613788303
14.18228592429254,0.43289442503629916
14.215656008820288,0.3509488606510641
14.249026093348034,0.20569403708606207
14.282396177875782,0.03370707117139102
14.315766262403528,-0.1243986317867858
14.349136346931276,-0.2360982871223788
14.382506431459023,-0.2863930219544377
14.41587651598677,-0.2807598954058665
14.449246600514517,-0.2402714758473677
14.482616685042265,-0.19127497457855572
14.515986769570011,-0.1547804804691243
14.54935685409776,-0.14045087298432837
14.582726938625505,-0.14683540546654408
14.616097023153253,-0.1655682359881037
14.649467107681,-0.1855342044330423
14.682837192208748,-0.19459994513938295
14.716207276736494,-0.17983732814751263
14.749577361264242,-0.12921069326940343
14.782947445791988,-0.03651235076940039
14.816317530319736,0.09224573537537809
14.849687614847483,0.2356876826631357
14.88305769937523,0.3613451600843454
14.916427783902977,0.4373482630859839
14.949797868430725,0.4463980004821905
14.983167952958471,0.3943154407143235
15.01653803748622,0.30745768043078875
15.049908122013965,0.21904137001629242
15.083278206541713,0.15086859123504415
15.11664829106946,0.1004978052185279
15.150018375597208,0.04219213908108518
15.183388460124954,-0.056836884253744925
15.216758544652702,-0.2122993596118871
15.250128629180448,-0.40438174189722553
15.283498713708196,-0.5775874092564315
15.316868798235943,-0.6625146207180985
15.35023888276369,-0.6105005724220495
15.383608967291437,-0.4230546579723245
15.416979051819185,-0.15886644026237792
15.450349136346931,0.08769593407159626
15.48371922087468,0.22738348540478942
15.517089305402425,0.21633087989072275
15.550459389930174,0.07601999024117415
15.58382947445792,-0.11644539740935114
15.617199558985668,-0.2624686642958225
15.650569643513414,-0.2840242068288033
15.683939728041162,-0.1546897224421315
15.717309812568908,0.09282198481785657
15.750679897096656,0.3836239168226951
15.784049981624403,0.6324233040505872
15.81742006615215,0.775191319874947
15.850790150679897,0.7877379047972277
15.884160235207645,0.6856033746216281
15.917530319735391,0.508695252051081
15.95090040426314,0.3004636675744128
15.984270488790886,0.09241262638937799
16.017640573318634,-0.09962778195781277
16.05101065784638,-0.2682357882322138
16.084380742374126,-0.403094700102302
16.117750826901876,-0.48458352329689053
16.151120911429622,-0.48796742218016464
16.18449099595737,-0.397219846139579
16.217861080485115,-0.22101805505945382
16.251231165012864,-0.0008143420564739056
16.28460124954061,0.1961384895631642
16.317971334068357,0.29853602963677234
16.351341418596103,0.25918383208454815
16.384711503123853,0.07677916949336053
16.4180815876516,-0.19962552134349132
16.451451672179346,-0.4868714100371901
16.484821756707092,-0.6983780480422965
16.51819184123484,-0.7759511516768068
16.551561925762588,-0.7086091863109262
16.584932010290334,-0.5304248056153331
16.61830209481808,-0.29955555052078076
16.65167217934583,-0.06980441046867625
16.685042263873576,0.13063258045280604
16.718412348401323,0.30298512412819656
16.75178243292907,0.4638505625726189
16.78515251745682,0.6226617397030244
16.818522601984565,0.7646342482983194
16.85189268651231,0.8500281684957683
16.885262771040058,0.8315072728332152
16.918632855567807,0.6811573086788673
16.952002940095554,0.4126594483051278
16.9853730246233,0.0855046782419652
17.018743109151046,-0.21336837496157435
17.052113193678796,-0.4035197111829285
17.085483278206542,-0.44472700230650974
17.11885336273429,-0.35357780851776965
17.15222344726204,-0.1939072924771568
17.185593531789785,-0.04530326742658031
17.21896361631753,0.03439817680775204
17.252333700845277,0.033194296619794436
17.285703785373027,-0.016737281349914406
