Time (s),Filtered Signal
0.0,-0.006169344104480306
0.0334075723830735,0.05077342092021776
0.066815144766147,0.12251083582764123
0.1002227171492205,0.21375809875919355
0.133630289532294,0.3145430485907725
0.1670378619153675,0.40354746105297595
0.200445434298441,0.4574346649520819
0.23385300668151449,0.4611420092959515
0.267260579064588,0.41403680817431815
0.3006681514476615,0.3294939477166029
0.334075723830735,0.22898915892586147
0.3674832962138085,0.13411142733208378
0.400890868596882,0.06000943962976219
0.4342984409799555,0.012238490008267525
0.46770601336302897,-0.012892232301896688
0.5011135857461025,-0.025484865386721147
0.534521158129176,-0.03792018030574812
0.5679287305122495,-0.06039747539889999
0.601336302895323,-0.0970904307619958
0.6347438752783965,-0.14407783912549108
0.66815144766147,-0.19016282050945138
0.7015590200445435,-0.22087525120137583
0.734966592427617,-0.22445579556708953
0.7683741648106905,-0.1972713981358593
0.801781737193764,-0.14593272190153633
0.8351893095768375,-0.08479758927704013
0.868596881959911,-0.02993473822997001
0.9020044543429845,0.007391603728491465
0.9354120267260579,0.024354195560138552
0.9688195991091315,0.025620950813870686
1.002227171492205,0.018813900036859794
1.0356347438752784,0.00936616789518711
1.069042316258352,-0.002073253013248104
1.1024498886414256,-0.01827910585991819
1.135857461024499,-0.04122848214384062
1.1692650334075725,-0.06785946586610872
1.202672605790646,-0.08867632578822578
1.2360801781737194,-0.09045870801973606
1.269487750556793,-0.06206321756024817
1.3028953229398665,-0.0006092149882194387
1.33630289532294,0.08497199762889597
1.3697104677060135,0.17493609350229258
1.403118040089087,0.24427771420681005
1.4365256124721606,0.2710033217717407
1.469933184855234,0.24420809247876163
1.5033407572383075,0.16900783111936232
1.536748329621381,0.0663420108170048
1.5701559020044544,-0.03267904164715308
1.603563474387528,-0.09634863635138222
1.6369710467706016,-0.10285942464000458
1.670378619153675,-0.048196646193607806
1.7037861915367485,0.05140861208704261
1.737193763919822,0.16357812226010823
1.7706013363028954,0.24935596881545413
1.804008908685969,0.2752754216701866
1.8374164810690425,0.2240396674087781
1.8708240534521159,0.10033215271761917
1.9042316258351895,-0.07017424022428147
1.937639198218263,-0.2483807428529324
1.9710467706013366,-0.3935931050163547
2.00445434298441,-0.4759089899559295
2.0378619153674835,-0.485123490695973
2.071269487750557,-0.433051122652524
2.1046770601336307,-0.3482600867485915
2.138084632516704,-0.2649293172981083
2.1714922048997773,-0.2099028731858747
2.204899777282851,-0.19296404778079634
2.2383073496659245,-0.20426134196153028
2.271714922048998,-0.2199431826842444
2.3051224944320716,-0.21354554437228362
2.338530066815145,-0.16810512301272743
2.3719376391982183,-0.08360271206092142
2.405345211581292,0.023540241343801827
2.4387527839643655,0.12850017567834524
2.472160356347439,0.20968364989852684
2.5055679287305126,0.2583507051894868
2.538975501113586,0.28166322216450174
2.5723830734966593,0.2978423275774725
2.605790645879733,0.32600521479941946
2.6391982182628064,0.3758627205737171
2.67260579064588,0.44248456242226875
2.7060133630289536,0.50873525217842
2.739420935412027,0.5540338212261584
2.7728285077951007,0.5648026411250899
2.806236080178174,0.5410736939777732
2.8396436525612474,0.49574972249125715
2.873051224944321,0.4469734497501398
2.9064587973273945,0.4078596836099662
2.939866369710468,0.37939049758540916
2.9732739420935417,0.3505868341767264
3.006681514476615,0.30592603045618416
3.0400890868596884,0.23561040995851973
3.073496659242762,0.14226355579178243
3.1069042316258355,0.03937062676510635
3.140311804008909,-0.058364128106890206
3.1737193763919826,-0.1472001670254079
3.207126948775056,-0.24092859754863422
3.2405345211581293,-0.3658809731433917
3.273942093541203,-0.5448950447301641
3.3073496659242765,-0.7781673918686165
3.34075723830735,-1.032826364806055
3.3741648106904236,-1.2503404694931148
3.407572383073497,-1.3718951341594903
3.4409799554565703,-1.3708346607234052
3.474387527839644,-1.2743977323788276
3.5077951002227175,-1.1591866665726371
3.541202672605791,-1.116603439270659
3.5746102449888646,-1.2008880620919171
3.608017817371938,-1.384888408832827
3.6414253897550113,-1.549502276218557
3.674832962138085,-1.519411918470507
3.7082405345211584,-1.1354064989598285
3.7416481069042318,-0.3332017339367628
3.7750556792873056,0.8084475677995331
3.808463251670379,2.076135347498453
3.8418708240534527,3.187127333015653
3.875278396436526,3.885386178808214
3.9086859688195994,4.027902691309773
3.942093541202673,3.6263131702228706
3.9755011135857465,2.8301114636527798
4.00890868596882,1.8634997956731825
4.042316258351893,0.9455219880147724
4.075723830734967,0.22561476168898828
4.109131403118041,-0.2446981096975094
4.142538975501114,-0.5011263821997882
4.1759465478841875,-0.6294541588141285
4.209354120267261,-0.7212244784983404
4.242761692650334,-0.8391439917375129
4.276169265033408,-1.0010389580064407
4.309576837416482,-1.182643837132291
4.342984409799555,-1.333936236777238
4.3763919821826285,-1.4017558030588964
4.409799554565702,-1.3516733732687818
4.443207126948775,-1.1830328322750823
4.476614699331849,-0.9324908872711948
4.510022271714923,-0.6639529527075361
4.543429844097996,-0.4470096698181292
4.5768374164810695,-0.3308765499260061
4.610244988864143,-0.32409285064167004
4.643652561247216,-0.38942755461833106
4.67706013363029,-0.45784790059389496
4.710467706013364,-0.4569865104368658
4.743875278396437,-0.34229935482031143
4.77728285077951,-0.11701458608908631
4.810690423162584,0.16838436756390554
4.844097995545657,0.4370138530120581
4.877505567928731,0.6172239378044688
4.910913140311805,0.6707859485362881
4.944320712694878,0.6057024553936375
4.977728285077951,0.46939127982986883
5.011135857461025,0.3268720832157775
5.044543429844098,0.23438217999398675
5.077951002227172,0.21941187594147737
5.111358574610246,0.2740764032286437
5.144766146993319,0.36251370756128865
5.178173719376392,0.43749820430209174
5.211581291759466,0.4587297243187389
5.244988864142539,0.4058861536212428
5.278396436525613,0.2827156220827963
5.311804008908687,0.11251976659875355
5.34521158129176,-0.07144579481411022
5.378619153674833,-0.2360396738811947
5.412026726057907,-0.3552797303172263
5.445434298440981,-0.41328409530063454
5.478841870824054,-0.40428967722088344
5.512249443207128,-0.3318682857102766
5.545657015590201,-0.20875712413308947
5.579064587973274,-0.057014425069888075
5.612472160356348,0.09329031030686978
5.645879732739422,0.2088208232620315
5.679287305122495,0.2615836721276732
5.712694877505569,0.23922150911101364
5.746102449888642,0.1525916420530652
5.779510022271715,0.035953699667664034
5.812917594654789,-0.06254872395010669
5.846325167037863,-0.09813954325928308
5.879732739420936,-0.048158787667709355
5.91314031180401,0.07586606770568972
5.946547884187083,0.22917873974389005
5.979955456570156,0.3489116915099223
6.01336302895323,0.37809899349312964
6.046770601336304,0.2888795093707019
6.080178173719377,0.09504702297389735
6.1135857461024505,-0.1515138954585681
6.146993318485524,-0.3791503748682482
6.180400890868597,-0.5221313703411665
6.213808463251671,-0.5436711238677634
6.247216035634745,-0.4477884800066814
6.280623608017818,-0.2761271928711863
6.3140311804008915,-0.09147083489705586
6.347438752783965,0.04573419926776825
6.380846325167038,0.09926498427900676
6.414253897550112,0.06937187090953813
6.447661469933186,-0.009416957964666897
6.481069042316259,-0.08451681826294491
6.5144766146993325,-0.10941149742871821
6.547884187082406,-0.06563017688192083
6.581291759465479,0.02746310930810419
6.614699331848553,0.1203983033736031
6.648106904231627,0.1563621413658735
6.6815144766147,0.09914392641188861
6.7149220489977735,-0.0467173335786129
6.748329621380847,-0.2335504627002954
6.78173719376392,-0.3878941049222136
6.815144766146994,-0.4402910719776307
6.848552338530068,-0.3543256373774744
6.881959910913141,-0.14202341869561927
6.915367483296214,0.14083190706050924
6.948775055679288,0.41663803169146985
6.982182628062361,0.6148697310308077
7.015590200445435,0.6954604514433008
7.048997772828509,0.6579102336206789
7.082405345211582,0.534557832564782
7.115812917594655,0.373322926404381
7.149220489977729,0.21862927402532717
7.182628062360802,0.09817670168180186
7.216035634743876,0.019072396475165725
7.24944320712695,-0.027836442313519106
7.282850779510023,-0.05946953357848238
7.316258351893096,-0.09217133351295267
7.34966592427617,-0.1362286290197512
7.383073496659243,-0.1939224545364463
7.416481069042317,-0.26040397041496505
7.449888641425391,-0.32619452768777674
7.4832962138084635,-0.38019323134141847
7.516703786191537,-0.4123740270319718
7.550111358574611,-0.4157341348857003
7.583518930957685,-0.3874699802339862
7.616926503340758,-0.3296397806972257
7.650334075723832,-0.24948863140516503
7.683741648106905,-0.15915333337808338
7.717149220489978,-0.07404464871633132
7.750556792873052,-0.00942461185930293
7.783964365256126,0.024256692996371808
7.817371937639199,0.025456267338498574
7.850779510022273,0.0029133789604174065
7.884187082405346,-0.026690487126235275
7.917594654788419,-0.04373876736713964
7.951002227171493,-0.030863741442742055
7.984409799554567,0.023869436891974304
8.01781737193764,0.1260871646375684
8.051224944320714,0.2748992940654163
8.084632516703786,0.46131251338061713
8.118040089086861,0.6648940541754648
8.151447661469934,0.8510421877537532
8.184855233853007,0.9729783990041865
8.218262806236082,0.9816083428052572
8.251670378619155,0.8424771083741089
8.285077951002227,0.5539694182660648
8.318485523385302,0.15775104136327306
8.351893095768375,-0.26621645647353503
8.385300668151448,-0.6216533458902316
8.418708240534523,-0.8282260484895294
8.452115812917596,-0.8512339234245764
8.485523385300668,-0.715418699496693
8.518930957683743,-0.4957050025899242
8.552338530066816,-0.2877528513035758
8.585746102449889,-0.17047605023492374
8.619153674832964,-0.17657013338116512
8.652561247216036,-0.28351641608208694
8.68596881959911,-0.42805531994112417
8.719376391982184,-0.5363352069452166
8.752783964365257,-0.5551860934829917
8.78619153674833,-0.47054600842777616
8.819599109131405,-0.30642428997883087
8.853006681514477,-0.10779118092805624
8.88641425389755,0.08191965662943075
8.919821826280625,0.23697527792673842
8.953229398663698,0.35257416108206524
8.98663697104677,0.4364040839490858
9.020044543429846,0.49586582161156806
9.053452115812918,0.5295441144720336
9.086859688195991,0.5278091859882992
9.120267260579066,0.4813522603633134
9.153674832962139,0.39157533058102084
9.187082405345212,0.2756911489291332
9.220489977728286,0.16253282733267455
9.25389755011136,0.08053612427990378
9.287305122494432,0.044074940746720415
9.320712694877507,0.04569106208121309
9.35412026726058,0.05896372993574633
9.387527839643653,0.05124157226498392
9.420935412026727,0.00013712307597290205
9.4543429844098,-0.09453673901093675
9.487750556792873,-0.20953466300996998
9.521158129175948,-0.30832424635698513
9.55456570155902,-0.3574708442397746
9.587973273942094,-0.3411493290161016
9.621380846325168,-0.26707271440997843
9.654788418708241,-0.1619017311329337
9.688195991091314,-0.05945459423486724
9.721603563474389,0.01216087615274712
9.755011135857462,0.03917424873786875
9.788418708240535,0.024445859687122904
9.82182628062361,-0.0154733326799554
9.855233853006682,-0.056117294889938676
9.888641425389755,-0.071952388134896
9.92204899777283,-0.04361934341787987
9.955456570155903,0.0350807316514775
9.988864142538976,0.15228990558987116
10.02227171492205,0.2781623747015895
10.055679287305123,0.37201973791653675
10.089086859688196,0.39574209498560503
10.12249443207127,0.3287987737244246
10.155902004454344,0.17826647227911205
10.189309576837417,-0.02142695575792896
10.222717149220491,-0.21977004109556075
10.256124721603564,-0.3678862450811219
10.289532293986637,-0.43504783990516405
10.322939866369712,-0.41714251759060733
10.356347438752785,-0.33437793895323464
10.389755011135858,-0.22054125568697489
10.423162583518932,-0.10941132465191016
10.456570155902005,-0.024085505139670966
10.489977728285078,0.0274883217941246
10.523385300668153,0.050838043382686514
10.556792873051226,0.059601156780091494
10.590200445434299,0.06940873229892432
10.623608017817373,0.09290987496267067
10.657015590200446,0.13639850710748277
10.69042316258352,0.19779626435203806
10.723830734966594,0.26603954461386076
10.757238307349667,0.3225771710600065
10.790645879732741,0.3457357631393886
10.824053452115814,0.3176755325150178
10.857461024498887,0.23198892724754414
10.890868596881962,0.09878183398386907
10.924276169265035,-0.05568544007795613
10.957683741648108,-0.19580759423747465
10.991091314031182,-0.28805831736143167
11.024498886414255,-0.3127843040291725
11.057906458797328,-0.27145902222569895
11.091314031180403,-0.18608655917419856
11.124721603563476,-0.09070395612652274
11.158129175946549,-0.018358428278847056
11.191536748329623,0.011083939428759026
11.224944320712696,-0.002665722323344022
11.25835189309577,-0.042124582447719446
11.291759465478844,-0.08092738183235146
11.325167037861917,-0.09576937696401838
11.35857461024499,-0.07629177018155378
11.391982182628064,-0.028892637012509596
11.425389755011137,0.02687821370393863
11.45879732739421,0.067591226671098
11.492204899777285,0.0768253135174265
11.525612472160358,0.05294933481595815
11.55902004454343,0.010309104764560833
11.592427616926505,-0.026907480806653415
11.625835189309578,-0.03562079121739487
11.659242761692651,-0.004843255382038303
11.692650334075726,0.058260140970118605
11.726057906458799,0.13010115165293581
11.759465478841872,0.17967226502743924
11.792873051224946,0.18120719874423252
11.82628062360802,0.12537767407517414
11.859688195991092,0.024501203506478168
11.893095768374167,-0.0904630106912459
11.92650334075724,-0.18029123204105765
11.959910913140313,-0.21166574051910758
11.993318485523387,-0.17002729476054398
12.02672605790646,-0.0661898691232601
12.060133630289533,0.06624269222369888
12.093541202672608,0.18238074834750248
12.12694877505568,0.2426855539250649
12.160356347438753,0.2284860102256218
12.193763919821828,0.14989640699867893
12.227171492204901,0.042162136765944436
12.260579064587974,-0.04893376481429587
12.293986636971049,-0.08702010297936666
12.327394209354122,-0.06184416772557619
12.360801781737194,0.005201179807852222
12.39420935412027,0.07015040925114585
12.427616926503342,0.08694090641137482
12.461024498886415,0.030395685260596727
12.49443207126949,-0.08909955137778891
12.527839643652563,-0.22692701561717485
12.561247216035635,-0.3222323117344812
12.59465478841871,-0.3253314425990255
12.628062360801783,-0.22222529252168619
12.661469933184856,-0.04438400093833619
12.69487750556793,0.14184414529478778
12.728285077951004,0.26250311102651075
12.761692650334076,0.2681397537122248
12.795100222717151,0.15606358906287163
12.828507795100224,-0.027779080637844414
12.861915367483297,-0.2084338010639698
12.895322939866372,-0.31405139919160924
12.928730512249444,-0.30569286690678693
12.962138084632517,-0.19151157410240296
12.995545657015592,-0.019844279264770028
13.028953229398665,0.14420176790168063
13.062360801781738,0.24689607721385812
13.095768374164813,0.2659583150917503
13.129175946547885,0.2147652542336239
13.162583518930958,0.13092124969949046
13.195991091314033,0.056334085695230574
13.229398663697106,0.018702702410115506
13.262806236080179,0.022262048055432106
13.296213808463254,0.05037128151954386
13.329621380846326,0.07690746176709409
13.3630289532294,0.08000333502338061
13.396436525612474,0.05162648191467733
13.429844097995547,-0.0006657672925485693
13.46325167037862,-0.059420638234336444
13.496659242761694,-0.10673734278692003
13.530066815144767,-0.13250634673254164
13.56347438752784,-0.137579714535654
13.596881959910915,-0.13077952832893114
13.630289532293988,-0.12175917317054624
13.66369710467706,-0.1137799857356482
13.697104677060135,-0.10051872652619312
13.730512249443208,-0.06899575466954899
13.763919821826281,-0.007494741103722208
13.797327394209356,0.08549934732635908
13.830734966592429,0.19624865855987092
13.864142538975502,0.297870671917409
13.897550111358576,0.3593955449238433
13.93095768374165,0.3579961264417448
13.964365256124722,0.2888412668887895
13.997772828507797,0.16797635474984876
14.03118040089087,0.02680979116985546
14.064587973273943,-0.09943847007367095
14.097995545657017,-0.1844113791674798
14.13140311804009,-0.2192397095963416
14.164810690423163,-0.21389139611131772
14.198218262806238,-0.19112413915909343
14.23162583518931,-0.17582768244238983
14.265033407572384,-0.18418570672601461
14.298440979955458,-0.216983405539229
14.331848552338531,-0.2596584887621984
14.365256124721604,-0.2889751965330751
14.398663697104679,-0.2834876590628266
14.432071269487752,-0.23333849139190138
14.465478841870825,-0.14517241173496215
14.4988864142539,-0.04003541934704997
14.532293986636972,0.05482161702319829
14.565701559020045,0.1167346473523139
14.59910913140312,0.13657845817049205
14.632516703786193,0.12242691424604929
14.665924276169266,0.09667242982109746
14.69933184855234,0.08769484628023617
14.732739420935413,0.11887096592247587
14.766146993318486,0.19853837805467286
14.79955456570156,0.31446288712664217
14.832962138084634,0.43531495910195395
14.866369710467707,0.5195733516787516
14.899777282850781,0.5295206469694422
14.933184855233854,0.44557360213910935
14.966592427616927,0.27534680943199585
15.0,0.053345529651987966
