Time (s),Filtered Signal
0.0,-0.0426722970383522
0.03337000366703337,-0.055502269971732916
0.06674000733406674,-0.0022040854840988167
0.1001100110011001,0.15568805837338573
0.13348001466813347,0.413016371269161
0.16685001833516683,0.7223243753046346
0.2002200220022002,1.0115752562708475
0.2335900256692336,1.2103244304117462
0.26696002933626695,1.2733973551244528
0.3003300330033003,1.1933077856819867
0.33370003667033366,0.9985143972498575
0.36707004033736707,0.7406762709478157
0.4004400440044004,0.4772609362408101
0.4338100476714338,0.25547551478925823
0.4671800513384672,0.10115510504310556
0.5005500550055005,0.014123329285349836
0.5339200586725339,-0.029470892581219793
0.5672900623395672,-0.06797380399617883
0.6006600660066006,-0.13977064320259672
0.634030069673634,-0.2674690417035559
0.6674000733406673,-0.44656044743783885
0.7007700770077008,-0.6440493807658569
0.7341400806747341,-0.8091213987561038
0.7675100843417675,-0.8925721638287374
0.8008800880088008,-0.8670887833501658
0.8342500916758342,-0.739219609941545
0.8676200953428675,-0.5470563697396088
0.9009900990099009,-0.344022897411581
0.9343601026769344,-0.1757130719894008
0.9677301063439677,-0.06025252576679602
1.001100110011001,0.018590873716092072
1.0344701136780343,0.10187881338271403
1.0678401173450678,0.23332036143120313
1.1012101210121013,0.4342109152978051
1.1345801246791345,0.6870781516872058
1.167950128346168,0.936198250070497
1.2013201320132012,1.105812290037823
1.2346901356802347,1.1288877010138807
1.268060139347268,0.9743606569874411
1.3014301430143014,0.6612948415868137
1.3348001466813346,0.2540325178129348
1.368170150348368,-0.15949697425794854
1.4015401540154016,-0.4973076373095367
1.4349101576824348,-0.709026064048631
1.4682801613494683,-0.7882758319482119
1.5016501650165015,-0.7682273836886506
1.535020168683535,-0.7035283763370637
1.5683901723505682,-0.6467472209518846
1.6017601760176017,-0.6288206126059503
1.6351301796846351,-0.6505763907099663
1.6685001833516684,-0.6873992245139597
1.7018701870187019,-0.703630881744402
1.735240190685735,-0.6696015405566224
1.7686101943527686,-0.5737778560364132
1.8019801980198018,-0.4254560628240382
1.8353502016868353,-0.24822637857902236
1.8687202053538687,-0.06865852991586892
1.902090209020902,0.0938126377849804
1.9354602126879354,0.23157559940680905
1.9688302163549687,0.3475785847061831
2.002200220022002,0.45080097978291894
2.0355702236890356,0.5519282107883643
2.0689402273560686,0.6608909883005212
2.102310231023102,0.7852577932446483
2.1356802346901356,0.9272904516617337
2.169050238357169,1.0789653684965268
2.2024202420242025,1.2173672760902865
2.2357902456912355,1.3049215446001075
2.269160249358269,1.2977354071982912
2.3025302530253025,1.1609916542958225
2.335900256692336,0.8854810311148011
2.369270260359369,0.497258152244002
2.4026402640264024,0.054705783135444684
2.436010267693436,-0.3671063738966307
2.4693802713604693,-0.6990227937148488
2.502750275027503,-0.8985351204386739
2.536120278694536,-0.9608462881760157
2.5694902823615693,-0.9167506412657725
2.6028602860286028,-0.819082710091805
2.636230289695636,-0.7233893899040157
2.6696002933626692,-0.6697347382308303
2.7029702970297027,-0.6712881149609204
2.736340300696736,-0.7126277914042162
2.7697103043637696,-0.757636145671127
2.803080308030803,-0.7641532214440325
2.836450311697836,-0.7005554451906222
2.8698203153648696,-0.5585695994817101
2.903190319031903,-0.35749478534190093
2.9365603226989365,-0.13783211802516523
2.96993032636597,0.05357784980717795
3.003300330033003,0.18111558428595576
3.0366703337000365,0.2334391642158519
3.07004033736707,0.2266352906843981
3.1034103410341034,0.1963485760301513
3.1367803447011364,0.18251662644252237
3.17015034836817,0.21333075855074476
3.2035203520352034,0.29502585953220073
3.236890355702237,0.41125833051376126
3.2702603593692703,0.5315315433319896
3.3036303630363033,0.624292126132477
3.3370003667033368,0.6686501111225233
3.3703703703703702,0.6599223435702547
3.4037403740374037,0.6076826643668708
3.4371103777044367,0.5287957866988978
3.47048038137147,0.43985846498182984
3.5038503850385037,0.35257402856899156
3.537220388705537,0.2727595433932883
3.5705903923725706,0.20115658627856012
3.6039603960396036,0.1338669552553389
3.637330399706637,0.06210727019024391
3.6707004033736705,-0.026798610442695308
3.704070407040704,-0.1449744747274412
3.7374404107077375,-0.29627425263051327
3.7708104143747705,-0.4689946872667899
3.804180418041804,-0.6344828385741944
3.8375504217088374,-0.7550414071088133
3.870920425375871,-0.799194594402224
3.904290429042904,-0.7569669122967051
3.9376604327099374,-0.6462493132291013
3.971030436376971,-0.505374071200422
4.004400440044004,-0.37476628378310073
4.037770443711038,-0.2772872131588352
4.071140447378071,-0.20819005482089684
4.104510451045105,-0.14033461614274878
4.137880454712137,-0.041535526743892257
4.171250458379171,0.10596927457508955
4.204620462046204,0.29475561091814534
4.237990465713238,0.49541826069375755
4.271360469380271,0.6707437871923351
4.304730473047305,0.7920168659189338
4.338100476714338,0.8484775079937811
4.3714704803813715,0.8459905760681027
4.404840484048405,0.7976602170977246
4.438210487715438,0.7133132355981493
4.471580491382471,0.594391834218963
4.5049504950495045,0.4367100396890906
4.538320498716538,0.23858323051758082
4.571690502383571,0.00888234415763408
4.605060506050605,-0.23009701011468467
4.638430509717638,-0.44700756697741634
4.671800513384672,-0.6111942728330317
4.705170517051705,-0.7031981249880563
4.738540520718738,-0.7211775584568183
4.771910524385771,-0.6806402755752661
4.805280528052805,-0.6082063916938238
4.838650531719838,-0.5326253743449478
4.872020535386872,-0.4766685578866542
4.905390539053905,-0.45199575600888736
4.938760542720939,-0.4570859566749535
4.972130546387972,-0.47739539266510955
5.005500550055006,-0.4875248719835559
5.038870553722038,-0.45632473935521783
5.072240557389072,-0.355874129038701
5.105610561056105,-0.17329457497979595
5.138980564723139,0.07867291436551367
5.172350568390172,0.3581994248447205
5.2057205720572055,0.6024449653029638
5.239090575724239,0.7468552327863006
5.272460579391272,0.7494622905242385
5.305830583058306,0.6102237381071098
5.3392005867253385,0.3762088441767817
5.372570590392372,0.128797773572626
5.405940594059405,-0.043348875136550495
5.439310597726439,-0.07551178434963371
5.472680601393472,0.04974937509817823
5.506050605060506,0.29611671605788953
5.539420608727539,0.5861314873155653
5.572790612394573,0.8278108859707702
5.606160616061606,0.9452495536552665
5.63953061972864,0.9023403267839699
5.672900623395672,0.7118124323828275
5.706270627062706,0.4272936853194659
5.739640630729739,0.1220819885749156
5.773010634396773,-0.1371411904867498
5.806380638063806,-0.3118161271949417
5.83975064173084,-0.40045110571650017
5.873120645397873,-0.43239610674155854
5.9064906490649065,-0.45009103494275077
5.93986065273194,-0.48804993678914643
5.9732306563989725,-0.5577040516479603
6.006600660066006,-0.6440420156144082
6.0399706637330395,-0.7144424328174804
6.073340667400073,-0.7348973731802169
6.106710671067106,-0.6862274287990681
6.14008067473414,-0.5736200414317353
6.173450678401173,-0.42601881972397054
6.206820682068207,-0.2858960710046415
6.24019068573524,-0.1932752416315068
6.273560689402273,-0.1697150946751313
6.306930693069306,-0.20806648429157384
6.34030069673634,-0.27218906842695884
6.373670700403373,-0.30770727485381166
6.407040704070407,-0.2609520192178431
6.44041070773744,-0.09972731606587762
6.473780711404474,0.17197016640356047
6.507150715071507,0.511554539588174
6.540520718738541,0.8495393207359428
6.573890722405573,1.1113636157994433
6.607260726072607,1.2410653595231598
6.64063072973964,1.2176558355885678
6.6740007334066735,1.0582184893653057
6.707370737073707,0.807542253495924
6.7407407407407405,0.5197832926393315
6.774110744407774,0.2405202643488825
6.807480748074807,-0.0036621489958168036
6.840850751741841,-0.20539792981784574
6.8742207554088735,-0.36907168587791683
6.907590759075907,-0.5012587649267664
6.94096076274294,-0.604367858601389
6.974330766409974,-0.6757880268417363
7.007700770077007,-0.7112829602997762
7.041070773744041,-0.7093145250492786
7.074440777411074,-0.6732358402067747
7.107810781078108,-0.6102298559749405
7.141180784745141,-0.5280711607815634
7.174550788412174,-0.43202569331635776
7.207920792079207,-0.3239861097852109
7.241290795746241,-0.2045284139920845
7.274660799413274,-0.07670639560914841
7.308030803080308,0.050972245504454464
7.341400806747341,0.16495236424475007
7.3747708104143745,0.25131608561528124
7.408140814081408,0.3029758684395494
7.4415108177484415,0.32549995440130564
7.474880821415475,0.33768053409961724
7.5082508250825075,0.36538133147430135
7.541620828749541,0.43077714602245254
7.5749908324165744,0.5416690962435637
7.608360836083608,0.6856006385197535
7.641730839750641,0.8311598931356783
7.675100843417675,0.9357363679181183
7.708470847084708,0.9568911033475107
7.741840850751742,0.8640950734883293
7.775210854418775,0.6482356984264562
7.808580858085808,0.3268777380291415
7.841950861752841,-0.0565543784246211
7.875320865419875,-0.44094555168064187
7.908690869086908,-0.7623305336367807
7.942060872753942,-0.9715403179095082
7.975430876420975,-1.0481890352584151
8.008800880088009,-1.0048398686703193
8.042170883755041,-0.8791863649375732
8.075540887422076,-0.7179281281921709
8.108910891089108,-0.5601875430362604
8.142280894756142,-0.42807370490239677
8.175650898423175,-0.3274332890421411
8.20902090209021,-0.2558360410666787
8.242390905757242,-0.21115145016359516
8.275760909424275,-0.19477401813298567
8.309130913091309,-0.20788832513957847
8.342500916758341,-0.2442100795251242
8.375870920425376,-0.2852366675638576
8.409240924092408,-0.3026645732740334
8.442610927759443,-0.26817244184202266
8.475980931426475,-0.1659342954454999
8.50935093509351,-0.0009662520065992557
8.542720938760542,0.20178426159453616
8.576090942427575,0.4077020984134533
8.60946094609461,0.5868744780942322
8.642830949761642,0.724856702019528
8.676200953428676,0.8241748309897504
8.709570957095709,0.8963676273746901
8.742940960762743,0.9499099381579033
8.776310964429776,0.9815242246106148
8.80968096809681,0.975924308609463
8.843050971763843,0.9137304063753842
8.876420975430875,0.7826337230077073
8.90979097909791,0.5855940617723838
8.943160982764942,0.3421831955625786
8.976530986431976,0.08316104301536076
9.009900990099009,-0.1585248388690693
9.043270993766043,-0.3562690199121906
9.076640997433076,-0.49497643329557245
9.11001100110011,-0.5720109900628626
9.143381004767143,-0.594870659586022
9.176751008434175,-0.5774624032185585
9.21012101210121,-0.5366918306756795
9.243491015768242,-0.4900560439143924
9.276861019435277,-0.45372462866314045
9.31023102310231,-0.4401275548267491
9.343601026769344,-0.45482377157389353
9.376971030436376,-0.4938964376308318
9.41034103410341,-0.544015939436597
9.443711037770443,-0.5865401605805235
9.477081041437476,-0.6047109837327104
9.51045104510451,-0.5906096718363809
9.543821048771543,-0.5478416336347143
9.577191052438577,-0.48774200543374885
9.61056105610561,-0.42042780568645866
9.643931059772644,-0.3453229528404768
9.677301063439677,-0.24688603920556984
9.710671067106711,-0.0992875522013166
9.744041070773743,0.12056844791171466
9.777411074440776,0.41693063998296476
9.81078107810781,0.7637632394332857
9.844151081774843,1.104645258814178
9.877521085441877,1.3661981588176269
9.91089108910891,1.4812987815380998
9.944261092775944,1.413537064314747
9.977631096442977,1.1729066308486384
10.011001100110011,0.8154630444677222
10.044371103777044,0.42582566032132746
10.077741107444076,0.08856569048666947
10.11111111111111,-0.1403715365593697
10.144481114778143,-0.25051978364891514
10.177851118445178,-0.2750026021690314
10.21122112211221,-0.27100190565751103
10.244591125779245,-0.29162756693547026
10.277961129446277,-0.3621434557373877
10.311331133113312,-0.4712697899937155
10.344701136780344,-0.5807962545208378
10.378071140447377,-0.6476794189265553
10.411441144114411,-0.6468076250963729
10.444811147781444,-0.5828248673320421
10.478181151448478,-0.4856394364615776
10.51155115511551,-0.3930511789053388
10.544921158782545,-0.3304957715389412
10.578291162449577,-0.29877539583040114
10.611661166116612,-0.27566321139798483
10.645031169783644,-0.2295261363093587
10.678401173450677,-0.13701509913962973
10.711771177117711,0.004452166655058596
10.745141180784744,0.17507120650276609
10.778511184451778,0.3415389674977479
10.81188118811881,0.47115053407648017
10.845251191785845,0.5441944593120693
10.878621195452878,0.5595476315919856
10.911991199119912,0.5320243964012434
10.945361202786945,0.48358621636977506
10.978731206453979,0.4326672381448162
11.012101210121012,0.38618765005045746
11.045471213788044,0.33748223109094927
11.078841217455079,0.2708966188617378
11.112211221122111,0.1710242987135101
11.145581224789145,0.03249147495434439
11.178951228456178,-0.1342573007875795
11.212321232123212,-0.30420208042480085
11.245691235790245,-0.4460116983714783
11.27906123945728,-0.5339898932952437
11.312431243124312,-0.5583091469039353
11.345801246791344,-0.5285624131994782
11.379171250458379,-0.46866878914320786
11.412541254125411,-0.40545846817268466
11.445911257792446,-0.3566111796602913
11.479281261459478,-0.3240534656597137
11.512651265126513,-0.29596351620652916
11.546021268793545,-0.25572154416390247
11.57939127246058,-0.19225906101922613
11.612761276127612,-0.10566605716206892
11.646131279794645,-0.005035900981257916
11.67950128346168,0.09950812050472081
11.712871287128712,0.20492158373557556
11.746241290795746,0.3176445794493829
11.779611294462779,0.44804101181238437
11.812981298129813,0.5997407591057974
11.846351301796846,0.7603061201247052
11.87972130546388,0.8994338128816977
11.913091309130913,0.9769845873183282
11.946461312797945,0.9577313589489814
11.97983131646498,0.8259317729492681
12.013201320132012,0.5928204343248189
12.046571323799046,0.29380433066810197
12.079941327466079,-0.022719894271907546
12.113311331133113,-0.30940433198401607
12.146681334800146,-0.5310562739873417
12.18005133846718,-0.6697082950018842
12.213421342134213,-0.7240930370411326
12.246791345801245,-0.7061413011414478
12.28016134946828,-0.6369906345851993
12.313531353135312,-0.5432894619014443
12.346901356802347,-0.45297787244298576
12.38027136046938,-0.3895777736713732
12.413641364136414,-0.36547937557919763
12.447011367803446,-0.376662305192834
12.48038137147048,-0.40215224217886425
12.513751375137513,-0.4102910667599771
12.547121378804546,-0.37087472601333915
12.58049138247158,-0.2688575850720064
12.613861386138613,-0.11349822895497022
12.647231389805647,0.0622044590776161
12.68060139347268,0.21316673677417858
12.713971397139714,0.30116484394438026
12.747341400806746,0.31300086962200235
12.78071140447378,0.2688585919747155
12.814081408140813,0.21537085643263296
12.847451411807846,0.20497447175406752
12.88082141547488,0.27042032077211964
12.914191419141913,0.4068024411259593
12.947561422808947,0.5707361181091917
12.98093142647598,0.6982348072219662
13.014301430143014,0.7333978173609976
13.047671433810047,0.6542008891856597
13.081041437477081,0.48270272564308514
13.114411441144114,0.27452425684854703
13.147781444811146,0.0927558063357295
13.18115144847818,-0.020802996073725075
13.214521452145213,-0.06300098645456988
13.247891455812248,-0.0672042201275754
13.28126145947928,-0.0834986043191099
13.314631463146315,-0.15169521762156887
13.348001466813347,-0.2806670907180495
13.381371470480381,-0.44376644180594127
13.414741474147414,-0.5917128640818067
13.448111477814447,-0.6758239391076948
13.481481481481481,-0.670004788326957
13.514851485148514,-0.5814112813697568
13.548221488815548,-0.4458741519038974
13.58159149248258,-0.3114949796847473
13.614961496149615,-0.21863271816750493
13.648331499816647,-0.18493264294102654
13.681701503483682,-0.20070733974899577
13.715071507150714,-0.2350884380052414
13.748441510817747,-0.2492815241348365
13.781811514484781,-0.21132796533226786
13.815181518151814,-0.1071209387660897
13.848551521818848,0.0556362612063719
13.88192152548588,0.25118497375363336
13.915291529152915,0.4452434389658244
13.948661532819948,0.6065269862677005
13.982031536486982,0.7159198546889247
14.015401540154015,0.7700092863894973
14.048771543821047,0.7780646458597422
14.082141547488082,0.754354191141286
14.115511551155114,0.7097210935571484
14.148881554822148,0.646571354806163
14.182251558489181,0.559594259133902
14.215621562156215,0.4414272594225856
14.248991565823248,0.2897083675381701
14.282361569490282,0.11116628546861122
14.315731573157315,-0.07979192885915438
14.349101576824348,-0.2670626466324298
14.382471580491382,-0.4394205322270292
14.415841584158414,-0.5931180950987902
14.449211587825449,-0.7284298279351282
14.482581591492481,-0.8422842632742477
14.515951595159516,-0.9223902611605178
14.549321598826548,-0.9481471781572647
14.582691602493583,-0.8997049107812587
14.616061606160615,-0.7709751337072542
14.649431609827648,-0.5787954143603781
14.682801613494682,-0.36152104395494783
14.716171617161715,-0.16590137663914256
14.749541620828749,-0.02800525179244975
14.782911624495782,0.04207840744257181
14.816281628162816,0.06361796321453461
14.849651631829849,0.07486092678642803
14.883021635496883,0.1143941361884116
14.916391639163916,0.20379775449552612
14.94976164283095,0.33976512125662534
14.983131646497982,0.49820146132848175
15.016501650165015,0.646479289397419
15.04987165383205,0.7566490844090454
15.083241657499082,0.8134288002373891
15.116611661166116,0.8148857011032777
15.149981664833149,0.7679667094332587
15.183351668500183,0.6829579845783957
15.216721672167216,0.5699665469160866
15.25009167583425,0.43795125759815173
15.283461679501283,0.29478024354887244
15.316831683168315,0.1466109261799336
15.35020168683535,-0.003623196387116981
15.383571690502382,-0.1571065750561154
15.416941694169417,-0.31746465120811057
15.45031169783645,-0.48594162531879587
15.483681701503484,-0.6552252190405216
15.517051705170516,-0.8054587856772512
15.55042170883755,-0.9058083694617171
15.583791712504583,-0.9227100197505026
15.617161716171616,-0.8326713864711536
15.65053171983865,-0.6348296103544158
15.683901723505683,-0.3576476865687792
15.717271727172717,-0.05564284916513749
15.75064173083975,0.20448395443394943
15.784011734506784,0.3645919475082581
15.817381738173816,0.39537432623553026
15.85075174184085,0.30772238343524905
15.884121745507883,0.1493551050678923
15.917491749174916,-0.013159878039322084
15.95086175284195,-0.11998515716645379
15.984231756508983,-0.13997468572785293
16.017601760176017,-0.07902753509939515
16.05097176384305,0.028571935953413674
16.084341767510082,0.1405976282954379
16.117711771177117,0.22795872374937973
16.15108177484415,0.28544240748229494
16.184451778511182,0.3273519104417438
16.217821782178216,0.37192498805729735
16.25119178584525,0.42459704641784735
16.284561789512285,0.47043406051867953
16.317931793179316,0.48039112229559194
16.35130179684635,0.4278037652737672
16.384671800513384,0.30544847246505935
16.41804180418042,0.13306660603135373
16.45141180784745,-0.049374326845546886
16.484781811514484,-0.199345196101063
16.51815181518152,-0.29087794649616006
16.55152181884855,-0.32490012672107743
16.584891822515583,-0.3254385003285456
16.618261826182618,-0.3241090015555854
16.651631829849652,-0.3416176415397853
16.685001833516683,-0.37644640339686913
16.718371837183717,-0.40678689313404526
16.75174184085075,-0.40441689170957235
16.785111844517782,-0.35261455115497237
16.818481848184817,-0.25795085413208263
16.85185185185185,-0.14912818036303538
16.885221855518886,-0.06316882204121192
16.918591859185916,-0.026330409420860023
16.95196186285295,-0.040211814949692566
16.985331866519985,-0.0808004667340245
17.01870187018702,-0.11109893514071317
17.05207187385405,-0.10039584970339246
17.085441877521085,-0.0395267095892701
17.11881188118812,0.05619229905510286
17.15218188485515,0.1575468975551762
17.185551888522184,0.23891637637136026
17.21892189218922,0.2922090466682877
17.252291895856253,0.3291575054166289
17.285661899523284,0.37103338675807995
17.319031903190318,0.43238827714224903
