Time (s),Filtered Signal
0.0,0.0414825335694048
0.03337008452774715,-0.06686942518897912
0.0667401690554943,-0.1458121466164958
0.10011025358324147,-0.1754795598804734
0.1334803381109886,-0.15230596657638837
0.16685042263873576,-0.08990286803311008
0.20022050716648293,-0.01350252277838256
0.23359059169423008,0.05028569682929181
0.2669606762219772,0.08438707352743291
0.30033076074972437,0.0880000257739989
0.3337008452774715,0.07578584735803988
0.36707092980521866,0.06955543190455218
0.40044101433296586,0.08631065514823492
0.433811098860713,0.1286722422008024
0.46718118338846015,0.18290730315603423
0.5005512679162073,0.22610775488698984
0.5339213524439544,0.23926917081763627
0.5672914369717016,0.21954585399480442
0.6006615214994487,0.18478089663703792
0.6340316060271959,0.16689897894332414
0.667401690554943,0.196345186445901
0.7007717750826902,0.2846631258623904
0.7341418596104373,0.4139285502741214
0.7675119441381845,0.539074602319046
0.8008820286659317,0.6033084280358777
0.8342521131936789,0.5605737667785748
0.867622197721426,0.39534849788913434
0.9009922822491732,0.13078633496818515
0.9343623667769203,-0.17888187783231438
0.9677324513046675,-0.4688052171669908
1.0011025358324146,-0.6880559617680043
1.0344726203601617,-0.8174401372787539
1.0678427048879089,-0.8726656985973315
1.101212789415656,-0.8916666807544602
1.1345828739434032,-0.9123457587829503
1.1679529584711503,-0.9516167427677426
1.2013230429988975,-0.9959965548175351
1.2346931275266446,-1.0082374867181985
1.2680632120543918,-0.9463865937089355
1.301433296582139,-0.7853499396259539
1.334803381109886,-0.5298848998497709
1.3681734656376332,-0.21265961449439705
1.4015435501653803,0.12086188371715312
1.4349136346931275,0.4318731653717429
1.4682837192208746,0.701144180236965
1.5016538037486218,0.9287376476958544
1.535023888276369,1.1218796687434258
1.568393972804116,1.2794475618464758
1.6017640573318634,1.38347488637712
1.6351341418596106,1.403679422582413
1.6685042263873577,1.3129810561598145
1.7018743109151049,1.1051856357146077
1.735244395442852,0.8045188319970946
1.7686144799705992,0.4612277091590959
1.8019845644983463,0.13512513834298653
1.8353546490260935,-0.12481791194127337
1.8687247335538406,-0.2952825046575025
1.9020948180815878,-0.38191838272918244
1.935464902609335,-0.41145140237987154
1.968834987137082,-0.41794132954170715
2.002205071664829,-0.4300318278280776
2.0355751561925763,-0.4638218361825854
2.0689452407203235,-0.5220526735753457
2.1023153252480706,-0.5972153212663349
2.1356854097758178,-0.6754810847198497
2.169055494303565,-0.7398048304571984
2.202425578831312,-0.7725683226355853
2.235795663359059,-0.7590404639349535
2.2691657478868064,-0.692082971437359
2.3025358324145535,-0.5766603594184658
2.3359059169423007,-0.43136447991531895
2.369276001470048,-0.28460172098279074
2.402646085997795,-0.16541712156311944
2.436016170525542,-0.09195561600852188
2.4693862550532892,-0.06251909102758668
2.5027563395810364,-0.053800085514761405
2.5361264241087835,-0.028132883105740945
2.5694965086365307,0.05229059255188155
2.602866593164278,0.20955036077235945
2.636236677692025,0.43889696553236834
2.669606762219772,0.7072306296942571
2.7029768467475193,0.9622175175707826
2.7363469312752664,1.148742815705773
2.7697170158030135,1.2263509424443078
2.8030871003307607,1.1810154039346017
2.836457184858508,1.0271991640245293
2.869827269386255,0.8004157161484647
2.903197353914002,0.5442375254269456
2.9365674384417493,0.29717389952656875
2.9699375229694964,0.08373960031934825
3.0033076074972436,-0.08848360944489911
3.0366776920249907,-0.22629254035784957
3.070047776552738,-0.3444951713759281
3.103417861080485,-0.4577199372052878
3.136787945608232,-0.5726052652914444
3.1701580301359793,-0.6829559630325761
3.203528114663727,-0.7703479950642177
3.236898199191474,-0.8111344289914089
3.270268283719221,-0.7878010145901791
3.3036383682469683,-0.6995718951323966
3.3370084527747155,-0.566305837905317
3.3703785373024626,-0.4224155203346207
3.4037486218302098,-0.30286875032355404
3.437118706357957,-0.22821200589535795
3.470488790885704,-0.19665287177485977
3.503858875413451,-0.1874057388683072
3.5372289599411983,-0.1729206091025914
3.5705990444689455,-0.1325013251752424
3.6039691289966926,-0.0595575079465637
3.63733921352444,0.04054549497514087
3.670709298052187,0.158633943569905
3.704079382579934,0.2887257385245853
3.7374494671076812,0.42823483898315867
3.7708195516354284,0.5713488781613355
3.8041896361631755,0.7012631438211133
3.8375597206909227,0.7886264223736579
3.87092980521867,0.799850096897957
3.904299889746417,0.7122758842721582
3.937669974274164,0.5280632889050904
3.9710400588019112,0.27846868904554456
4.004410143329658,0.015083792398042906
4.0377802278574055,-0.2084482941186127
4.071150312385153,-0.35577573769156096
4.1045203969129,-0.41941238525701646
4.137890481440647,-0.4197636507174574
4.171260565968394,-0.39285465002215275
4.204630650496141,-0.3729480068314371
4.238000735023888,-0.37794482480822555
4.2713708195516356,-0.4035446928346731
4.304740904079383,-0.4278123431191592
4.33811098860713,-0.42313115049560523
4.371481073134877,-0.36952813242708166
4.404851157662624,-0.26321574865965386
4.438221242190371,-0.1168439719923533
4.471591326718118,0.04789061329148004
4.504961411245866,0.2109269426674845
4.538331495773613,0.3619560719717778
4.57170158030136,0.5015534077838858
4.605071664829107,0.6346678970084454
4.638441749356854,0.7601371487411529
4.671811833884601,0.8626090793723307
4.7051819184123485,0.9127079738841195
4.738552002940096,0.8773190106637228
4.771922087467843,0.7361769631205235
4.80529217199559,0.49651429946531733
4.838662256523337,0.1971227863052556
4.872032341051084,-0.10232509350763472
4.905402425578831,-0.3433563368803356
4.9387725101065785,-0.49227871733080497
4.972142594634326,-0.5535806574727942
5.005512679162073,-0.5658811252897181
5.03888276368982,-0.5817009394272131
5.072252848217567,-0.6405045260411493
5.105622932745314,-0.7479475849695149
5.138993017273061,-0.8713210412787095
5.1723631018008085,-0.9534563107218843
5.205733186328556,-0.9387717669864423
5.239103270856303,-0.7997273063869091
5.27247335538405,-0.5519537385653358
5.305843439911797,-0.2514041050449431
5.339213524439544,0.025414247902613745
5.372583608967291,0.2100490435238596
5.4059536934950385,0.26796093894806067
5.439323778022786,0.21130452383759202
5.472693862550533,0.0937149781295398
5.50606394707828,-0.010539536834032292
5.539434031606027,-0.03453858852101397
5.572804116133774,0.05717214568441614
5.606174200661521,0.2572406825607086
5.6395442851892685,0.5202776899752196
5.672914369717016,0.7805308159066952
5.706284454244763,0.9746174514876009
5.73965453877251,1.060528163205238
5.773024623300257,1.0268549816433235
5.806394707828004,0.8909062879750743
5.839764792355751,0.6886567526017616
5.873134876883499,0.4616207164617574
5.906504961411246,0.24543454339491572
5.939875045938993,0.06307523937566335
5.97324513046674,-0.07658060231098125
6.006615214994487,-0.1759388593301732
6.039985299522234,-0.2437071733990694
6.073355384049981,-0.28999763319397004
6.106725468577729,-0.3231055393054607
6.140095553105476,-0.3484242364710482
6.173465637633223,-0.36891196161708784
6.20683572216097,-0.38607992152171033
6.240205806688717,-0.400715600306969
6.273575891216464,-0.4131220705228524
6.3069459757442115,-0.4230467936852917
6.340316060271959,-0.4294934778064409
6.373686144799706,-0.430470688164678
6.407056229327454,-0.42275650877781984
6.440426313855201,-0.4019899527873658
6.473796398382948,-0.3635224767358671
6.507166482910695,-0.30415526787166974
6.540536567438442,-0.2242201733368415
6.5739066519661895,-0.12891149865355894
6.607276736493937,-0.0278310948911305
6.640646821021684,0.0675424226400209
6.674016905549431,0.14768257590835832
6.707386990077178,0.2085417945635563
6.740757074604925,0.25303141245552613
6.774127159132672,0.2893897631374445
6.8074972436604195,0.3267012036230039
6.840867328188167,0.36931501932587774
6.874237412715914,0.4128460583716107
6.907607497243661,0.4441701585862304
6.940977581771408,0.44619177000084326
6.974347666299155,0.405761979493068
7.007717750826902,0.3211810785348153
7.0410878353546495,0.2054239486579159
7.074457919882397,0.08296683234746048
7.107828004410144,-0.0189065862246812
7.141198088937891,-0.0807385705776047
7.174568173465638,-0.09889292722034893
7.207938257993385,-0.0874813744011547
7.241308342521132,-0.07335998473689008
7.27467842704888,-0.08602308291024673
7.308048511576627,-0.14595645207277125
7.341418596104374,-0.2554243761554075
7.374788680632121,-0.39494866135571643
7.408158765159868,-0.5272107779485081
7.441528849687615,-0.6079925909290431
7.4748989342153624,-0.6013562660026986
7.50826901874311,-0.49417577565170434
7.541639103270857,-0.30431788035647056
7.575009187798604,-0.07807567370974124
7.608379272326351,0.12398442312348787
7.641749356854098,0.24878598469611465
7.675119441381845,0.27205431600214747
7.7084895259095925,0.20994564043810293
7.74185961043734,0.11473173864918555
7.775229694965087,0.05471078104884929
7.808599779492834,0.08577497193265321
7.841969864020581,0.2266144564818888
7.875339948548328,0.4487517236349376
7.908710033076075,0.6863770842704644
7.9420801176038225,0.8620461946862398
7.97545020213157,0.9170159419804866
8.008820286659317,0.8329481222847206
8.042190371187063,0.6359073745769874
8.075560455714811,0.38192289258899764
8.108930540242557,0.13178466933022506
8.142300624770305,-0.07281068804299062
8.175670709298052,-0.22115466095106462
8.2090407938258,-0.3293543343111276
8.242410878353546,-0.4240963132981921
8.275780962881294,-0.5239498802030873
8.30915104740904,-0.6281485031771854
8.342521131936788,-0.7179334326389619
8.375891216464534,-0.7683582170792377
8.409261300992283,-0.7629825533825504
8.442631385520029,-0.7030287994016888
8.476001470047777,-0.606455702199225
8.509371554575523,-0.49844297443891605
8.542741639103271,-0.3993937742021636
8.57611172363102,-0.3173078190715065
8.609481808158765,-0.24820840818072304
8.642851892686513,-0.18332698310225165
8.67622197721426,-0.11785606288130429
8.709592061742008,-0.055376538746724616
8.742962146269754,-0.004835394520907602
8.776332230797502,0.028386155738663446
8.809702315325248,0.05180704787455597
8.843072399852996,0.08906608670372747
8.876442484380743,0.17320730025734268
8.90981256890849,0.3314181086453854
8.943182653436237,0.5677135716867758
8.976552737963985,0.8523230911528487
9.009922822491731,1.1244924839866473
9.04329290701948,1.3097094532422913
9.076662991547225,1.3455494396183538
9.110033076074973,1.205717098906487
9.14340316060272,0.9118565919754854
9.176773245130468,0.5276067610352239
9.210143329658214,0.1370353263836562
9.243513414185962,-0.18362628477496665
9.276883498713708,-0.3893849574388026
9.310253583241456,-0.47616093480351823
9.343623667769203,-0.4743986240370031
9.37699375229695,-0.43129227335790277
9.410363836824697,-0.3904843075980389
9.443733921352445,-0.3778080182700069
9.477104005880191,-0.3975934455650365
9.51047409040794,-0.4386258948420222
9.543844174935685,-0.48474735861028756
9.577214259463434,-0.5240198613703154
9.61058434399118,-0.5523591137346425
9.643954428518928,-0.5711799552147432
9.677324513046674,-0.5818632264315677
9.710694597574422,-0.5811730928109551
9.744064682102168,-0.5606681485295962
9.777434766629916,-0.5104549096313088
9.810804851157663,-0.4249145252554235
9.84417493568541,-0.30682999263098915
9.877545020213157,-0.16730837302497686
9.910915104740905,-0.02142130201835807
9.944285189268651,0.11796258986179521
9.9776552737964,0.24465349824972338
10.011025358324146,0.35950770066337046
10.044395442851894,0.4667287187985605
10.07776552737964,0.5684408978257531
10.111135611907388,0.6606769095532014
10.144505696435134,0.7329096554971397
10.177875780962882,0.7711969473190395
10.211245865490628,0.7631531951608728
10.244615950018376,0.70229546854591
10.277986034546123,0.5900330390445983
10.31135611907387,0.43508243202518543
10.344726203601617,0.2514058012876125
10.378096288129365,0.05612017041091017
10.411466372657111,-0.13187646128246172
10.44483645718486,-0.2929503075740218
10.478206541712606,-0.4085201539556569
10.511576626240354,-0.46434511841528325
10.5449467107681,-0.4549001590500701
10.578316795295848,-0.38715071452694
10.611686879823594,-0.28150995989933186
10.645056964351342,-0.16842784166349742
10.678427048879088,-0.08071842429116327
10.711797133406836,-0.043680492866148946
10.745167217934583,-0.06644762981615
10.77853730246233,-0.1381268485079061
10.811907386990077,-0.23087590576457093
10.845277471517825,-0.3094557875360831
10.878647556045571,-0.34393198975631084
10.91201764057332,-0.3204012119662997
10.945387725101066,-0.24498631210150001
10.978757809628814,-0.13909081592893296
11.01212789415656,-0.028018706039859693
11.045497978684308,0.0714299577152715
11.078868063212054,0.15788432314199644
11.112238147739802,0.24291310679634717
11.145608232267548,0.34017962423049036
11.178978316795297,0.45213039283700984
11.212348401323043,0.5619763285360687
11.24571848585079,0.6363208944315136
11.279088570378537,0.6382019303371254
11.312458654906285,0.5445544816449871
11.345828739434031,0.35940528657542076
11.37919882396178,0.1160265524481234
11.412568908489526,-0.13326485422994788
11.445938993017274,-0.33502729535603926
11.47930907754502,-0.452439456904331
11.512679162072768,-0.47584975140271224
11.546049246600514,-0.4231124404419884
11.579419331128262,-0.3312535240068125
11.612789415656009,-0.2437460002045168
11.646159500183757,-0.1978053940064752
11.679529584711503,-0.21459810436362647
11.71289966923925,-0.293707916489887
11.746269753766997,-0.41256562144323816
11.779639838294745,-0.5314683547387213
11.813009922822491,-0.604205811798366
11.84638000735024,-0.5924899422145544
11.879750091877986,-0.47992854862549883
11.913120176405734,-0.2798467373195553
11.94649026093348,-0.03244735576029419
11.979860345461228,0.20913537401971355
12.013230429988974,0.3990158558305144
12.046600514516722,0.5163128522633929
12.079970599044469,0.5719693988945914
12.113340683572217,0.6007043349057652
12.146710768099963,0.6412552628895333
12.180080852627711,0.7141669648016232
12.213450937155457,0.8081746649786822
12.246821021683205,0.8824687379241937
12.280191106210951,0.8844321926455415
12.3135611907387,0.7746460054518676
12.346931275266446,0.5471470415314171
12.380301359794194,0.23520058469019442
12.41367144432194,-0.09993234561765768
12.447041528849688,-0.391441857813269
12.480411613377434,-0.5898448097461294
12.513781697905182,-0.6763014360881034
12.547151782432929,-0.6621624626258737
12.580521866960677,-0.5777711193914797
12.613891951488423,-0.4581447115242762
12.647262036016171,-0.33287319274123933
12.680632120543917,-0.2232170546086461
12.714002205071665,-0.14416707868445477
12.747372289599411,-0.10657929842952629
12.78074237412716,-0.11587821958539588
12.814112458654908,-0.16787325729600563
12.847482543182654,-0.24580987511571567
12.880852627710402,-0.32310034778372954
12.914222712238148,-0.3727339363924131
12.947592796765896,-0.3793321931678275
12.980962881293642,-0.346735694688637
13.01433296582139,-0.2954480969214123
13.047703050349137,-0.24990765906620574
13.081073134876885,-0.22210934873546204
13.114443219404631,-0.2012674876336914
13.147813303932379,-0.156566411034905
13.181183388460125,-0.05281577545783279
13.214553472987873,0.1287622467200066
13.24792355751562,0.3757520305365335
13.281293642043368,0.6440007408344052
13.314663726571114,0.8720775811140364
13.348033811098862,1.00380608259996
13.381403895626608,1.008256622170073
13.414773980154356,0.8886017919783257
13.448144064682102,0.6773321525775142
13.48151414920985,0.4218558864704754
13.514884233737597,0.1680785379498295
13.548254318265345,-0.051125186858949324
13.581624402793091,-0.21943833300551968
13.614994487320839,-0.33390766533942284
13.648364571848585,-0.39896878794542673
13.681734656376333,-0.421630657519817
13.71510474090408,-0.4097473915998194
13.748474825431828,-0.37282004436574384
13.781844909959574,-0.32323985422088014
13.815214994487322,-0.2759049852778939
13.848585079015068,-0.24538019560711277
13.881955163542816,-0.24137172468460155
13.915325248070562,-0.2644395407577121
13.94869533259831,-0.3041052865981585
13.982065417126057,-0.34076492806416914
14.015435501653805,-0.3513224833959823
14.048805586181551,-0.3167580553333799
14.082175670709299,-0.2286983854027248
14.115545755237045,-0.09219836074069938
14.148915839764793,0.07643287639275777
14.18228592429254,0.2554927154327252
14.215656008820288,0.4242688763215831
14.249026093348034,0.5666613857897786
14.282396177875782,0.670652365252347
14.315766262403528,0.7250902786585625
14.349136346931276,0.7172955797663341
14.382506431459023,0.6348080436004293
14.41587651598677,0.47206148348877963
14.449246600514517,0.23922220825475005
14.482616685042265,-0.03205349503990267
14.515986769570011,-0.2909459203557181
14.54935685409776,-0.47967577471837614
14.582726938625505,-0.552578381590557
14.616097023153253,-0.4949702602180517
14.649467107681,-0.3334660225609639
14.682837192208748,-0.13177876406833183
14.716207276736494,0.028681115892202586
14.749577361264242,0.07782800445461924
14.782947445791988,-0.014879380396839236
14.816317530319736,-0.22470632868631313
14.849687614847483,-0.4765947074586511
14.88305769937523,-0.6713084285939178
14.916427783902977,-0.7240293840678618
14.949797868430725,-0.5999500233337585
14.983167952958471,-0.33101708031870575
15.01653803748622,-0.005124961482379885
15.049908122013965,0.2688832222817537
15.083278206541713,0.4056937258343467
15.11664829106946,0.37791846155689124
15.150018375597208,0.22524681872239333
15.183388460124954,0.034835963007753
15.216758544652702,-0.09742549229966085
15.250128629180448,-0.10690342562947559
15.283498713708196,0.015989467867243267
15.316868798235943,0.22717717086569528
15.35023888276369,0.45245895702166217
15.383608967291437,0.6205348185563697
15.416979051819185,0.6899260662395256
15.450349136346931,0.658833132445735
15.48371922087468,0.5562892405568289
15.517089305402425,0.42203590669678714
15.550459389930174,0.2869377834989234
15.58382947445792,0.1637086554000824
15.617199558985668,0.05084302591334208
15.650569643513414,-0.05510245398188841
15.683939728041162,-0.1481716020703813
15.717309812568908,-0.210773781285755
15.750679897096656,-0.22279087509014414
15.784049981624403,-0.17695923254319967
15.81742006615215,-0.09094221746166747
15.850790150679897,-0.007458773178869743
15.884160235207645,0.020064475800082797
15.917530319735391,-0.0492138907364023
15.95090040426314,-0.2224682234690863
15.984270488790886,-0.4654081065135246
16.017640573318634,-0.7127492399622963
16.05101065784638,-0.8928564116186753
16.084380742374126,-0.9552302030874396
16.117750826901876,-0.8881189370912069
16.151120911429622,-0.7187601747674937
16.18449099595737,-0.49761606618229937
16.217861080485115,-0.27552083341613803
16.251231165012864,-0.08496807730970397
16.28460124954061,0.06686856623888623
16.317971334068357,0.19269070135482608
16.351341418596103,0.3125302935527464
16.384711503123853,0.4415037790076698
16.4180815876516,0.583086614329144
16.451451672179346,0.7288828250469385
16.484821756707092,0.8624742011653923
16.51819184123484,0.9641174253486454
16.551561925762588,1.014480232597763
16.584932010290334,0.9975476993304014
16.61830209481808,0.9036507084501276
16.65167217934583,0.7328541607292521
16.685042263873576,0.4975680454481506
16.718412348401323,0.22252500573102854
16.75178243292907,-0.059071213789351366
16.78515251745682,-0.31271050706962705
16.818522601984565,-0.5108261525073359
16.85189268651231,-0.6391884496641105
16.885262771040058,-0.6991403959483856
16.918632855567807,-0.7049974262061371
16.952002940095554,-0.6777837598112632
16.9853730246233,-0.6377972151846978
17.018743109151046,-0.5987768355737018
17.052113193678796,-0.5655814302722745
17.085483278206542,-0.5356364012647994
17.11885336273429,-0.5027449078739129
17.15222344726204,-0.46103287966224976
17.185593531789785,-0.4072117520420437
17.21896361631753,-0.3406497736665127
17.252333700845277,-0.2620457549876795
17.285703785373027,-0.17199622563002548
17.319073869900773,-0.07031288458796348
