Time (s),Filtered Signal
0.0,0.04736217571538527
0.03337008452774715,-0.35473879388515334
0.0667401690554943,-0.6322359344964298
0.10011025358324147,-0.7093912950590335
0.1334803381109886,-0.5880322850656685
0.16685042263873576,-0.34247824951547157
0.20022050716648293,-0.08472165285469851
0.23359059169423008,0.08360078803806817
0.2669606762219772,0.1108235901917173
0.30033076074972437,0.009946163103358554
0.3337008452774715,-0.155638136852673
0.36707092980521866,-0.3059560384208645
0.40044101433296586,-0.380447925731774
0.433811098860713,-0.3597127262368589
0.46718118338846015,-0.2650955226248168
0.5005512679162073,-0.1394571189052267
0.5339213524439544,-0.02084664904364677
0.5672914369717016,0.07719940463587459
0.6006615214994487,0.16950431369832572
0.6340316060271959,0.2862849616915277
0.667401690554943,0.45053820211754675
0.7007717750826902,0.6575088213686656
0.7341418596104373,0.8671598382482061
0.7675119441381845,1.014684787244146
0.8008820286659317,1.0355261397970101
0.8342521131936789,0.8938802259444959
0.867622197721426,0.6010379351493118
0.9009922822491732,0.21399022469840162
0.9343623667769203,-0.18592000284189067
0.9677324513046675,-0.5244342080603007
1.0011025358324146,-0.7607045269129769
1.0344726203601617,-0.8959821360528943
1.0678427048879089,-0.9616118279665962
1.101212789415656,-0.9942956311735901
1.1345828739434032,-1.0128955185002346
1.1679529584711503,-1.0091978908730714
1.2013230429988975,-0.9564686041214464
1.2346931275266446,-0.8294958089849078
1.2680632120543918,-0.6238765350794583
1.301433296582139,-0.3634993267476492
1.334803381109886,-0.0923003757226553
1.3681734656376332,0.14486412112542604
1.4015435501653803,0.3217475411965044
1.4349136346931275,0.44036976861554883
1.4682837192208746,0.5260850321418278
1.5016538037486218,0.6110860062571847
1.535023888276369,0.7152223312374395
1.568393972804116,0.8340660294800648
1.6017640573318634,0.940077298996492
1.6351341418596106,0.9958322901836205
1.6685042263873577,0.9722436924171152
1.7018743109151049,0.8625786959504848
1.735244395442852,0.685705780817851
1.7686144799705992,0.47772421539073745
1.8019845644983463,0.27681230556210523
1.8353546490260935,0.10889615852472215
1.8687247335538406,-0.01952916423549984
1.9020948180815878,-0.11929721762546791
1.935464902609335,-0.20966458092871418
1.968834987137082,-0.30768350817642404
2.002205071664829,-0.42058147454550676
2.0355751561925763,-0.5433973284944039
2.0689452407203235,-0.6613503780790376
2.1023153252480706,-0.7549018091812694
2.1356854097758178,-0.8055575266171933
2.169055494303565,-0.8013194542430542
2.202425578831312,-0.7411561530334728
2.235795663359059,-0.6374812597236811
2.2691657478868064,-0.5150404968168791
2.3025358324145535,-0.40494993570942817
2.3359059169423007,-0.33443289245458213
2.369276001470048,-0.31535249687574024
2.402646085997795,-0.3363493358980591
2.436016170525542,-0.36293412624940036
2.4693862550532892,-0.34710288856894483
2.5027563395810364,-0.24407194947078684
2.5361264241087835,-0.03034804835702958
2.5694965086365307,0.28388621741679554
2.602866593164278,0.6534801417271007
2.636236677692025,1.0095238210733362
2.669606762219772,1.2795938220863046
2.7029768467475193,1.4098575487996894
2.7363469312752664,1.3809595665710757
2.7697170158030135,1.2119947105784858
2.8030871003307607,0.9515454730229534
2.836457184858508,0.6597395162892448
2.869827269386255,0.3884978759596512
2.903197353914002,0.16734105380938202
2.9365674384417493,-0.0006389830183122474
2.9699375229694964,-0.13244732802427395
3.0033076074972436,-0.2524376167095953
3.0366776920249907,-0.37922571526227344
3.070047776552738,-0.5176912773004453
3.103417861080485,-0.6585128465798639
3.136787945608232,-0.7839103395024739
3.1701580301359793,-0.8756064502550327
3.203528114663727,-0.9207422798180795
3.236898199191474,-0.9135132814886427
3.270268283719221,-0.8532593919090551
3.3036383682469683,-0.7418450201118378
3.3370084527747155,-0.5832229685230985
3.3703785373024626,-0.38613476797839574
3.4037486218302098,-0.1681211890567321
3.437118706357957,0.042920035943933295
3.470488790885704,0.21309501296467137
3.503858875413451,0.3133906085578573
3.5372289599411983,0.33339134054597336
3.5705990444689455,0.29087315804511316
3.6039691289966926,0.2304379472079797
3.63733921352444,0.20872584648957485
3.670709298052187,0.27063543286772335
3.704079382579934,0.4267270860029156
3.7374494671076812,0.6430371097246326
3.7708195516354284,0.8497119537504184
3.8041896361631755,0.9662874097882588
3.8375597206909227,0.9333972250350984
3.87092980521867,0.7373141369508186
3.904299889746417,0.41668893344029717
3.937669974274164,0.04863774934027533
3.9710400588019112,-0.2798127987355743
4.004410143329658,-0.5029541850977801
4.0377802278574055,-0.5976504639798034
4.071150312385153,-0.5865481021133139
4.1045203969129,-0.5228901780782174
4.137890481440647,-0.46423189744222504
4.171260565968394,-0.44681810356423585
4.204630650496141,-0.47178084481088084
4.238000735023888,-0.5088007542203643
4.2713708195516356,-0.5147699599665388
4.304740904079383,-0.4579562328279213
4.33811098860713,-0.335577412203949
4.371481073134877,-0.1759498064632702
4.404851157662624,-0.024045535189035096
4.438221242190371,0.0822991446848341
4.471591326718118,0.13329941087167804
4.504961411245866,0.15405254513842742
4.538331495773613,0.19277987816875838
4.57170158030136,0.2952565150359456
4.605071664829107,0.4775646810248071
4.638441749356854,0.710988524751923
4.671811833884601,0.9277311202698325
4.7051819184123485,1.046372457400196
4.738552002940096,1.0062471602564869
4.771922087467843,0.7950931926950519
4.80529217199559,0.4570114781139088
4.838662256523337,0.07679743672626393
4.872032341051084,-0.2524031016773603
4.905402425578831,-0.46376990541746743
4.9387725101065785,-0.5390025826231997
4.972142594634326,-0.5094968283541501
5.005512679162073,-0.43761675937290395
5.03888276368982,-0.3875754478291521
5.072252848217567,-0.39898314751764696
5.105622932745314,-0.47373683584568704
5.138993017273061,-0.5802222489145903
5.1723631018008085,-0.6710935950862268
5.205733186328556,-0.705581886492958
5.239103270856303,-0.6663715280614285
5.27247335538405,-0.5644960444102223
5.305843439911797,-0.43152538935927404
5.339213524439544,-0.3038112729091278
5.372583608967291,-0.20641925771991335
5.4059536934950385,-0.14368672950164849
5.439323778022786,-0.09979821970697421
5.472693862550533,-0.04815095439291445
5.50606394707828,0.03541552526254281
5.539434031606027,0.16179499408546516
5.572804116133774,0.324974169916471
5.606174200661521,0.506650576848886
5.6395442851892685,0.6859038544617466
5.672914369717016,0.848029696853773
5.706284454244763,0.9872201067343177
5.73965453877251,1.1016211931960014
5.773024623300257,1.1843718635558629
5.806394707828004,1.2173790294431244
5.839764792355751,1.1735448602399408
5.873134876883499,1.0281875285025877
5.906504961411246,0.774342919581258
5.939875045938993,0.43325362643964804
5.97324513046674,0.05295255879058967
6.006615214994487,-0.30617291144166725
6.039985299522234,-0.5928388604316754
6.073355384049981,-0.7831501687422786
6.106725468577729,-0.8867251997126164
6.140095553105476,-0.9377144657240792
6.173465637633223,-0.9753427104809693
6.20683572216097,-1.0236360579154211
6.240205806688717,-1.0799790173727786
6.273575891216464,-1.1173948653487302
6.3069459757442115,-1.0986602830222767
6.340316060271959,-0.9950180746215256
6.373686144799706,-0.8007744346416046
6.407056229327454,-0.5377680161856987
6.440426313855201,-0.24880432135149896
6.473796398382948,0.016095168074120682
6.507166482910695,0.21457056981282066
6.540536567438442,0.3227469041391568
6.5739066519661895,0.3396395553474838
6.607276736493937,0.2856435716564164
6.640646821021684,0.19709032099943716
6.674016905549431,0.11869478583840691
6.707386990077178,0.0947352155082402
6.740757074604925,0.15921508680624955
6.774127159132672,0.3258341219415735
6.8074972436604195,0.5801498550726863
6.840867328188167,0.8776788525305802
6.874237412715914,1.1513254238179562
6.907607497243661,1.328562910243864
6.940977581771408,1.3540009467413956
6.974347666299155,1.208870565660885
7.007717750826902,0.9185318063981324
7.0410878353546495,0.5436615407313125
7.074457919882397,0.15847754213004575
7.107828004410144,-0.1741202303905258
7.141198088937891,-0.41934527280411626
7.174568173465638,-0.5730351314048955
7.207938257993385,-0.6516954008944803
7.241308342521132,-0.6780203747152763
7.27467842704888,-0.6705029407934667
7.308048511576627,-0.6412007210177219
7.341418596104374,-0.5995266576773618
7.374788680632121,-0.5563050093041088
7.408158765159868,-0.5233332458544852
7.441528849687615,-0.5080835228398386
7.4748989342153624,-0.5075787582362224
7.50826901874311,-0.5067793924684667
7.541639103270857,-0.4842095905133428
7.575009187798604,-0.4228629386407542
7.608379272326351,-0.32072274248222515
7.641749356854098,-0.1947914517515753
7.675119441381845,-0.07555663304421403
7.7084895259095925,0.006412380093540011
7.74185961043734,0.036024101933877554
7.775229694965087,0.024249246518495596
7.808599779492834,0.008271029808062429
7.841969864020581,0.03973140891203177
7.875339948548328,0.16441433488241342
7.908710033076075,0.40064771532580407
7.9420801176038225,0.7252375712570152
7.97545020213157,1.0738825009304145
8.008820286659317,1.3578858798850513
8.042190371187063,1.4922663242134457
8.075560455714811,1.4249687652622811
8.108930540242557,1.1556167892350027
8.142300624770305,0.736164564670397
8.175670709298052,0.2532941744924827
8.2090407938258,-0.2000869497987746
8.242410878353546,-0.5529088837428696
8.275780962881294,-0.7733880998160807
8.30915104740904,-0.8709929439924561
8.342521131936788,-0.8846368931898461
8.375891216464534,-0.8636167977699375
8.409261300992283,-0.8491293351264663
8.442631385520029,-0.8622372142837333
8.476001470047777,-0.9005613905007721
8.509371554575523,-0.9426841200253748
8.542741639103271,-0.9574334279593897
8.57611172363102,-0.9148992991050853
8.609481808158765,-0.7964645939655904
8.642851892686513,-0.6016166107773124
8.67622197721426,-0.34973157493679474
8.709592061742008,-0.07580367093793584
8.742962146269754,0.17941615958023735
8.776332230797502,0.38239495560789716
8.809702315325248,0.5186870259127886
8.843072399852996,0.5989700474219156
8.876442484380743,0.6558622591918662
8.90981256890849,0.7312397208066396
8.943182653436237,0.8577353733561296
8.976552737963985,1.0413612826279877
9.009922822491731,1.2530350933842644
9.04329290701948,1.4341684434757624
9.076662991547225,1.5158625341996885
9.110033076074973,1.4448927065800128
9.14340316060272,1.2057231466022316
9.176773245130468,0.8286805014111758
9.210143329658214,0.38019364556349344
9.243513414185962,-0.06092384827605522
9.276883498713708,-0.43079002000657374
9.310253583241456,-0.6995281987542967
9.343623667769203,-0.8743960786010012
9.37699375229695,-0.9869211748877059
9.410363836824697,-1.0713582791774197
9.443733921352445,-1.145317614729307
9.477104005880191,-1.2015897446074644
9.51047409040794,-1.2142059488396912
9.543844174935685,-1.1547940144802669
9.577214259463434,-1.0107142522676988
9.61058434399118,-0.796160565409883
9.643954428518928,-0.5510268017774375
9.677324513046674,-0.3278661175939881
9.710694597574422,-0.17230721746292452
9.744064682102168,-0.10502514905521666
9.777434766629916,-0.11292820750629737
9.810804851157663,-0.15369622489157797
9.84417493568541,-0.1722823729114611
9.877545020213157,-0.12259555556668789
9.910915104740905,0.015092202929716504
9.944285189268651,0.2286722677703663
9.9776552737964,0.4825036103044577
10.011025358324146,0.7343795785180772
10.044395442851894,0.9518130215031477
10.07776552737964,1.1193267433464096
10.111135611907388,1.2342017792764899
10.144505696435134,1.2952126360544607
10.177875780962882,1.2929884705179686
10.211245865490628,1.2093061291790306
10.244615950018376,1.0267251709749174
10.277986034546123,0.7431839508821302
10.31135611907387,0.3826201021232287
10.344726203601617,-0.005592370421709759
10.378096288129365,-0.35972449136833035
10.411466372657111,-0.6260181719202107
10.44483645718486,-0.7771733959594505
10.478206541712606,-0.8206806360097361
10.511576626240354,-0.7933823293966971
10.5449467107681,-0.7448339628186019
10.578316795295848,-0.7167852128349222
10.611686879823594,-0.7273722766257434
10.645056964351342,-0.7660903133304037
10.678427048879088,-0.8007201766113964
10.711797133406836,-0.7924535695692979
10.745167217934583,-0.7125674380975486
10.77853730246233,-0.5540661260068402
10.811907386990077,-0.33432751386951226
10.845277471517825,-0.08861424282169253
10.878647556045571,0.14228233596227527
10.91201764057332,0.325269571072394
10.945387725101066,0.4444158196815078
10.978757809628814,0.5039221237873371
11.01212789415656,0.5242809151937612
11.045497978684308,0.5332958945840958
11.078868063212054,0.554900851220596
11.112238147739802,0.5993277353270438
11.145608232267548,0.65812509795994
11.178978316795297,0.7064652779048413
11.212348401323043,0.7127882446180497
11.24571848585079,0.6525675213898473
11.279088570378537,0.5203659749747492
11.312458654906285,0.334222886998889
11.345828739434031,0.12954535963987177
11.37919882396178,-0.05518289177350409
11.412568908489526,-0.19419320784740815
11.445938993017274,-0.2840348903013088
11.47930907754502,-0.3423553863059185
11.512679162072768,-0.3966995512119023
11.546049246600514,-0.4691149992783177
11.579419331128262,-0.5642201043977998
11.612789415656009,-0.6663655125336435
11.646159500183757,-0.7467951744567769
11.679529584711503,-0.7767703046249124
11.71289966923925,-0.7399418952898384
11.746269753766997,-0.6381185322893329
11.779639838294745,-0.488428069718758
11.813009922822491,-0.3145845658327074
11.84638000735024,-0.1378837312054838
11.879750091877986,0.02706085428626021
11.913120176405734,0.17058798606990153
11.94649026093348,0.2834553594560292
11.979860345461228,0.3547313832671535
12.013230429988974,0.37540981730522666
12.046600514516722,0.3463489482396176
12.079970599044469,0.2849538663784573
12.113340683572217,0.22445342122224307
12.146710768099963,0.20342463282150855
12.180080852627711,0.24920418299540942
12.213450937155457,0.36326554658810384
12.246821021683205,0.5166435966484588
12.280191106210951,0.6588361354250655
12.3135611907387,0.7368479065768531
12.346931275266446,0.7158867895029248
12.380301359794194,0.592401741076999
12.41367144432194,0.3939716577578034
12.447041528849688,0.16688985465298778
12.480411613377434,-0.04215375314791135
12.513781697905182,-0.20181081244243965
12.547151782432929,-0.3029033843575254
12.580521866960677,-0.35494740049783235
12.613891951488423,-0.37595137472382506
12.647262036016171,-0.3816052349369968
12.680632120543917,-0.37911258164996303
12.714002205071665,-0.36758062561397453
12.747372289599411,-0.3431517889518668
12.78074237412716,-0.3049422645003853
12.814112458654908,-0.25820848544318503
12.847482543182654,-0.2133903837435809
12.880852627710402,-0.18221449074117183
12.914222712238148,-0.17335930174072048
12.947592796765896,-0.18974231875269335
12.980962881293642,-0.22795815349926776
13.01433296582139,-0.27906278172637183
13.047703050349137,-0.3296483241723979
13.081073134876885,-0.36289455411444477
13.114443219404631,-0.36019666646787973
13.147813303932379,-0.30424796802185483
13.181183388460125,-0.18385878998749294
13.214553472987873,0.0003589188184910278
13.24792355751562,0.23145070907468937
13.281293642043368,0.4752907770815847
13.314663726571114,0.685538729362427
13.348033811098862,0.8146775634379163
13.381403895626608,0.8286933030727863
13.414773980154356,0.7203553485614848
13.448144064682102,0.5151390412019689
13.48151414920985,0.2657255209934831
13.514884233737597,0.03548851037923692
13.548254318265345,-0.1234018201036539
13.581624402793091,-0.1883313920742829
13.614994487320839,-0.17282829893177756
13.648364571848585,-0.11805208078810256
13.681734656376333,-0.07285339012357003
13.71510474090408,-0.07168851462962782
13.748474825431828,-0.12083831414730377
13.781844909959574,-0.19923509756159985
13.815214994487322,-0.27275664316865916
13.848585079015068,-0.3139925522069593
13.881955163542816,-0.3168680594072312
13.915325248070562,-0.29850790549538164
13.94869533259831,-0.2876898276307627
13.982065417126057,-0.30639007331670015
14.015435501653805,-0.35443359584447814
14.048805586181551,-0.4053881717357658
14.082175670709299,-0.41585666748029576
14.115545755237045,-0.3436515689817953
14.148915839764793,-0.16646400616641005
14.18228592429254,0.10686566087059085
14.215656008820288,0.436455503593739
14.249026093348034,0.7619839562723532
14.282396177875782,1.0193779927164055
14.315766262403528,1.1579603087851196
14.349136346931276,1.1531542381263788
14.382506431459023,1.0116168986932907
14.41587651598677,0.7678022029151674
14.449246600514517,0.4731530594415006
14.482616685042265,0.18116539398788606
14.515986769570011,-0.06703471657619049
14.54935685409776,-0.2519002302643832
14.582726938625505,-0.3764600541825481
14.616097023153253,-0.45921703845071843
14.649467107681,-0.5223778984967271
14.682837192208748,-0.5808023125252058
14.716207276736494,-0.6365525180156311
14.749577361264242,-0.68102303850323
14.782947445791988,-0.7027040600182192
14.816317530319736,-0.695744478290025
14.849687614847483,-0.6642584332562981
14.88305769937523,-0.6199400408093783
14.916427783902977,-0.5745349168119991
14.949797868430725,-0.531758102529459
14.983167952958471,-0.48360950493677995
15.01653803748622,-0.41359167014115544
15.049908122013965,-0.30555254750755967
15.083278206541713,-0.15383879014917654
15.11664829106946,0.030382754934452815
15.150018375597208,0.2201901044049179
15.183388460124954,0.38175723285370755
15.216758544652702,0.4879364334943081
15.250128629180448,0.5309909337300058
15.283498713708196,0.5283480358151165
15.316868798235943,0.5173575909932964
15.35023888276369,0.5396031362457671
15.383608967291437,0.6206868651813215
15.416979051819185,0.754836665909307
15.450349136346931,0.9027198942615379
15.48371922087468,1.0051601351820163
15.517089305402425,1.007564631294318
15.550459389930174,0.8840165739551795
15.58382947445792,0.6496087380786019
15.617199558985668,0.3551300690669434
15.650569643513414,0.06673574368449305
15.683939728041162,-0.15980470955691525
15.717309812568908,-0.29874935498362254
15.750679897096656,-0.36003538328143514
15.784049981624403,-0.37997662449912045
15.81742006615215,-0.40260805480635115
15.850790150679897,-0.4605454845533495
15.884160235207645,-0.563184276179278
15.917530319735391,-0.6957835045612483
15.95090040426314,-0.8278794184578698
15.984270488790886,-0.9260030814170565
16.017640573318634,-0.9651269409862459
16.05101065784638,-0.9352210101975496
16.084380742374126,-0.8421417418890818
16.117750826901876,-0.7041355302924218
16.151120911429622,-0.5458145621007492
16.18449099595737,-0.39105639381973595
16.217861080485115,-0.2559512651183903
16.251231165012864,-0.14329772149284983
16.28460124954061,-0.04082699903574649
16.317971334068357,0.07481033998256956
16.351341418596103,0.22809630739682712
16.384711503123853,0.4316873810817974
16.4180815876516,0.676125302169637
16.451451672179346,0.9280607506194904
16.484821756707092,1.1394741987260557
16.51819184123484,1.2647922377950014
16.551561925762588,1.278134123810575
16.584932010290334,1.1822561624913657
16.61830209481808,1.0048933023835
16.65167217934583,0.7848728851105995
16.685042263873576,0.5556398266787265
16.718412348401323,0.3346176068454429
16.75178243292907,0.12290626551847077
16.78515251745682,-0.08621986837852243
16.818522601984565,-0.29610705993032144
16.85189268651231,-0.4996036004626393
16.885262771040058,-0.6797329412066608
16.918632855567807,-0.8171121056383854
16.952002940095554,-0.8993994557074807
16.9853730246233,-0.9272905551837038
17.018743109151046,-0.9138066717016563
17.052113193678796,-0.8773867226958214
17.085483278206542,-0.8325431057904925
17.11885336273429,-0.7829896893552966
17.15222344726204,-0.7207698961778743
17.185593531789785,-0.6317995868924271
17.21896361631753,-0.5049474099992218
17.252333700845277,-0.339901391490163
17.285703785373027,-0.14956300472197734
17.319073869900773,0.044579169971506516
17.35244395442852,0.2219779478390762
17.385814038956266,0.37257866398838463
