Time (s),Filtered Signal
0.0,0.02511201870490508
0.033370165745856356,-0.7573815359765951
0.06674033149171271,-1.3372553442356185
0.10011049723756907,-1.5695578105905192
0.13348066298342542,-1.406048665835708
0.16685082872928178,-0.901152455199323
0.20022099447513814,-0.18606984547520825
0.2335911602209945,0.5767460145618977
0.26696132596685085,1.2408143885994147
0.30033149171270723,1.708623076415563
0.33370165745856356,1.9424576820310464
0.3670718232044199,1.954984772059783
0.4004419889502763,1.7888065074617188
0.43381215469613266,1.4961581057461053
0.467182320441989,1.1264898652297213
0.5005524861878453,0.7233764833709588
0.5339226519337017,0.32667472171834355
0.5672928176795581,-0.026091266068981656
0.6006629834254145,-0.30298602874087627
0.6340331491712707,-0.48503370789729106
0.6674033149171271,-0.5734479330052944
0.7007734806629835,-0.5915800699080533
0.7341436464088398,-0.5787169452027001
0.7675138121546962,-0.576855473191087
0.8008839779005525,-0.6151767065955657
0.8342541436464089,-0.6984660368268186
0.8676243093922653,-0.8045815521482034
0.9009944751381216,-0.8927350498601451
0.934364640883978,-0.9200543620357637
0.9677348066298344,-0.8602529430332414
1.0011049723756906,-0.7167818605807669
1.0344751381215471,-0.5244570110531662
1.0678453038674034,-0.33790835302797356
1.1012154696132597,-0.2106630198744638
1.1345856353591162,-0.17294479491108097
1.1679558011049724,-0.21740614963512916
1.201325966850829,-0.29932426738843615
1.2346961325966852,-0.3521867009190119
1.2680662983425415,-0.31321316179978204
1.301436464088398,-0.14882042291061548
1.3348066298342542,0.13056541060828245
1.3681767955801105,0.4729518878016038
1.401546961325967,0.8038207607416227
1.4349171270718233,1.0536739385327554
1.4682872928176796,1.1820045486960722
1.501657458563536,1.1873322713702368
1.5350276243093923,1.0997908715565154
1.5683977900552488,0.9613332381614129
1.601767955801105,0.80443273988425
1.6351381215469614,0.6401293231666086
1.6685082872928179,0.4605127602568527
1.7018784530386741,0.2525445002700157
1.7352486187845306,0.01408852513985693
1.768618784530387,-0.23758916753452936
1.8019889502762432,-0.469699466257031
1.8353591160220997,-0.6476723083662962
1.868729281767956,-0.7506918226499838
1.9020994475138122,-0.7802234896612978
1.9354696132596687,-0.7569742184067354
1.968839779005525,-0.7083361894623447
2.0022099447513813,-0.6535879455440313
2.0355801104972375,-0.595139175838042
2.0689502762430942,-0.5204845611249839
2.1023204419889505,-0.41340171920126273
2.135690607734807,-0.2677474270562023
2.169060773480663,-0.09582136147046294
2.2024309392265193,0.07366947314957571
2.235801104972376,0.20731381124054718
2.2691712707182323,0.28242874625323094
2.3025414364640886,0.2982328967919234
2.335911602209945,0.2767684896209312
2.369281767955801,0.2525302202828038
2.402651933701658,0.2552950970992201
2.436022099447514,0.2942386528867558
2.4693922651933704,0.3513685396673709
2.5027624309392267,0.3884061328575906
2.536132596685083,0.3650037445473929
2.5695027624309392,0.2603666975852574
2.602872928176796,0.08785841873702559
2.636243093922652,-0.10540277647080241
2.6696132596685085,-0.2553180211467785
2.7029834254143648,-0.3074333991239995
2.736353591160221,-0.24161108629872416
2.7697237569060777,-0.08308270380805165
2.803093922651934,0.10594721845214998
2.8364640883977903,0.2510714658796478
2.8698342541436466,0.2960487670337736
2.903204419889503,0.22530319989496458
2.936574585635359,0.06873489129883871
2.969944751381216,-0.11278903969707604
3.003314917127072,-0.2541241410903672
3.0366850828729284,-0.3123553048040528
3.0700552486187846,-0.28143683420149984
3.103425414364641,-0.1894014676399453
3.1367955801104976,-0.08105366816221084
3.170165745856354,0.004339417469780508
3.20353591160221,0.04938230437659585
3.2369060773480665,0.062090058347691324
3.2702762430939227,0.06700927285457274
3.3036464088397794,0.09039769473805472
3.3370165745856357,0.14769452587113963
3.370386740331492,0.23849079929898295
3.4037569060773483,0.34891508338308996
3.4371270718232045,0.4574513972730612
3.4704972375690613,0.5400018319315256
3.5038674033149175,0.5729037417808311
3.537237569060774,0.5357283805722076
3.57060773480663,0.41616456593235834
3.6039779005524863,0.21660078795789686
3.6373480662983426,-0.04150978086747359
3.6707182320441993,-0.3203770180587791
3.7040883977900556,-0.5772838604127123
3.737458563535912,-0.7804388625619736
3.770828729281768,-0.9207805659845061
3.8041988950276244,-1.0121011232388084
3.837569060773481,-1.0779976946793863
3.8709392265193374,-1.1320537810481681
3.9043093922651937,-1.1623942936647271
3.93767955801105,-1.130299270633476
3.9710497237569062,-0.9855744407480953
4.0044198895027625,-0.6926608056700353
4.037790055248619,-0.2555387151760551
4.071160220994475,0.2708790566936178
4.104530386740332,0.789967165766817
4.1379005524861885,1.1918063362804012
4.171270718232044,1.390915663906061
4.204640883977901,1.3584202986538048
4.238011049723757,1.1347446697591996
4.271381215469614,0.8161855000750909
4.30475138121547,0.5196887118537991
4.338121546961326,0.33995547484667243
4.371491712707183,0.31672079333742914
4.404861878453039,0.4254718130984346
4.438232044198895,0.5940137043307888
4.471602209944752,0.7355599566350237
4.504972375690608,0.782372066219532
4.538342541436465,0.705600941463647
4.5717127071823205,0.5155536715295209
4.605082872928177,0.24705410863281496
4.638453038674034,-0.05896176864105246
4.67182320441989,-0.3671870052157683
4.7051933701657465,-0.6492590498985121
4.738563535911602,-0.8787660259130963
4.771933701657459,-1.0280010648482223
4.805303867403316,-1.0722336488166884
4.8386740331491715,-1.000658564500829
4.872044198895028,-0.826981935633185
4.905414364640884,-0.5912199925776934
4.938784530386741,-0.34891661001028956
4.972154696132597,-0.15176466147765696
5.005524861878453,-0.029409891487349613
5.03889502762431,0.01798083843340172
5.072265193370166,0.013075896279236159
5.105635359116023,-0.014333372425657754
5.1390055248618784,-0.04218780585975662
5.172375690607735,-0.061836800188023455
5.205745856353592,-0.0730235537015729
5.239116022099448,-0.0739357407547031
5.272486187845304,-0.054982414106277536
5.30585635359116,-0.0018200136920259638
5.339226519337017,0.09367380792365305
5.372596685082874,0.22172220461899225
5.4059668508287295,0.3508187651744361
5.439337016574586,0.43622098381645746
5.472707182320442,0.4382159770024744
5.506077348066299,0.3416298630699524
5.5394475138121555,0.16645267917956014
5.572817679558011,-0.036797210443792354
5.606187845303868,-0.20603333134244217
5.639558011049724,-0.2927247156394006
5.672928176795581,-0.28158824234502966
5.706298342541437,-0.195500923464961
5.739668508287293,-0.08324149290804608
5.77303867403315,0.004076471718942369
5.806408839779006,0.03661637895888662
5.839779005524862,0.018375308293580143
5.873149171270718,-0.016832736521814207
5.906519337016575,-0.023389198798548116
5.939889502762432,0.03321316575318716
5.9732596685082875,0.15944085103846226
6.006629834254144,0.33014002142756965
6.04,0.49891284138946324
6.073370165745857,0.6166310879071084
6.1067403314917135,0.6492913421383584
6.140110497237569,0.5879702125598296
6.173480662983426,0.44835648728775745
6.206850828729282,0.26235642761775635
6.240220994475139,0.06697262373707503
6.273591160220995,-0.10486854573335005
6.306961325966851,-0.22954051380620363
6.340331491712708,-0.29468906883148427
6.373701657458564,-0.2996878564624901
6.40707182320442,-0.2554753451175834
6.440441988950277,-0.18316995452714543
6.473812154696133,-0.11025130939974899
6.50718232044199,-0.06404524859667853
6.5405524861878455,-0.06406097582315427
6.573922651933702,-0.11598282774977536
6.607292817679559,-0.20982837952058755
6.640662983425415,-0.32308302819507395
6.674033149171271,-0.4275447832483042
6.707403314917127,-0.49729831013275977
6.740773480662984,-0.5152092970974212
6.774143646408841,-0.4763200368980444
6.8075138121546965,-0.38781614268153036
6.840883977900553,-0.26619668189803086
6.874254143646409,-0.13272458137648058
6.907624309392266,-0.00833952926619555
6.9409944751381225,0.09080979796683022
6.974364640883978,0.15622632943600143
7.007734806629835,0.18778292763835824
7.041104972375691,0.19245705818382502
7.074475138121548,0.18182029269134115
7.107845303867403,0.16909703913700525
7.14121546961326,0.16618765523312398
7.174585635359117,0.18064351832947623
7.207955801104973,0.21275339750363764
7.241325966850829,0.2536700385723593
7.274696132596685,0.2861685013292723
7.308066298342542,0.2892696154122872
7.341436464088399,0.24627783648102894
7.3748066298342545,0.15350812186159205
7.408176795580111,0.025539675273956827
7.441546961325967,-0.10655373839570596
7.474917127071824,-0.2047468527696019
7.5082872928176805,-0.23830759403283128
7.541657458563536,-0.196771704715771
7.575027624309393,-0.0954085066177556
7.608397790055249,0.030174727847891256
7.641767955801106,0.13868885848127138
7.675138121546962,0.2007723616304229
7.708508287292818,0.21126361811691247
7.741878453038675,0.18991699340330742
7.775248618784531,0.16978500918243972
7.808618784530387,0.17872480576905195
7.841988950276244,0.22327864228969405
7.8753591160221,0.28335925346476126
7.908729281767957,0.3209159705707896
7.9420994475138125,0.2986298961087085
7.975469613259669,0.19938657376317637
8.008839779005525,0.036686271247718526
8.042209944751383,-0.14930754941578497
8.075580110497238,-0.3081171551783831
8.108950276243094,-0.399664216801682
8.14232044198895,-0.40959776739353615
8.175690607734808,-0.35271971233839816
8.209060773480664,-0.2640786339293916
8.24243093922652,-0.18290668019223885
8.275801104972377,-0.13707587501253973
8.309171270718233,-0.1344670295751585
8.342541436464089,-0.163785118188163
8.375911602209946,-0.2030397498591548
8.409281767955802,-0.2310145155412665
8.442651933701658,-0.2364910302089907
8.476022099447514,-0.22161968663534884
8.509392265193371,-0.1987126970304335
8.542762430939227,-0.18260877766171765
8.576132596685083,-0.18246010507515845
8.60950276243094,-0.1966809091968465
8.642872928176796,-0.21304295208258525
8.676243093922652,-0.21344201579999894
8.709613259668508,-0.180918021630322
8.742983425414366,-0.10592259664686512
8.776353591160222,0.010389530739749067
8.809723756906077,0.15656444047169843
8.843093922651935,0.3142306403642145
8.87646408839779,0.4628722207603202
8.909834254143647,0.5842539479668626
8.943204419889504,0.6652526495807327
8.97657458563536,0.6987661623552683
9.009944751381216,0.6832998363323628
9.043314917127072,0.6222764397809376
9.07668508287293,0.5238021533951466
9.110055248618785,0.40074626275910624
9.143425414364641,0.2701606286596124
9.176795580110499,0.1509208096779978
9.210165745856354,0.05927723790718286
9.24353591160221,0.0034279288872154433
9.276906077348068,-0.02056186000778311
9.310276243093924,-0.02904807982511181
9.34364640883978,-0.046189711528175116
9.377016574585635,-0.09554969617104177
9.410386740331493,-0.19098392242479068
9.443756906077349,-0.3304199386264775
9.477127071823205,-0.49497215171059444
9.510497237569062,-0.6536924138478101
9.543867403314918,-0.7722367924853187
9.577237569060774,-0.8226446464655429
9.610607734806631,-0.7913874332137822
9.643977900552487,-0.6834828971619991
9.677348066298343,-0.5214299894611363
9.710718232044199,-0.33893105713630756
9.744088397790057,-0.17085529842961159
9.777458563535912,-0.04238988334840515
9.810828729281768,0.038851037981780384
9.844198895027626,0.08453183463904888
9.877569060773482,0.11994494573821272
9.910939226519337,0.17272647726432339
9.944309392265193,0.260152604454433
9.97767955801105,0.38016779521329136
10.011049723756907,0.5101592833695702
10.044419889502763,0.6146012519966905
10.07779005524862,0.6590572740665225
10.111160220994476,0.6250459301220305
10.144530386740332,0.5193000691301846
10.17790055248619,0.37274337714768263
10.211270718232045,0.22869421513838897
10.244640883977901,0.12476463779105804
10.278011049723757,0.07635852271465406
10.311381215469615,0.06970324712841376
10.34475138121547,0.06853172082298101
10.378121546961326,0.03227986559176264
10.411491712707184,-0.062212427402087773
10.44486187845304,-0.2060212375354273
10.478232044198895,-0.358474099251544
10.511602209944753,-0.4636366331672995
10.544972375690609,-0.47599355616539163
10.578342541436465,-0.3831775723106485
10.61171270718232,-0.2143116775457173
10.645082872928178,-0.029179402898871533
10.678453038674034,0.10717991396279519
10.71182320441989,0.15256003209115146
10.745193370165747,0.10507265625638183
10.778563535911603,0.0019456298061765911
10.811933701657459,-0.09936008576250675
10.845303867403315,-0.14834457609532703
10.878674033149172,-0.12401156246771182
10.912044198895028,-0.04249315353205259
10.945414364640884,0.053095351513512516
10.978784530386742,0.11499192566101936
11.012154696132598,0.11426740012795077
11.045524861878453,0.054311360786736845
11.078895027624311,-0.03168811371455428
11.112265193370167,-0.09752386236999692
11.145635359116023,-0.10659182261368784
11.179005524861878,-0.049470717736204046
11.212375690607736,0.051655400180603654
11.245745856353592,0.15333414781242077
11.279116022099448,0.2105479051563728
11.312486187845305,0.19627648169920492
11.345856353591161,0.11199654574136918
11.379226519337017,-0.015056670247629874
11.412596685082875,-0.14559576474784824
11.44596685082873,-0.24567392692565304
11.479337016574586,-0.29922129667417013
11.512707182320442,-0.31014921526682815
11.5460773480663,-0.2940731287404502
11.579447513812156,-0.265112189767572
11.612817679558011,-0.2256289172688919
11.646187845303869,-0.16491508330659696
11.679558011049725,-0.06767168581182562
11.71292817679558,0.07258019020868071
11.746298342541436,0.2431425859925633
11.779668508287294,0.4115039842587598
11.81303867403315,0.5358800305220364
11.846408839779006,0.5821012323082841
11.879779005524863,0.5382372896454243
11.91314917127072,0.4193477623867171
11.946519337016575,0.26004856324117576
11.979889502762433,0.09914663085149274
12.013259668508288,-0.035379882857595
12.046629834254144,-0.13356306027081996
12.08,-0.20027014440242802
12.113370165745858,-0.24522402492607795
12.146740331491714,-0.2732940037293252
12.18011049723757,-0.28114748745960494
12.213480662983427,-0.2617279529150579
12.246850828729283,-0.21280314311268597
12.280220994475139,-0.14326645554532208
12.313591160220996,-0.07243515221437634
12.346961325966852,-0.02213265733175003
12.380331491712708,-0.0059536676422026966
12.413701657458564,-0.021963537236471382
12.447071823204421,-0.05315368982858696
12.480441988950277,-0.07555697354378813
12.513812154696133,-0.06970470883942276
12.54718232044199,-0.029465311783983004
12.580552486187846,0.0360230604189361
12.613922651933702,0.10779326873656225
12.64729281767956,0.166576212413608
12.680662983425416,0.20137529727900416
12.714033149171271,0.2129782368358139
12.747403314917127,0.21115519033138094
12.780773480662985,0.20748954582683252
12.81414364640884,0.20777516678324964
12.847513812154697,0.20788677356350482
12.880883977900554,0.19517405689070258
12.91425414364641,0.15472184652546392
12.947624309392266,0.07753648269826587
12.980994475138122,-0.033137278358663806
13.01436464088398,-0.16031296441696172
13.047734806629835,-0.2774687558724489
13.081104972375691,-0.35706410823950324
13.114475138121549,-0.3802936346696152
13.147845303867404,-0.34444387081126776
13.18121546961326,-0.26490316422124494
13.214585635359118,-0.17066942573789906
13.247955801104974,-0.09462929015282279
13.28132596685083,-0.06206326557771712
13.314696132596685,-0.0817399577660681
13.348066298342543,-0.14302497656840157
13.381436464088399,-0.21999487848814137
13.414806629834255,-0.28076634926186295
13.448176795580112,-0.2984030800098275
13.481546961325968,-0.2595182340484395
13.514917127071824,-0.16786094061985146
13.548287292817681,-0.04203916537544607
13.581657458563537,0.09161966093391105
13.615027624309393,0.20862169834568264
13.648397790055249,0.29495350573268425
13.681767955801106,0.35145405727639834
13.715138121546962,0.39167804161534264
13.748508287292818,0.43342789625606487
13.781878453038676,0.48716271334769745
13.815248618784532,0.5467100351925116
13.848618784530387,0.5875978500908133
13.881988950276245,0.5753355638564723
13.9153591160221,0.4811560776821086
13.948729281767957,0.29843545060435994
13.982099447513813,0.05167519414906897
14.01546961325967,-0.20733767990672852
14.048839779005526,-0.4158310880649395
14.082209944751382,-0.5224610639753319
14.11558011049724,-0.5063186371184344
14.148950276243095,-0.38432130061366265
14.182320441988951,-0.20395413164387474
14.215690607734807,-0.024814744658325682
14.249060773480664,0.1029091334001105
14.28243093922652,0.15415189537010474
14.315801104972376,0.13325615183262346
14.349171270718234,0.06663324126967882
14.38254143646409,-0.011538386288096334
14.415911602209945,-0.0737292170700884
14.449281767955803,-0.10780915347018011
14.482651933701659,-0.11766653446332974
14.516022099447515,-0.11698165692096454
14.54939226519337,-0.12001100262425826
14.582762430939228,-0.13383586758956345
14.616132596685084,-0.1552804537782986
14.64950276243094,-0.17336403044398413
14.682872928176797,-0.17570940782678474
14.716243093922653,-0.15568855860266634
14.749613259668509,-0.11683407547215652
14.782983425414367,-0.07228815716535676
14.816353591160222,-0.03932996108097699
14.849723756906078,-0.03135942660909788
14.883093922651934,-0.05102993168849493
14.916464088397792,-0.08783215956418289
14.949834254143648,-0.12148592610222367
14.983204419889503,-0.1299302331435691
15.016574585635361,-0.09870155661421995
15.049944751381217,-0.02786387484689769
15.083314917127073,0.06645263267810943
15.116685082872928,0.15682460606650786
15.150055248618786,0.2140855591338576
15.183425414364642,0.21810170135613197
15.216795580110498,0.16552165920693568
15.250165745856355,0.07135759912915435
15.283535911602211,-0.03615883088004075
15.316906077348067,-0.12513358948021222
15.350276243093925,-0.16996281820282505
15.38364640883978,-0.15793754123701384
15.417016574585636,-0.09070887923304871
15.450386740331492,0.018720998453585953
15.48375690607735,0.1511566749503446
15.517127071823205,0.28603963523715514
15.550497237569061,0.40463578076755824
15.583867403314919,0.4918102868233876
15.617237569060775,0.5374635926030622
15.65060773480663,0.5382975350517549
15.683977900552488,0.49931175722466753
15.717348066298344,0.43339186823887793
15.7507182320442,0.3575878509979046
15.784088397790056,0.28639591923303354
15.817458563535913,0.22464127253346894
15.85082872928177,0.16386706366068934
15.884198895027625,0.08523818299711851
15.917569060773483,-0.0311430023026131
15.950939226519338,-0.19444416851200513
15.984309392265194,-0.3949794150079693
16.01767955801105,-0.604715434377291
16.051049723756908,-0.7869624357383601
16.084419889502765,-0.9105655006594641
16.11779005524862,-0.9611133767984769
16.151160220994477,-0.9432909002455002
16.18453038674033,-0.8737001493471822
16.21790055248619,-0.7690706759756942
16.251270718232046,-0.6372726713036514
16.2846408839779,-0.4764185974631844
16.318011049723758,-0.2819991545410959
16.351381215469615,-0.05684446948843385
16.38475138121547,0.18305079965946552
16.418121546961327,0.41110535186774144
16.451491712707185,0.6000049423505904
16.48486187845304,0.7330277356529376
16.518232044198896,0.8100011164604151
16.551602209944754,0.8442538031396984
16.584972375690608,0.852337384207983
16.618342541436466,0.842608716458179
16.651712707182323,0.8094729132489046
16.685082872928177,0.736852146597078
16.718453038674035,0.6091560400165928
16.751823204419892,0.4236557544516205
16.785193370165747,0.19714794825336562
16.818563535911604,-0.03724747590991112
16.851933701657458,-0.24195557377946342
16.885303867403316,-0.389484267311938
16.918674033149173,-0.4721159428023304
16.952044198895027,-0.5019010278365862
16.985414364640885,-0.5014741162920793
17.018784530386743,-0.491226740129917
17.052154696132597,-0.4801222709850793
17.085524861878454,-0.4649168671207563
17.118895027624312,-0.43729523327023595
17.152265193370166,-0.39363307452814833
17.185635359116024,-0.3406434019041527
17.21900552486188,-0.2928628351187715
17.252375690607735,-0.2631131754566085
