Frequency (Hz),Amplitude
0.0,0.5554727865211124
0.019867549668874173,0.5556801157647326
0.039735099337748346,0.5563009026756289
0.059602649006622516,0.5573315607476306
0.07947019867549669,0.5587661651322022
0.09933774834437085,0.5605965298516385
0.11920529801324503,0.5628123124479552
0.13907284768211922,0.5654011428617515
0.15894039735099338,0.5683487727434785
0.17880794701986755,0.5716392410088206
0.1986754966887417,0.5752550512677588
0.2185430463576159,0.5791773567735155
0.23841059602649006,0.5833861487315026
0.2582781456953642,0.5878604441473947
0.27814569536423844,0.5925784698422534
0.2980132450331126,0.597517839780902
0.31788079470198677,0.6026557234131451
0.33774834437086093,0.6079690032814972
0.3576158940397351,0.6134344206785568
0.3774834437086093,0.6190287086214642
0.3973509933774834,0.6247287118373855
0.4172185430463576,0.6305114938136445
0.4370860927152318,0.6363544312594566
0.45695364238410596,0.6422352965522937
0.4768211920529801,0.6481323289077116
0.49668874172185434,0.6540242951224032
0.5165562913907285,0.6598905408049937
0.5364238410596026,0.6657110330345233
0.5562913907284769,0.6714663953823911
0.5761589403973509,0.6771379362044438
0.5960264900662252,0.6827076710648893
0.6158940397350993,0.6881583400963538
0.6357615894039735,0.6934734210362463
0.6556291390728477,0.6986371386119071
0.6754966887417219,0.7036344708789802
0.695364238410596,0.7084511530504464
0.7152317880794702,0.7130736792906998
0.7350993377483444,0.7174893028889581
0.7549668874172186,0.721686035172087
0.7748344370860927,0.7256526434667908
0.7947019867549668,0.7293786483765033
0.8145695364238411,0.7328543205989722
0.8344370860927152,0.7360706774749538
0.8543046357615894,0.7390194794286241
0.8741721854304636,0.7416932264334831
0.8940397350993378,0.7440851546149632
0.9139072847682119,0.7461892330815806
0.9337748344370861,0.7480001610601223
0.9536423841059603,0.7495133653963445
0.9735099337748344,0.7507249984711281
0.9933774834437087,0.751631936572276
1.0132450331125828,0.7522317787539552
1.033112582781457,0.7525228462088422
1.0529801324503312,0.7525041821723197
1.0728476821192052,0.7521755523728931
1.0927152317880795,0.7515374460381486
1.1125827814569538,0.7505910774619218
1.1324503311258278,0.749338388133111
1.1523178807947019,0.7477820494230112
1.1721854304635762,0.7459254658222575
1.1920529801324504,0.7437727787135191
1.2119205298013245,0.7413288706586004
1.2317880794701985,0.7385993701715794
1.2516556291390728,0.7355906569391867
1.271523178807947,0.7323098674385968
1.2913907284768211,0.728764900888955
1.3112582781456954,0.7249644254562764
1.3311258278145695,0.7209178846115801
1.3509933774834437,0.7166355035189604
1.370860927152318,0.7121282953028589
1.390728476821192,0.7074080670114081
1.410596026490066,0.7024874250559059
1.4304635761589404,0.6973797798637686
1.4503311258278146,0.6920993494331065
1.4701986754966887,0.6866611614228425
1.4900662251655628,0.6810810533502952
1.5099337748344372,0.6753756704007622
1.5298013245033113,0.6695624602798164
1.5496688741721854,0.6636596644606211
1.5695364238410596,0.6576863050955485
1.5894039735099337,0.6516621667779116
1.609271523178808,0.6456077722560287
1.6291390728476822,0.639544351124349
1.6490066225165563,0.6334938004481051
1.6688741721854303,0.6274786362261929
1.6887417218543048,0.6215219345686089
1.7086092715231789,0.6156472614684594
1.728476821192053,0.609878590093865
1.7483443708609272,0.6042402046224479
1.7682119205298013,0.5987565898005343
1.7880794701986755,0.5934523056406191
1.8079470198675496,0.5883518469813281
1.8278145695364238,0.5834794880296923
1.847682119205298,0.5788591124847173
1.8675496688741722,0.5745140303998033
1.8874172185430464,0.5704667835642132
1.9072847682119205,0.5667389418505134
1.9271523178807946,0.5633508936533766
1.9470198675496688,0.560321634198148
1.9668874172185429,0.5576685560779772
1.9867549668874174,0.5554072468393161
2.0066225165562916,0.5535512987269685
2.0264900662251657,0.552112135780722
2.0463576158940397,0.551098863313121
2.066225165562914,0.5505181443773686
2.086092715231788,0.5503741071584277
2.1059602649006623,0.5506682863157969
2.1258278145695364,0.5513996002174956
2.1456953642384105,0.5525643647964582
2.165562913907285,0.5541563435065241
2.185430463576159,0.5561668316358365
2.205298013245033,0.5585847721264348
2.2251655629139075,0.5613968991153523
2.2450331125827816,0.5645879047027825
2.2649006622516556,0.5681406239951008
2.2847682119205297,0.5720362332708506
2.3046357615894038,0.576254456163204
2.324503311258278,0.5807737730135121
2.3443708609271523,0.5855716289848288
2.364238410596027,0.5906246370863134
2.384105960264901,0.5959087728984017
2.403973509933775,0.6013995584601468
2.423841059602649,0.6070722334445001
2.443708609271523,0.6129019123723136
2.463576158940397,0.6188637271793196
2.4834437086092715,0.6249329549377064
2.5033112582781456,0.6310851309379941
2.52317880794702,0.6372961476575133
2.543046357615894,0.6435423403827937
2.562913907284768,0.6498005604217567
2.5827814569536423,0.6560482369474214
2.6026490066225163,0.662263428567856
2.622516556291391,0.6684248657270326
2.642384105960265,0.6745119850188465
2.662251655629139,0.680504956449017
2.6821192052980134,0.6863847046153456
2.7019867549668874,0.6921329247019836
2.7218543046357615,0.6977320941026368
2.741721854304636,0.7031654804051516
2.76158940397351,0.7084171463889875
2.781456953642384,0.7134719526091703
2.801324503311258,0.7183155580674477
2.821192052980132,0.7229344194041849
2.8410596026490067,0.727315788983496
2.8609271523178808,0.7314477121894446
2.8807947019867552,0.7353190242026922
2.9006622516556293,0.7389193464845094
2.9205298013245033,0.7422390831580519
2.9403973509933774,0.7452694174452522
2.9602649006622515,0.7480023082902872
2.9801324503311255,0.7504304872780352
3.0,0.752547455936404
3.0198675496688745,0.7543474834957484
3.0397350993377485,0.755825605165389
3.0596026490066226,0.7569776209765368
3.0794701986754967,0.7578000952325634
3.0993377483443707,0.7582903566003708
3.119205298013245,0.7584464988714434
3.1390728476821192,0.7582673824167333
3.1589403973509933,0.7577526363559206
3.1788079470198674,0.7569026614587603
3.198675496688742,0.7557186337937021
3.218543046357616,0.754202509136005
3.23841059602649,0.7523570281451865
3.2582781456953644,0.7501857223180547
3.2781456953642385,0.7476929207193658
3.2980132450331126,0.7448837574871727
3.3178807947019866,0.7417641801026189
3.3377483443708607,0.7383409584056511
3.3576158940397347,0.7346216943266732
3.3774834437086096,0.7306148322901388
3.3973509933774837,0.7263296702285962
3.4172185430463577,0.7217763711237395
3.437086092715232,0.7169659749645847
3.456953642384106,0.7119104109802749
3.47682119205298,0.7066225099661317
3.4966887417218544,0.7011160164751271
3.5165562913907285,0.6954056005917959
3.5364238410596025,0.6895068689412995
3.556291390728477,0.683436374511553
3.576158940397351,0.6772116247803817
3.596026490066225,0.6708510875422009
3.615894039735099,0.6643741937194767
3.6357615894039736,0.6578013363233552
3.6556291390728477,0.6511538645970787
3.6754966887417218,0.6444540722365562
3.695364238410596,0.6377251784388953
3.7152317880794703,0.6309913003863461
3.7350993377483444,0.6242774156372449
3.754966887417219,0.6176093127767082
3.774834437086093,0.611013528589252
3.794701986754967,0.6045172699680985
3.814569536423841,0.5981483187886588
3.834437086092715,0.5919349180647717
3.854304635761589,0.585905637896943
3.8741721854304636,0.58008922003086
3.8940397350993377,0.5745144002904006
3.9139072847682117,0.5692097087444362
3.9337748344370858,0.5642032482161792
3.9536423841059607,0.559522452641067
3.9735099337748347,0.5551938278034287
3.993377483443709,0.5512426780950733
4.013245033112583,0.5476928240844923
4.033112582781457,0.5445663167896114
4.052980132450331,0.541883155522417
4.072847682119205,0.5396610169259218
4.0927152317880795,0.5379150032593955
4.112582781456953,0.5366574180282624
4.132450331125828,0.5358975766454013
4.152317880794702,0.5356416589328589
4.172185430463576,0.5358926089509679
4.19205298013245,0.536650085943769
4.211920529801325,0.5379104682241675
4.231788079470199,0.5396669097271729
4.251655629139073,0.5419094468876277
4.271523178807947,0.5446251515997766
4.291390728476821,0.54779832442012
4.311258278145695,0.5514107209783429
4.33112582781457,0.5554418038186637
4.3509933774834435,0.5598690116159237
4.370860927152318,0.5646680378666904
4.390728476821192,0.5698131116828757
4.410596026490066,0.5752772741300681
4.43046357615894,0.5810326445610251
4.450331125827815,0.5870506725042103
4.470198675496689,0.5933023717947439
4.490066225165563,0.5997585347129701
4.509933774834438,0.6063899248733319
4.529801324503311,0.613167448451488
4.549668874172186,0.6200623040344573
4.569536423841059,0.6270461119235554
4.589403973509934,0.6340910241219163
4.6092715231788075,0.641169816509835
4.629139072847682,0.6482559648721523
4.649006622516556,0.6553237065104495
4.66887417218543,0.6623480891697666
4.688741721854305,0.6693050089520998
4.708609271523179,0.6761712387936712
4.728476821192054,0.6829244489623505
4.748344370860927,0.6895432208978434
4.768211920529802,0.6960070555775281
4.788079470198675,0.7022963774523133
4.80794701986755,0.7083925348636846
4.827814569536423,0.7142777977286948
4.847682119205298,0.719935353165141
4.867549668874172,0.7253492996262635
4.887417218543046,0.7305046400227926
4.9072847682119205,0.7353872742297703
4.927152317880794,0.7399839913060623
4.947019867549669,0.7442824616948677
4.966887417218543,0.7482712296226618
4.986754966887418,0.751939705871871
5.006622516556291,0.7552781610669855
5.026490066225166,0.7582777195850982
5.04635761589404,0.7609303541782939
5.066225165562914,0.7632288813768775
5.086092715231788,0.765166957727667
5.105960264900662,0.7667390769107753
5.125827814569536,0.76794056776995
5.14569536423841,0.7687675932862456
5.1655629139072845,0.7692171505209205
5.185430463576159,0.7692870715518816
5.205298013245033,0.7689760254271644
5.225165562913908,0.7682835211597373
5.245033112582782,0.7672099117889061
5.264900662251656,0.765756399535591
5.28476821192053,0.7639250420804159
5.304635761589404,0.7617187599956319
5.324503311258278,0.7591413453632166
5.344370860927152,0.7561974716123185
5.364238410596027,0.7528927046088184
5.3841059602649,0.7492335150278936
5.403973509933775,0.7452272920365427
5.4238410596026485,0.7408823583062996
5.443708609271523,0.7362079863665214
5.463576158940397,0.7312144162941742
5.483443708609272,0.7259128747166808
5.503311258278146,0.7203155950783543
5.52317880794702,0.7144358390872328
5.543046357615895,0.7082879192159119
5.562913907284768,0.7018872220756496
5.582781456953643,0.69525023241538
5.602649006622516,0.6883945574138888
5.622516556291391,0.6813389508327756
5.642384105960264,0.6741033364757929
5.662251655629139,0.666708830256065
5.682119205298013,0.6591777600029501
5.701986754966887,0.6515336819435834
5.7218543046357615,0.643801392569898
5.741721854304636,0.6360069343497123
5.7615894039735105,0.6281775934636086
5.781456953642384,0.6203418874524607
5.801324503311259,0.6125295403524
5.821192052980132,0.6047714425889161
5.841059602649007,0.5970995926181777
5.860927152317881,0.5895470170683531
5.880794701986755,0.5821476659794697
5.900662251655629,0.5749362797085521
5.920529801324503,0.5679482242041949
5.940397350993377,0.5612192917134128
5.960264900662251,0.5547854646150018
5.980132450331126,0.5486826410242184
6.0,0.5429463221151188
6.0198675496688745,0.537611262767839
6.039735099337749,0.5327110891426549
6.059602649006623,0.5282778890397625
6.079470198675497,0.5243417833028003
6.099337748344371,0.5209304888925904
6.119205298013245,0.5180688863788047
6.139072847682119,0.5157786062299912
6.158940397350993,0.5140776491866893
6.178807947019867,0.5129800559759634
6.198675496688741,0.5124956405403535
6.218543046357616,0.5126297987875251
6.23841059602649,0.5133834017193655
6.258278145695365,0.5147527778962028
6.2781456953642385,0.5167297858566071
6.298013245033113,0.5193019727306633
6.317880794701987,0.5224528112437954
6.337748344370861,0.5261620039515257
6.357615894039735,0.5304058411222187
6.377483443708609,0.5351575973250903
6.397350993377484,0.540387951489521
6.417218543046357,0.5460654158735341
6.437086092715232,0.552156760827747
6.456953642384105,0.5586274242334652
6.47682119205298,0.5654418967886847
6.496688741721854,0.5725640766911784
6.516556291390729,0.5799575895424187
6.5364238410596025,0.5875860713368483
6.556291390728477,0.5954134141273758
6.5761589403973515,0.6034039753343605
6.596026490066225,0.6115227526915726
6.6158940397351,0.6197355275267474
6.635761589403973,0.6280089794972444
6.655629139072848,0.63631077609462
6.675496688741721,0.6446096402452806
6.695364238410596,0.6528753992164159
6.715231788079469,0.6610790178282544
6.735099337748344,0.6691926187102448
6.754966887417219,0.6771894920470458
6.774834437086093,0.6850440969613821
6.794701986754967,0.6927320563886036
6.814569536423841,0.7002301470234221
6.8344370860927155,0.707516285667167
6.854304635761589,0.714569513078527
6.874172185430464,0.7213699762320216
6.894039735099337,0.727898909716496
6.913907284768212,0.734138616858693
6.933774834437086,0.7400724510332358
6.95364238410596,0.7456847975163566
6.973509933774834,0.7509610561560836
6.993377483443709,0.7558876250617474
7.013245033112583,0.7604518854601822
7.033112582781457,0.7646421878219052
7.052980132450331,0.7684478393263465
7.072847682119205,0.7718590927092496
7.0927152317880795,0.7748671365162889
7.112582781456954,0.7774640867738111
7.132450331125828,0.7796429800789032
7.152317880794702,0.7813977681064933
7.172185430463576,0.7827233135297912
7.19205298013245,0.7836153873515294
7.211920529801324,0.7840706676471659
7.231788079470198,0.7840867397261573
7.251655629139073,0.7836620977244042
7.271523178807947,0.7827961476485769
7.291390728476822,0.7814892119021887
7.311258278145695,0.7797425353325927
7.33112582781457,0.7775582928483751
7.3509933774834435,0.7749395986670281
7.370860927152318,0.7718905172632917
7.390728476821192,0.768416076098989
7.410596026490066,0.7645222802251374
7.430463576158941,0.7602161288559739
7.450331125827814,0.7555056340224433
7.470198675496689,0.7503998414181614
7.490066225165562,0.7449088535538262
7.509933774834438,0.739043855335009
7.52980132450331,0.7328171421724147
7.549668874172186,0.7262421507205491
7.569536423841059,0.7193334923198699
7.589403973509934,0.7121069891843207
7.6092715231788075,0.7045797133299382
7.629139072847682,0.6967700281753837
7.649006622516557,0.6886976326586752
7.66887417218543,0.6803836076002959
7.6887417218543055,0.671850463895677
7.708609271523178,0.6631221919323608
7.728476821192054,0.654224311392202
7.748344370860927,0.645183920307999
7.768211920529802,0.6360297418893383
7.788079470198675,0.6267921672067567
7.80794701986755,0.6175032913201167
7.827814569536423,0.6081969398551099
7.847682119205298,0.5989086823725975
7.8675496688741715,0.5896758281510993
7.887417218543046,0.5805373992351388
7.907284768211921,0.5715340748299769
7.927152317880795,0.5627081004049753
7.9470198675496695,0.5541031542845763
7.966887417218543,0.5457641641678969
7.986754966887418,0.5377370660587832
8.006622516556291,0.5300684986653473
8.026490066225167,0.522805427607367
8.046357615894038,0.5159946959074541
8.066225165562914,0.5096825003523222
8.086092715231787,0.5039137974295533
8.105960264900663,0.4987316475860699
8.125827814569536,0.4941765122690716
8.14569536423841,0.4902855241668668
8.165562913907285,0.4870917566560508
8.185430463576159,0.4846235229476276
8.205298013245034,0.48290373803802533
8.225165562913906,0.48194937664566234
8.245033112582782,0.4817710574325662
8.264900662251655,0.48237277793408895
8.28476821192053,0.48375181615342133
8.304635761589404,0.48589880454744
8.324503311258278,0.4887979712658493
8.344370860927151,0.4924275332468797
8.364238410596027,0.496760217250554
8.3841059602649,0.5017638789551069
8.403973509933774,0.5074021872634211
8.42384105960265,0.5136353409318257
8.443708609271523,0.5204207871348522
8.463576158940398,0.5277139159572442
8.483443708609272,0.5354687102978721
8.503311258278146,0.5436383365476651
8.52317880794702,0.5521756670600453
8.543046357615895,0.5610337304362916
8.562913907284768,0.5701660897503494
8.582781456953642,0.5795271519486873
8.602649006622515,0.589072413812276
8.62251655629139,0.5987586511709039
8.642384105960264,0.6085440586667302
8.66225165562914,0.6183883474372426
8.682119205298013,0.6282528077816764
8.701986754966887,0.6381003433228086
8.721854304635762,0.6478954824850113
8.741721854304636,0.6576043723617605
8.76158940397351,0.6671947592983681
8.781456953642383,0.6766359598085359
8.801324503311259,0.6858988247974536
8.821192052980132,0.6949556994926147
8.841059602649008,0.7037803809887674
8.86092715231788,0.7123480748934883
8.880794701986755,0.7206353522094857
8.90066225165563,0.7286201073020807
8.920529801324504,0.7362815175669883
8.940397350993377,0.7436000052273877
8.960264900662251,0.750557201542695
8.980132450331126,0.7571359135977376
9.0,0.7633200937547613
9.019867549668875,0.7690948117861733
9.039735099337747,0.7744462296595463
9.059602649006623,0.779361578914231
9.079470198675496,0.7838291405479566
9.099337748344372,0.7878382273200317
9.119205298013245,0.7913791683728271
9.139072847682119,0.7944432960737855
9.158940397350994,0.7970229349853406
9.178807947019868,0.7991113928779465
9.198675496688743,0.8007029537126802
9.218543046357615,0.8017928725324532
9.23841059602649,0.8023773722156043
9.258278145695364,0.8024536420614176
9.27814569536424,0.8020198381943612
9.298013245033111,0.8010750857918358
9.317880794701987,0.7996194831595483
9.33774834437086,0.797654107698644
9.357615894039736,0.7951810238298885
9.37748344370861,0.7922032929623551
9.397350993377483,0.7887249856171595
9.417218543046358,0.7847511958409384
9.437086092715232,0.780288058069132
9.456953642384107,0.7753427666249366
9.47682119205298,0.7699235980668871
9.496688741721854,0.7640399366252291
9.516556291390728,0.7577023029946668
9.536423841059603,0.7509223867774986
9.556291390728477,0.7437130828965796
9.57615894039735,0.736088532319267
9.596026490066224,0.7280641674506462
9.6158940397351,0.7196567625640824
9.635761589403973,0.7108844896357087
9.655629139072847,0.7017669799324547
9.675496688741722,0.6923253916650376
9.695364238410596,0.6825824839493372
9.715231788079471,0.6725626972127676
9.735099337748345,0.6622922400235188
9.754966887417218,0.6517991820944065
9.774834437086092,0.6411135529007722
9.794701986754967,0.6302674449300273
9.814569536423841,0.6192951200231149
9.834437086092716,0.6082331165450148
9.854304635761588,0.5971203542008182
9.874172185430464,0.5859982321647424
9.894039735099337,0.5749107147854573
9.913907284768213,0.563904397458309
9.933774834437086,0.553028543321971
9.95364238410596,0.5423350792881483
9.973509933774835,0.5318785376485203
9.993377483443709,0.5217159272984075
10.013245033112582,0.5119065167459086
10.033112582781456,0.5025115099276465
10.052980132450331,0.49359359593605795
10.072847682119205,0.48521635568378085
10.09271523178808,0.4774435129294993
10.112582781456952,0.4703380245277584
10.132450331125828,0.4639610155548762
10.152317880794701,0.4583705789541225
10.172185430463577,0.4536204757123304
10.192052980132452,0.4497587886995885
10.211920529801324,0.4468265987708147
10.2317880794702,0.4448567626511427
10.251655629139073,0.4438728756688108
10.271523178807948,0.44388849650520973
10.29139072847682,0.4449066952383312
10.311258278145695,0.4469199614213428
10.331125827814569,0.44991047897550335
10.350993377483444,0.45385074373826323
10.370860927152318,0.45870447226681843
10.390728476821192,0.4644277307631389
10.410596026490065,0.4709702028992984
10.43046357615894,0.4782765150649427
10.450331125827816,0.4862875456154318
10.470198675496688,0.49494165847339766
10.490066225165563,0.504175818004941
10.509933774834437,0.5139265588253014
10.529801324503312,0.5241307991473713
10.549668874172186,0.5347264983364939
10.56953642384106,0.5456531680772475
10.589403973509933,0.5568522521357959
10.609271523178808,0.5682673925889157
10.629139072847682,0.5798446012015466
10.649006622516556,0.5915323539887752
10.66887417218543,0.6032816254389279
