Time (s),Filtered Signal
0.0,0.06906507757157804
0.033370165745856356,0.026798814789485387
0.06674033149171271,-0.03483277208038234
0.10011049723756907,-0.12345083756333285
0.13348066298342542,-0.23171482577013003
0.16685082872928178,-0.3409701414307915
0.20022099447513814,-0.430588823149125
0.2335911602209945,-0.4873325886935145
0.26696132596685085,-0.5093751190091478
0.30033149171270723,-0.5032225725764948
0.33370165745856356,-0.4763707091285698
0.3670718232044199,-0.4311690837789789
0.4004419889502763,-0.36430646071630035
0.43381215469613266,-0.2723007438275172
0.467182320441989,-0.15909400217987008
0.5005524861878453,-0.040190238204478604
0.5339226519337017,0.06022420374744297
0.5672928176795581,0.11846968339249321
0.6006629834254145,0.1223525958283333
0.6340331491712707,0.07823378224960027
0.6674033149171271,0.010346626419841493
0.7007734806629835,-0.04780016349448006
0.7341436464088398,-0.06649432293236787
0.7675138121546962,-0.0319227911711718
0.8008839779005525,0.04783118884590926
0.8342541436464089,0.14558019722796353
0.8676243093922653,0.22562604384144794
0.9009944751381216,0.257767877617755
0.934364640883978,0.22878458601620474
0.9677348066298344,0.14661212256249187
1.0011049723756906,0.0358438085984757
1.0344751381215471,-0.07286082247348827
1.0678453038674034,-0.1543420872676946
1.1012154696132597,-0.196386871658522
1.1345856353591162,-0.20030925380630799
1.1679558011049724,-0.17533673582103906
1.201325966850829,-0.13040090564156787
1.2346961325966852,-0.06810892055630748
1.2680662983425415,0.015465264438836352
1.301436464088398,0.1246148067260902
1.3348066298342542,0.2546200920925667
1.3681767955801105,0.38482840988422273
1.401546961325967,0.47965343850944486
1.4349171270718233,0.49966606608687664
1.4682872928176796,0.41976450776643237
1.501657458563536,0.2466633512224023
1.5350276243093923,0.026152766462335275
1.5683977900552488,-0.16666485633775432
1.601767955801105,-0.25394023067210175
1.6351381215469614,-0.18948128310647827
1.6685082872928179,0.014258830012940179
1.7018784530386741,0.281631124612934
1.7352486187845306,0.4984023108903019
1.768618784530387,0.5586063214727053
1.8019889502762432,0.4141568177305013
1.8353591160220997,0.10336710337769563
1.868729281767956,-0.25802184199985423
1.9020994475138122,-0.5228384239159811
1.9354696132596687,-0.5766078056705067
1.968839779005525,-0.39044636894004725
2.0022099447513813,-0.037012045707089596
2.0355801104972375,0.33931461904801175
2.0689502762430942,0.5847977661132164
2.1023204419889505,0.6021276952979161
2.135690607734807,0.3890410927892175
2.169060773480663,0.03290287337584948
2.2024309392265193,-0.33409103878218344
2.235801104972376,-0.5961167796639518
2.2691712707182323,-0.7020855256788407
2.3025414364640886,-0.6799334576737941
2.335911602209945,-0.6130093379471581
2.369281767955801,-0.5925455928797984
2.402651933701658,-0.6700899138486158
2.436022099447514,-0.831914881726322
2.4693922651933704,-1.005746234974288
2.5027624309392267,-1.094791622127524
2.536132596685083,-1.0221624331932044
2.5695027624309392,-0.765338573461382
2.602872928176796,-0.36617785412518256
2.636243093922652,0.08624692510406205
2.6696132596685085,0.4907617987488381
2.7029834254143648,0.7711395986460899
2.736353591160221,0.8998131597405967
2.7697237569060777,0.9000794802399462
2.803093922651934,0.828356920477758
2.8364640883977903,0.7461301935690735
2.8698342541436466,0.6944640305007527
2.903204419889503,0.6814582368760033
2.936574585635359,0.6862932220840823
2.969944751381216,0.6758436766415964
3.003314917127072,0.6247116598510741
3.0366850828729284,0.5290451528356671
3.0700552486187846,0.4084420719901846
3.103425414364641,0.29632337428231376
3.1367955801104976,0.22436508412503456
3.170165745856354,0.20866501249936648
3.20353591160221,0.2437601622574091
3.2369060773480665,0.30653745859776427
3.2702762430939227,0.3674976821759128
3.3036464088397794,0.4036844574229444
3.3370165745856357,0.407094614461071
3.370386740331492,0.3847033560944828
3.4037569060773483,0.3504000939468271
3.4371270718232045,0.31327710232471545
3.4704972375690613,0.2687591989421003
3.5038674033149175,0.19773295230815063
3.537237569060774,0.07454994748130528
3.57060773480663,-0.12027135578123516
3.6039779005524863,-0.38971265824230067
3.6373480662983426,-0.7181177368955128
3.6707182320441993,-1.0780563650112989
3.7040883977900556,-1.4410610468968619
3.737458563535912,-1.7842093801766687
3.770828729281768,-2.08722119298794
3.8041988950276244,-2.3220179082587733
3.837569060773481,-2.4438861721906804
3.8709392265193374,-2.39491313830095
3.9043093922651937,-2.1238270853455936
3.93767955801105,-1.6150485877030771
3.9710497237569062,-0.9110395352390283
4.0044198895027625,-0.11255287906508336
4.037790055248619,0.6479648915555472
4.071160220994475,1.2497686387416798
4.104530386740332,1.6240945580290886
4.1379005524861885,1.7725653464746047
4.171270718232044,1.7562617908122462
4.204640883977901,1.662587674389921
4.238011049723757,1.5667991463981152
4.271381215469614,1.5054800600345297
4.30475138121547,1.4714195798799634
4.338121546961326,1.4284065116598745
4.371491712707183,1.336091196258658
4.404861878453039,1.1725589477605507
4.438232044198895,0.9454402689994156
4.471602209944752,0.6886198799502413
4.504972375690608,0.4477166550276917
4.538342541436465,0.2612966239394638
4.5717127071823205,0.14553879476146642
4.605082872928177,0.08820617048819769
4.638453038674034,0.05421139804733286
4.67182320441989,0.0008772449809979745
4.7051933701657465,-0.10271188756912754
4.738563535911602,-0.25994506540823786
4.771933701657459,-0.4416313912994007
4.805303867403316,-0.5952284826663635
4.8386740331491715,-0.6661744227752848
4.872044198895028,-0.6233441370123638
4.905414364640884,-0.47759755769337775
4.938784530386741,-0.28412267623930315
4.972154696132597,-0.12569806438253187
5.005524861878453,-0.08248208402584574
5.03889502762431,-0.2004533274286416
5.072265193370166,-0.4718512007101358
5.105635359116023,-0.8361071651076348
5.1390055248618784,-1.201025514641825
5.172375690607735,-1.4754194205220033
5.205745856353592,-1.5998631892091566
5.239116022099448,-1.5634792479439077
5.272486187845304,-1.4008604198260144
5.30585635359116,-1.1715128924017963
5.339226519337017,-0.9312789739039091
5.372596685082874,-0.7084869635397592
5.4059668508287295,-0.49580466209531165
5.439337016574586,-0.2621627805489019
5.472707182320442,0.020370853407005635
5.506077348066299,0.34847329979835007
5.5394475138121555,0.6749802226249451
5.572817679558011,0.9230073560286085
5.606187845303868,1.0246298416122916
5.639558011049724,0.96679934957595
5.672928176795581,0.8186810633193069
5.706298342541437,0.7192089522302765
5.739668508287293,0.8213911037100393
5.77303867403315,1.2131959219839448
5.806408839779006,1.8517750935287294
5.839779005524862,2.5480056451191393
5.873149171270718,3.019014691646931
5.906519337016575,2.9947754181450943
5.939889502762432,2.3360268644980344
5.9732596685082875,1.1102460050168825
6.006629834254144,-0.4123362350034007
6.04,-1.8455300604142044
6.073370165745857,-2.8217937270239095
6.1067403314917135,-3.1183879761721838
6.140110497237569,-2.7245263800875694
6.173480662983426,-1.827446986834592
6.206850828729282,-0.7309686384921041
6.240220994475139,0.2545656864133811
6.273591160220995,0.9069475348829029
6.306961325966851,1.1410853988245404
6.340331491712708,1.0048343098783532
6.373701657458564,0.634566553897626
6.40707182320442,0.19396146498461347
6.440441988950277,-0.18082070576444403
6.473812154696133,-0.41417181100969624
6.50718232044199,-0.4972731964401673
6.5405524861878455,-0.471823164817621
6.573922651933702,-0.4015788916032084
6.607292817679559,-0.3439286700431667
6.640662983425415,-0.33146013165599225
6.674033149171271,-0.36808283318028523
6.707403314917127,-0.43772515510688653
6.740773480662984,-0.5185755648373321
6.774143646408841,-0.594464398421022
6.8075138121546965,-0.6578790880312005
6.840883977900553,-0.7047220894630878
6.874254143646409,-0.726159218529559
6.907624309392266,-0.7047325417213317
6.9409944751381225,-0.6191278306128702
6.974364640883978,-0.4561097380912621
7.007734806629835,-0.2227337349168473
7.041104972375691,0.04942946825247603
7.074475138121548,0.3124389178944348
7.107845303867403,0.5198564469691574
7.14121546961326,0.6457774697510638
7.174585635359117,0.695248547744627
7.207955801104973,0.7005579851450738
7.241325966850829,0.7051001578724075
7.274696132596685,0.7426415898241583
7.308066298342542,0.8217041348129259
7.341436464088399,0.9218211351972223
7.3748066298342545,1.002573268885276
7.408176795580111,1.0206895606313386
7.441546961325967,0.9475986870208973
7.474917127071824,0.7804363810719404
7.5082872928176805,0.5428182731686763
7.541657458563536,0.27597510764555033
7.575027624309393,0.024397727572410523
7.608397790055249,-0.1782437675708796
7.641767955801106,-0.31784829894568484
7.675138121546962,-0.4007706597416631
7.708508287292818,-0.44749086385229986
7.741878453038675,-0.4822102591784995
7.775248618784531,-0.5225208637670782
7.808618784530387,-0.5727479213681769
7.841988950276244,-0.6229815330930446
7.8753591160221,-0.653824537923967
7.908729281767957,-0.6449864647516452
7.9420994475138125,-0.5844566388948613
7.975469613259669,-0.4745533030550752
8.008839779005525,-0.332094589034268
8.042209944751383,-0.18228089580966686
8.075580110497238,-0.04883705208788407
8.108950276243094,0.054925824640351936
8.14232044198895,0.12958358886776075
8.175690607734808,0.18570669373686796
8.209060773480664,0.23465703884236472
8.24243093922652,0.2792037033731786
8.275801104972377,0.3093991012197766
8.309171270718233,0.30635733238676627
8.342541436464089,0.25219198930752246
8.375911602209946,0.1409441304429884
8.409281767955802,-0.015166383261126326
8.442651933701658,-0.18725601642228443
8.476022099447514,-0.33818893346708495
8.509392265193371,-0.4339749925643639
8.542762430939227,-0.4535391720586075
8.576132596685083,-0.39370830584742467
8.60950276243094,-0.26860885609354795
8.642872928176796,-0.104588995555948
8.676243093922652,0.0672822276439245
8.709613259668508,0.21891782100852636
8.742983425414366,0.33112262859647273
8.776353591160222,0.39626166823049
8.809723756906077,0.4172263054433128
8.843093922651935,0.4035234771798178
8.87646408839779,0.36633911590798457
8.909834254143647,0.31460415650318785
8.943204419889504,0.2533134291757308
8.97657458563536,0.18409802354275198
9.009944751381216,0.10704655965201579
9.043314917127072,0.02249720401223418
9.07668508287293,-0.06799724327485356
9.110055248618785,-0.1614884574417606
9.143425414364641,-0.2535703223300999
9.176795580110499,-0.3378046122987872
9.210165745856354,-0.40471401186940364
9.24353591160221,-0.4413315545608818
9.276906077348068,-0.4326897619563028
9.310276243093924,-0.36601915226269616
9.34364640883978,-0.23691601346925026
9.377016574585635,-0.0550895178412832
9.410386740331493,0.15345682258163792
9.443756906077349,0.35010626607417245
9.477127071823205,0.4931417336473552
9.510497237569062,0.5502725371486913
9.543867403314918,0.5095395151033396
9.577237569060774,0.3841587491689201
9.610607734806631,0.20910564735271625
9.643977900552487,0.030500560466394162
9.677348066298343,-0.10838364242893461
9.710718232044199,-0.17958850144287758
9.744088397790057,-0.17737190562051655
9.777458563535912,-0.11770426770431475
9.810828729281768,-0.03105369178502025
9.844198895027626,0.0488009260223797
9.877569060773482,0.09607014292555598
9.910939226519337,0.10049097480580427
9.944309392265193,0.06841340908417279
9.97767955801105,0.017079967570262825
10.011049723756907,-0.035356745141166206
10.044419889502763,-0.07928148065893426
10.07779005524862,-0.11754743447565848
10.111160220994476,-0.16144913553971776
10.144530386740332,-0.22064839826400548
10.17790055248619,-0.29279435025562334
10.211270718232045,-0.3593974372969284
10.244640883977901,-0.3913844443664995
10.278011049723757,-0.3621950133203724
10.311381215469615,-0.2615665500027519
10.34475138121547,-0.10232164698982292
10.378121546961326,0.08376749108147546
10.411491712707184,0.25881726494172586
10.44486187845304,0.3933743228573472
10.478232044198895,0.4751007478248708
10.511602209944753,0.5078421108835455
10.544972375690609,0.5029648158709982
10.578342541436465,0.4689420071137885
10.61171270718232,0.4055452974828248
10.645082872928178,0.30582014496393567
10.678453038674034,0.16431925170286354
10.71182320441989,-0.013589490993158534
10.745193370165747,-0.20731606206432754
10.778563535911603,-0.38507430912276663
10.811933701657459,-0.5153491082145012
10.845303867403315,-0.5804290977946293
10.878674033149172,-0.5847438034223217
10.912044198895028,-0.5526943297680622
10.945414364640884,-0.5158852157736162
10.978784530386742,-0.49564811839776435
11.012154696132598,-0.49014551945905827
11.045524861878453,-0.473795529496396
11.078895027624311,-0.4105102816505673
11.112265193370167,-0.2744254896768458
11.145635359116023,-0.0669366384873558
11.179005524861878,0.1798120660591656
11.212375690607736,0.41559250332366315
11.245745856353592,0.5943524784387928
11.279116022099448,0.6938891195221709
11.312486187845305,0.7221691676837151
11.345856353591161,0.7072242576651661
11.379226519337017,0.676970585204278
11.412596685082875,0.6409569920565314
11.44596685082873,0.5847916204396696
11.479337016574586,0.4807172216352415
11.512707182320442,0.3086631835422924
11.5460773480663,0.0760861660402895
11.579447513812156,-0.17485108264073274
11.612817679558011,-0.3779774967189359
11.646187845303869,-0.4679875011811644
11.679558011049725,-0.4086811202968751
11.71292817679558,-0.21177058565294443
11.746298342541436,0.06273219969514779
11.779668508287294,0.32580370230544775
11.81303867403315,0.49129412603712636
11.846408839779006,0.5077348044818215
11.879779005524863,0.37683212526691817
11.91314917127072,0.1504337305569738
11.946519337016575,-0.09324342902583896
11.979889502762433,-0.2839139576076596
12.013259668508288,-0.38841682293359875
12.046629834254144,-0.4209370208494036
12.08,-0.42931963498141107
12.113370165745858,-0.46463957707141484
12.146740331491714,-0.5501777872448267
12.18011049723757,-0.6666336782009649
12.213480662983427,-0.761887947086184
12.246850828729283,-0.7802351435289812
12.280220994475139,-0.6950313332318289
12.313591160220996,-0.5263465314547923
12.346961325966852,-0.3330292233458533
12.380331491712708,-0.18252240633013678
12.413701657458564,-0.11426781443557359
12.447071823204421,-0.1166395255640578
12.480441988950277,-0.13056620760137735
12.513812154696133,-0.07883813415891561
12.54718232044199,0.09372086475911738
12.580552486187846,0.38982746016132463
12.613922651933702,0.7542473688826167
12.64729281767956,1.095043238674408
12.680662983425416,1.319817993707596
12.714033149171271,1.3690723174807806
12.747403314917127,1.2327779551419917
12.780773480662985,0.9467973235852454
12.81414364640884,0.5757803105814363
12.847513812154697,0.19300435997020884
12.880883977900554,-0.13539967385090207
12.91425414364641,-0.36033011940791415
12.947624309392266,-0.45600585811646527
12.980994475138122,-0.42437268997579225
13.01436464088398,-0.2961439988154654
13.047734806629835,-0.12510588129672967
13.081104972375691,0.02576342912747053
13.114475138121549,0.1030553101792358
13.147845303867404,0.07929571163358638
13.18121546961326,-0.04026167383275782
13.214585635359118,-0.22306189729912704
13.247955801104974,-0.42344299712220534
13.28132596685083,-0.598359978632102
13.314696132596685,-0.7180597235102668
13.348066298342543,-0.7692702174041791
13.381436464088399,-0.7529623996404518
13.414806629834255,-0.6806303065207431
13.448176795580112,-0.5715447724248036
13.481546961325968,-0.4503352110632836
13.514917127071824,-0.34239087300623133
13.548287292817681,-0.26570708676121885
13.581657458563537,-0.22127456808181004
13.615027624309393,-0.18729027835179815
13.648397790055249,-0.12263694963948511
13.681767955801106,0.018610249673134537
13.715138121546962,0.26572834732747314
13.748508287292818,0.6117558855789177
13.781878453038676,1.0053860920859814
13.815248618784532,1.360059572188357
13.848618784530387,1.5789774608896319
13.881988950276245,1.5877474385229242
13.9153591160221,1.3624023522574793
13.948729281767957,0.9414014640778623
13.982099447513813,0.41590071858360944
14.01546961325967,-0.09888715807754861
14.048839779005526,-0.5004450977306725
14.082209944751382,-0.7293194705186616
14.11558011049724,-0.7813822992012762
14.148950276243095,-0.6986024156019908
14.182320441988951,-0.5447854494586296
14.215690607734807,-0.3789795910790808
14.249060773480664,-0.23868101100630426
14.28243093922652,-0.13824985421733374
14.315801104972376,-0.0790920047211616
14.349171270718234,-0.062174150117889924
14.38254143646409,-0.09346427350691357
14.415911602209945,-0.17856798782151742
14.449281767955803,-0.3106271147854633
14.482651933701659,-0.4607692252766078
14.516022099447515,-0.5798330613311447
14.54939226519337,-0.6138724844251323
14.582762430939228,-0.5275527850749184
14.616132596685084,-0.32390882062371046
14.64950276243094,-0.049491090673238786
14.682872928176797,0.21939423238453917
14.716243093922653,0.4044157570421993
14.749613259668509,0.4551238413576675
14.782983425414367,0.36816672945493245
14.816353591160222,0.18784207497906869
14.849723756906078,-0.011853594726715353
14.883093922651934,-0.15596424115826585
14.916464088397792,-0.19645275583916116
14.949834254143648,-0.12844266715375185
14.983204419889503,0.010975160996820405
15.016574585635361,0.16018256128550232
15.049944751381217,0.2592278937703765
15.083314917127073,0.2740375558495377
15.116685082872928,0.20895407301262214
15.150055248618786,0.1028209250414474
15.183425414364642,0.010648550184897779
15.216795580110498,-0.02114720935782701
15.250165745856355,0.024696808168783665
15.283535911602211,0.12873302756176067
15.316906077348067,0.24340392034920486
15.350276243093925,0.3138619767846988
15.38364640883978,0.30164838516096426
15.417016574585636,0.20068517714666126
15.450386740331492,0.03875885855104379
15.48375690607735,-0.13541460015338344
15.517127071823205,-0.2727369601053758
15.550497237569061,-0.3419031021380219
15.583867403314919,-0.3371028206495104
15.617237569060775,-0.27296548283617184
15.65060773480663,-0.17109164381055186
15.683977900552488,-0.04653408927416583
15.717348066298344,0.09794240618692503
15.7507182320442,0.2666631236882335
15.784088397790056,0.4581182821107325
15.817458563535913,0.6523569713038697
15.85082872928177,0.8074831932657747
15.884198895027625,0.8699583403097575
15.917569060773483,0.7961434067099775
15.950939226519338,0.5755539536931648
15.984309392265194,0.24354023860788443
16.01767955801105,-0.12526365488173277
16.051049723756908,-0.4424487542725868
16.084419889502765,-0.6400888548132917
16.11779005524862,-0.6979769688045608
16.151160220994477,-0.6503128588833044
16.18453038674033,-0.5677154849671282
16.21790055248619,-0.5224506795467111
16.251270718232046,-0.5532989231161959
16.2846408839779,-0.6470703186827773
16.318011049723758,-0.7458946598169268
16.351381215469615,-0.7768568096865568
16.38475138121547,-0.6895353169788571
16.418121546961327,-0.48306231175573916
16.451491712707185,-0.20945236724375457
16.48486187845304,0.04842815023373133
16.518232044198896,0.21358956541504567
16.551602209944754,0.24880162881206017
16.584972375690608,0.171840044268767
16.618342541436466,0.04554691547085077
16.651712707182323,-0.051850562364594684
16.685082872928177,-0.06177552435772522
16.718453038674035,0.030522800180939266
16.751823204419892,0.19302271822813566
16.785193370165747,0.3651354073835969
16.818563535911604,0.48710553297636633
16.851933701657458,0.52609465387897
16.885303867403316,0.4871536605667065
16.918674033149173,0.405493288162021
16.952044198895027,0.32571353225445315
16.985414364640885,0.27934502262195443
17.018784530386743,0.27175653437062575
17.052154696132597,0.2839085402427135
17.085524861878454,0.28673588663571864
17.118895027624312,0.25994013474611105
17.152265193370166,0.20531361173123724
17.185635359116024,0.14783259836858112
17.21900552486188,0.12391208158551834
17.252375690607735,0.16246109368370332
17.285745856353593,0.2678779132294246
17.31911602209945,0.41333360221948384
17.352486187845304,0.5480130460357538
