Frequency (Hz),Amplitude
0.0,5.0098239146725
0.019801980198019802,5.007434631857992
0.039603960396039604,5.000269359416711
0.0594059405940594,4.988335825131274
0.07920792079207921,4.971646907940489
0.09900990099009901,4.9502206370593225
0.1188118811881188,4.924080191089151
0.13861386138613863,4.893253897473942
0.15841584158415842,4.857775232779285
0.1782178217821782,4.817682824408728
0.19801980198019803,4.773020454530796
0.21782178217821782,4.723837067176614
0.2376237623762376,4.670186779690322
0.25742574257425743,4.612128899981752
0.27722772277227725,4.5497279513567435
0.297029702970297,4.483053707100092
0.31683168316831684,4.412181237480315
0.33663366336633666,4.337190972462154
0.3564356435643564,4.258168784186482
0.37623762376237624,4.17520609425543
0.39603960396039606,4.088400012105444
0.4158415841584158,3.997853512346231
0.43564356435643564,3.903675661001453
0.45544554455445546,3.8059819032615705
0.4752475247524752,3.704894428859109
0.495049504950495,3.6005426357918493
0.5148514851485149,3.493063719252794
0.5346534653465347,3.382603420839707
0.5544554455445545,3.269316984210046
0.5742574257425742,3.1533703784534874
0.594059405940594,3.0349418712021
0.613861386138614,2.9142240622427242
0.6336633663366337,2.791426528562685
0.6534653465346534,2.6667792883569494
0.6732673267326733,2.5405373718969457
0.6930693069306931,2.412986902065399
0.7128712871287128,2.284453252437429
0.7326732673267327,2.1553120883562715
0.7524752475247525,2.026004437112605
0.7722772277227723,1.8970574155063107
0.7920792079207921,1.7691129049645147
0.8118811881188118,1.642967313753777
0.8316831683168316,1.519626490654075
0.8514851485148516,1.400380390012209
0.8712871287128713,1.2869008705961782
0.891089108910891,1.1813596826215775
0.9108910891089109,1.0865453834950671
0.9306930693069307,1.0059176470586548
0.9504950495049505,0.9434736394723958
0.9702970297029703,0.9032584673568753
0.99009900990099,0.8884603544686579
1.00990099009901,0.9003908388898568
1.0297029702970297,0.937985209129625
1.0495049504950495,0.998211500940513
1.0693069306930694,1.0770668663878584
1.0891089108910892,1.1705174049906482
1.108910891089109,1.2750339529646102
1.1287128712871286,1.3877560351533922
1.1485148514851484,1.5064505322742785
1.1683168316831685,1.6293975674357446
1.188118811881188,1.755271106767743
1.2079207920792079,1.8830386424807661
1.227722772277228,2.0118841390274276
1.2475247524752475,2.1411512083399438
1.2673267326732673,2.2703019228169508
1.2871287128712872,2.3988871109321166
1.3069306930693068,2.526524895530258
1.3267326732673268,2.652885101420884
1.3465346534653466,2.7776778417349353
1.3663366336633662,2.9006450924215743
1.3861386138613863,3.021554418248417
1.405940594059406,3.140194260738564
1.4257425742574257,3.2563703701697424
1.4455445544554455,3.369903083225534
1.4653465346534653,3.4806252313973647
1.4851485148514851,3.5883805239959234
1.504950495049505,3.693022291294982
1.5247524752475248,3.794412503120199
1.5445544554455446,3.8924209996773897
1.5643564356435644,3.986924887040962
1.5841584158415842,4.077808061187325
1.6039603960396038,4.164960832939739
1.6237623762376237,4.248279632517944
1.6435643564356437,4.327666777143399
1.6633663366336633,4.403030288755359
1.683168316831683,4.474283751645384
1.7029702970297032,4.54134620193391
1.7227722772277227,4.604142042451606
1.7425742574257426,4.662600977866228
1.7623762376237624,4.716657965899263
1.782178217821782,4.7662531812698585
1.801980198019802,4.811331989634753
1.8217821782178218,4.851844929299115
1.8415841584158414,4.887747698881493
1.8613861386138615,4.9190011494486425
1.881188118811881,4.945571279908726
1.900990099009901,4.9674292346775095
1.920792079207921,4.984551302821812
1.9405940594059405,4.996918918045314
1.9603960396039604,5.00451865902072
1.98019801980198,5.007342249694525
2.0,5.005386559300139
2.01980198019802,4.998653601916541
2.0396039603960396,4.987150535505391
2.0594059405940595,4.9708896604534125
2.0792079207920793,4.949888417741943
2.099009900990099,4.92416938696385
2.118811881188119,4.8937602845145465
2.1386138613861387,4.858693962400448
2.1584158415841586,4.8190084082404
2.1782178217821784,4.774746747187509
2.1980198019801978,4.725957246677168
2.217821782178218,4.67269332511844
2.237623762376238,4.615013565900972
2.257425742574257,4.552981738398776
2.2772277227722775,4.4866668280319315
2.297029702970297,4.416143077916705
2.3168316831683167,4.341490045219407
2.336633663366337,4.262792676063327
2.3564356435643563,4.180141403765955
2.376237623762376,4.093632276364026
2.3960396039603964,4.003367120896931
2.4158415841584158,3.9094537538705953
2.4356435643564356,3.8120062498607603
2.455445544554456,3.711145283535316
2.4752475247524752,3.6069985647554788
2.495049504950495,3.4997013922389266
2.514851485148515,3.389397359071977
2.5346534653465347,3.276239253904402
2.5544554455445545,3.160390216035833
2.5742574257425743,3.0420252223701914
2.594059405940594,2.921333011640707
2.6138613861386135,2.798518589703589
2.633663366336634,2.6738065139276204
2.6534653465346536,2.5474452319484167
2.673267326732673,2.4197128609152823
2.6930693069306932,2.290924953439361
2.712871287128713,2.1614450284149322
2.7326732673267324,2.0316989806689847
2.7524752475247527,1.9021949651774006
2.7722772277227725,1.7735510269411157
2.792079207920792,1.6465336460351787
2.811881188118812,1.5221114246114973
2.8316831683168315,1.4015289919581053
2.8514851485148514,1.2864056590495914
2.8712871287128716,1.17885829814588
2.891089108910891,1.0816315034074018
2.910891089108911,0.9981790348204008
2.9306930693069306,0.9325723727442778
2.9504950495049505,0.8890510647175514
2.9702970297029703,0.8711095927350679
2.99009900990099,0.8803820355178048
3.00990099009901,0.916005531860819
3.0297029702970297,0.9749651965712823
3.0495049504950495,1.0531395001933295
3.0693069306930694,1.1463311306867152
3.089108910891089,1.250864867623621
3.108910891089109,1.3637725992572434
3.128712871287129,1.4827497969349497
3.148514851485148,1.6060320815924016
3.1683168316831685,1.7322668404092156
3.1881188118811883,1.860406271585105
3.2079207920792077,1.9896259301308816
3.227722772277228,2.1192651333830175
3.2475247524752473,2.2487840748864927
3.267326732673267,2.3777330911322685
3.2871287128712874,2.505730581381962
3.3069306930693068,2.6324470457292644
3.3267326732673266,2.75759345245567
3.346534653465347,2.8809126845108293
3.366336633663366,3.0021731924822093
3.386138613861386,3.1211642426780335
3.4059405940594063,3.23769232919137
3.4257425742574257,3.351578443451336
3.4455445544554455,3.4626559814216136
3.4653465346534653,3.5707691292883927
3.485148514851485,3.6757716113252132
3.504950495049505,3.7775257141396974
3.5247524752475248,3.8759015234390897
3.5445544554455446,3.970776325355713
3.564356435643564,4.062034136008717
3.5841584158415842,4.149565331564685
3.603960396039604,4.233266357449802
3.6237623762376234,4.3130395001601025
3.6435643564356437,4.388792708742235
3.6633663366336635,4.460439455779327
3.683168316831683,4.527898629837998
3.702970297029703,4.591094452971624
3.722772277227723,4.649956418152294
3.7425742574257423,4.704419242504485
3.762376237623762,4.754422833003798
3.7821782178217824,4.799912261931925
3.801980198019802,4.8408377498816355
3.8217821782178216,4.877154654510566
3.841584158415842,4.9088234635721095
3.8613861386138613,4.935809791020936
3.881188118811881,4.958084375214068
3.9009900990099013,4.975623078414849
3.9207920792079207,4.988406886965214
3.9405940594059405,4.996421911627474
3.96039603960396,4.999659387715947
3.98019801980198,4.998115674744969
4.0,4.99179225541773
4.01980198019802,4.980695733872114
4.03960396039604,4.964837833189357
4.0594059405940595,4.944235392261134
4.079207920792079,4.91891036220352
4.099009900990099,4.888889802605626
4.118811881188119,4.85420587800971
4.138613861386139,4.814895855141975
4.158415841584159,4.7710021015537825
4.178217821782178,4.722572086497681
4.198019801980198,4.669658385057347
4.217821782178218,4.612318686784849
4.237623762376238,4.550615810383266
4.257425742574258,4.484617726321112
4.2772277227722775,4.414397589696494
4.297029702970297,4.340033786205949
4.316831683168317,4.261609994747541
4.336633663366336,4.1792152710404
4.356435643564357,4.092944157728752
4.376237623762377,4.002896827830808
4.3960396039603955,3.9091792701908483
4.415841584158416,3.8119035279324547
4.435643564356436,3.711188003976572
4.455445544554455,3.607157851739352
4.475247524752476,3.4999454745179595
4.4950495049504955,3.389691164316229
4.514851485148514,3.276543920672799
4.534653465346535,3.1606625034634668
4.554455445544555,3.042216792146621
4.574257425742574,2.9213895496804883
4.594059405940594,2.798378725564903
4.613861386138614,2.673400483897522
4.633663366336633,2.5466932160777884
4.653465346534653,2.4185229044815375
4.673267326732674,2.289190359040191
4.693069306930693,2.1590410770433093
4.712871287128713,2.028478812670056
4.732673267326733,1.897984436230507
4.752475247524752,1.7681423778880012
4.772277227722772,1.6396779518966287
4.792079207920793,1.5135101550696497
4.811881188118812,1.3908259048375944
4.8316831683168315,1.2731821875994334
4.851485148514852,1.1626393981501237
4.871287128712871,1.0619152514128742
4.891089108910891,0.974510382109036
4.910891089108912,0.9046794733886272
4.930693069306931,0.8570287110388315
4.9504950495049505,0.8355565624597926
4.97029702970297,0.8423488180748779
4.99009900990099,0.8767196166710125
5.00990099009901,0.9355067663965907
5.02970297029703,1.014264421326916
5.0495049504950495,1.1084692795089117
5.069306930693069,1.214205160018595
5.089108910891089,1.3283555450092148
5.108910891089109,1.448536217337608
5.128712871287129,1.5729460154534298
5.148514851485149,1.7002197361897586
5.1683168316831685,1.8293095907899628
5.188118811881188,1.9593971380894057
5.207920792079208,2.0898301096340823
5.227722772277227,2.2200776721946753
5.247524752475248,2.3496987923930996
5.267326732673268,2.4783197614218677
5.2871287128712865,2.605618101151052
5.306930693069307,2.731310930554588
5.326732673267327,2.8551464717670294
5.346534653465346,2.976897786208786
5.366336633663367,3.0963581106513316
5.3861386138613865,3.2133373530879026
5.405940594059405,3.327659438073603
5.425742574257426,3.439160280520123
5.445544554455446,3.547686228932134
5.465346534653465,3.6530928625166075
5.485148514851486,3.755244057333716
5.504950495049505,3.854011258617979
5.524752475247524,3.9492729122391523
5.544554455445545,4.04091401980717
5.564356435643565,4.128825790401359
5.584158415841584,4.212905368188289
5.603960396039604,4.293055619890386
5.623762376237624,4.369184969609891
5.643564356435643,4.441207271202884
5.663366336633663,4.50904171045926
5.683168316831684,4.572612730932905
5.702970297029703,4.631849978501215
5.7227722772277225,4.686688260698418
5.742574257425743,4.737067517628244
5.762376237623762,4.782932801864522
5.782178217821782,4.824234265230593
5.801980198019803,4.860927150735902
5.821782178217822,4.892971788262987
5.841584158415841,4.920333592854955
5.861386138613861,4.942983064665671
5.881188118811881,4.960895789812141
5.900990099009901,4.974052441517804
5.920792079207921,4.982438781063667
5.9405940594059405,4.986045658175767
5.96039603960396,4.98486901057694
5.98019801980198,4.978909862521747
6.0,4.9681743222176005
6.01980198019802,4.952673578118208
6.03960396039604,4.932423894156093
6.0594059405940595,4.907446604065781
6.079207920792079,4.87776810503793
6.099009900990099,4.843419851042352
6.118811881188119,4.80443834626659
6.138613861386139,4.760865139241434
6.158415841584159,4.712746818370065
6.178217821782178,4.660135009749664
6.198019801980198,4.603086378380238
6.217821782178218,4.5416626341066175
6.237623762376237,4.475930543945741
6.257425742574258,4.4059619528315785
6.2772277227722775,4.3318338152828275
6.297029702970296,4.253628241092942
6.316831683168317,4.171432558894658
6.336633663366337,4.0853394024098035
6.356435643564356,3.995446825427067
6.376237623762377,3.9018584531431673
6.396039603960396,3.8046836795799965
6.415841584158415,3.704037923518138
6.435643564356436,3.600042959000034
6.455445544554456,3.4928273412816604
6.475247524752475,3.3825269556119917
6.495049504950495,3.2692857250587015
6.514851485148515,3.153256525731536
6.534653465346534,3.0346023745763056
6.554455445544554,2.9134979784759807
6.574257425742575,2.7901317667588903
6.594059405940594,2.664708576974126
6.6138613861386135,2.5374532329295
6.633663366336634,2.408615355181366
6.653465346534653,2.2784758938766507
6.673267326732673,2.1473560975023154
6.693069306930694,2.0156299678311833
6.712871287128713,1.8837417604723696
6.732673267326732,1.752230858361587
6.752475247524753,1.6217674868556056
6.772277227722772,1.4932043692406534
6.792079207920792,1.3676515313902102
6.811881188118813,1.2465835023121072
6.8316831683168315,1.1319878324663069
6.851485148514851,1.0265542200104807
6.871287128712871,0.9338678352200356
6.891089108910891,0.8584809929913615
6.910891089108911,0.8055915827440331
6.930693069306931,0.7800068885424034
6.9504950495049505,0.7844988750970747
6.97029702970297,0.8185495856391155
6.99009900990099,0.8786014557615858
7.00990099009901,0.9595718664449923
7.02970297029703,1.0563805431874704
7.0495049504950495,1.164751690705236
7.069306930693069,1.2813818991447414
7.089108910891089,1.4038108286642295
7.108910891089109,1.5302211929395009
7.128712871287128,1.6592601633751876
7.148514851485149,1.789903723277966
7.1683168316831685,1.9213600886979503
7.188118811881187,2.0530026447690597
7.207920792079208,2.18432366118036
7.227722772277228,2.3149022368549588
7.247524752475247,2.444381912608246
7.267326732673268,2.572454867420642
7.287128712871287,2.698850631741508
7.306930693069306,2.823327931752305
7.326732673267327,2.9456687289131613
7.346534653465347,3.065673817219361
7.366336633663366,3.183159538986993
7.3861386138613865,3.2979553131499673
7.405940594059406,3.4099017603372994
7.425742574257425,3.5188492708841648
7.445544554455446,3.624656904823118
7.465346534653466,3.7271915429629052
7.485148514851485,3.8263272294618753
7.504950495049505,3.921944661555215
7.524752475247524,4.013930793129055
7.544554455445544,4.102178526895793
7.564356435643565,4.186586475870074
7.584158415841584,4.267058779268695
7.603960396039604,4.343504961278984
7.623762376237624,4.41583982365314
7.643564356435643,4.483983365003866
7.663366336633663,4.547860721150675
7.683168316831684,4.607402122007767
7.702970297029703,4.6625428613953845
7.7227722772277225,4.7132232768560565
7.742574257425743,4.759388737111057
7.762376237623762,4.80098963523361
7.782178217821782,4.837981385969625
7.801980198019803,4.870324425923366
7.821782178217822,4.89798421555915
7.841584158415841,4.920931242162795
7.861386138613862,4.939141023066282
7.881188118811881,4.952594108574204
7.900990099009901,4.961276084145189
7.92079207920792,4.965177571481682
7.9405940594059405,4.964294228269518
7.96039603960396,4.958626746389093
7.980198019801979,4.948180848494186
8.0,4.932967282925937
8.01980198019802,4.913001816999948
8.03960396039604,4.888305228776533
8.05940594059406,4.858903297499733
8.07920792079208,4.824826792972926
8.099009900990099,4.786111464230215
8.118811881188119,4.742798027966917
8.138613861386139,4.694932157313243
8.158415841584159,4.6425644716780194
8.178217821782178,4.585750528560461
8.198019801980198,4.524550818435
8.217821782178218,4.45903076406849
8.237623762376238,4.3892607259429095
8.257425742574258,4.3153160158488575
8.277227722772277,4.23727692120756
8.297029702970297,4.155228743303882
8.316831683168317,4.069261853410157
8.336633663366337,3.979471771806865
8.356435643564357,3.885959276036991
8.376237623762377,3.788830546469935
8.396039603960396,3.6881973595432207
8.415841584158416,3.5841773420960257
8.435643564356436,3.4768943042930975
8.455445544554456,3.3664786741653523
8.475247524752476,3.2530680643479766
8.495049504950495,3.1368080120278594
8.514851485148515,3.0178529476711784
8.534653465346535,2.8963674686552783
8.554455445544555,2.772528023291927
8.574257425742575,2.646525153205995
8.594059405940595,2.5185665042865937
8.613861386138613,2.3888809088987344
8.633663366336634,2.2577239812986707
8.653465346534654,2.1253858807924555
8.673267326732672,1.9922022260189973
8.693069306930694,1.858569658318158
8.712871287128714,1.7249683641678735
8.732673267326732,1.5919951508197212
8.752475247524753,1.4604126792471954
8.772277227722773,1.331223492107095
8.792079207920791,1.205781617192882
8.811881188118813,1.0859586273190718
8.831683168316832,0.9743793892144548
8.85148514851485,0.8747163661312944
8.871287128712872,0.7919337176557251
8.891089108910892,0.7321445311691684
8.91089108910891,0.7015007167994212
8.930693069306932,0.7039321810131435
8.950495049504951,0.7390935110832542
8.97029702970297,0.8025612542710084
8.990099009900991,0.8880630684880316
9.00990099009901,0.9896104594462339
9.029702970297029,1.1024321262922818
9.04950495049505,1.2230265395440154
9.06930693069307,1.348896035632274
9.089108910891088,1.4782575851226591
9.10891089108911,1.609817524899613
9.12871287128713,1.7426145193039395
9.148514851485148,1.8759143891250851
9.16831683168317,2.0091403773196768
9.188118811881187,2.141826720271022
9.207920792079207,2.2735873996443914
9.227722772277229,2.4040948196164624
9.247524752475247,2.533065040389396
9.267326732673267,2.660247400593174
9.287128712871288,2.7854171208169234
9.306930693069306,2.9083699623201444
9.326732673267326,3.028918323342032
9.346534653465348,3.146888355149968
9.366336633663366,3.2621178110472675
9.386138613861386,3.374454428776193
9.405940594059407,3.4837547055827156
9.425742574257425,3.589882965428764
9.445544554455445,3.6927106456911707
9.465346534653467,3.7921157502176004
9.485148514851485,3.887982429467965
9.504950495049505,3.9802006584147747
9.524752475247526,4.068665990088663
9.544554455445544,4.153279367941216
9.564356435643564,4.23394698410753
9.584158415841586,4.310580173571144
9.603960396039604,4.383095336433652
9.623762376237623,4.451413882162163
9.643564356435645,4.515462190967606
9.663366336633663,4.575171588454167
9.683168316831683,4.6304783304481445
9.702970297029704,4.681323595515914
9.722772277227723,4.727653483155387
9.742574257425742,4.769419016022436
9.762376237623764,4.806576144855962
9.782178217821782,4.839085755008937
9.801980198019802,4.866913673691009
9.821782178217823,4.8900306771913264
9.841584158415841,4.908412497484959
9.861386138613861,4.922039827739726
9.881188118811881,4.930898326336507
9.900990099009901,4.9349786190991995
9.92079207920792,4.93427629950371
9.94059405940594,4.928791926701136
9.96039603960396,4.9185310212509075
9.98019801980198,4.903504058517352
10.0,4.88372645973913
10.01980198019802,4.859218580838039
10.03960396039604,4.830005699092613
10.05940594059406,4.796117997865541
10.07920792079208,4.757590549643833
10.099009900990099,4.714463297729881
10.118811881188119,4.6667810370129414
10.138613861386139,4.614593394358097
10.158415841584159,4.5579548092780175
10.178217821782178,4.496924515708129
10.198019801980198,4.431566525895822
10.217821782178218,4.361949617649433
10.237623762376238,4.288147326485726
10.257425742574258,4.210237944583926
10.277227722772277,4.128304528922687
10.297029702970297,4.042434921575993
10.316831683168317,3.9527217859171166
10.336633663366337,3.859262663485389
10.356435643564357,3.762160057589503
10.376237623762377,3.6615215514653707
10.396039603960396,3.557459971135364
10.415841584158416,3.450093606253318
10.435643564356436,3.3395465064898984
10.455445544554454,3.2259488768854934
10.475247524752476,3.1094376037645715
10.495049504950495,2.990156954297498
10.514851485148514,2.8682595091706746
10.534653465346535,2.743907411473025
10.554455445544555,2.617274049542969
10.574257425742573,2.4885463430262167
10.594059405940595,2.357927879226575
10.613861386138614,2.225643266462883
10.633663366336632,2.091944258338661
10.653465346534654,1.9571185012458874
10.673267326732674,1.8215022422544573
10.693069306930692,1.6854991370783519
10.712871287128714,1.5496086490784071
10.732673267326733,1.4144698348006386
10.752475247524751,1.2809302548380332
10.772277227722773,1.1501563750912196
10.792079207920793,1.0238121954571888
