Time (s),Filtered Signal
0.0,0.0458922163922109
0.03337028824833703,0.04414794894641056
0.06674057649667406,0.08310022526624518
0.10011086474501109,0.18766625544836174
0.13348115299334812,0.35727501939015366
0.16685144124168516,0.5668773523545403
0.20022172949002218,0.7767432721746869
0.2335920177383592,0.9459604602536064
0.26696230598669624,1.0439546024159427
0.3003325942350333,1.0564838123753466
0.3337028824833703,0.9857205933264025
0.3670731707317073,0.8464015134280046
0.40044345898004435,0.6606982524694412
0.4338137472283814,0.45368235778619037
0.4671840354767184,0.2499199053773552
0.5005543237250555,0.0707502908313085
0.5339246119733925,-0.06835703399183843
0.5672949002217295,-0.16041277711352656
0.6006651884700666,-0.20874561565246622
0.6340354767184035,-0.22688717026218067
0.6674057649667406,-0.23556464032921814
0.7007760532150776,-0.25678077951298345
0.7341463414634146,-0.30625694637112
0.7675166297117517,-0.38668528453691603
0.8008869179600887,-0.4846886928103315
0.8342572062084257,-0.5736340031297585
0.8676274944567628,-0.622405965544325
0.9009977827050998,-0.607533025006807
0.9343680709534368,-0.523909187184734
0.9677383592017739,-0.38912428159758755
1.001108647450111,-0.238680518268569
1.0344789356984478,-0.11336698060753478
1.067849223946785,-0.04387824946626094
1.101219512195122,-0.03936239046336207
1.134589800443459,-0.08498822920396966
1.167960088691796,-0.14951576421740828
1.2013303769401331,-0.1992457451524788
1.23470066518847,-0.2118905866150822
1.268070953436807,-0.1842098127572611
1.3014412416851442,-0.1304575591078145
1.3348115299334813,-0.07313755031294926
1.3681818181818182,-0.031051080636813975
1.4015521064301553,-0.010524588771882006
1.4349223946784924,-0.003719053171088484
1.4682926829268292,0.005832466671177766
1.5016629711751663,0.03391693667766746
1.5350332594235034,0.08769779457324603
1.5684035476718403,0.16324238503161245
1.6017738359201774,0.2494683411625242
1.6351441241685145,0.3358118370444817
1.6685144124168514,0.4187225787984332
1.7018847006651885,0.5026117984952441
1.7352549889135256,0.5940237262695903
1.7686252771618625,0.692006837901786
1.8019955654101996,0.7805835780848961
1.8353658536585367,0.8289632399819243
1.8687361419068735,0.8014449597541865
1.9021064301552106,0.6735554838464909
1.9354767184035477,0.446818715369641
1.9688470066518848,0.15420561425445145
2.002217294900222,-0.14767333757380127
2.035587583148559,-0.39712448752143553
2.0689578713968957,-0.5487361756433223
2.102328159645233,-0.5881850380650193
2.13569844789357,-0.5344334282815526
2.1690687361419068,-0.4294011513561922
2.202439024390244,-0.3207744698822223
2.235809312638581,-0.24586346242486748
2.269179600886918,-0.22262964466354038
2.302549889135255,-0.24966006594932869
2.335920177383592,-0.3125356998914413
2.369290465631929,-0.3918976479472832
2.4026607538802662,-0.4692398207795918
2.436031042128603,-0.5290882689968917
2.46940133037694,-0.558892949148556
2.5027716186252773,-0.5490510936428777
2.536141906873614,-0.49456545049577166
2.569512195121951,-0.39777621443975186
2.6028824833702884,-0.2699242990752822
2.6362527716186253,-0.12926589241347278
2.6696230598669626,0.004704042122108706
2.7029933481152995,0.11866539964546233
2.7363636363636363,0.21049370609815607
2.7697339246119737,0.288466160093706
2.8031042128603105,0.36428262944033246
2.8364745011086474,0.4433942621503584
2.8698447893569847,0.5183797081992809
2.9032150776053216,0.5700728958745468
2.9365853658536585,0.5770625798159226
2.969955654101996,0.5291684873472525
3.0033259423503327,0.43741099384035087
3.0366962305986696,0.33385743668408535
3.070066518847007,0.25954407736467416
3.1034368070953438,0.24519267860262955
3.1368070953436806,0.2941644841232551
3.170177383592018,0.3771014598473011
3.203547671840355,0.4424318519122819
3.2369179600886917,0.4387985985626009
3.270288248337029,0.33884324332972215
3.303658536585366,0.1524862086790781
3.337028824833703,-0.0771044598197503
3.37039911308204,-0.292848633935205
3.403769401330377,-0.4485713648432175
3.437139689578714,-0.5268906250619902
3.470509977827051,-0.5417289364133706
3.503880266075388,-0.5252899423075132
3.537250554323725,-0.5074600466010555
3.5706208425720622,-0.49923223703309727
3.603991130820399,-0.48904862784589037
3.637361419068736,-0.4534832139449018
3.6707317073170733,-0.37556376841664707
3.70410199556541,-0.25971917170693604
3.737472283813747,-0.13420554110689115
3.7708425720620844,-0.038903102331177504
3.8042128603104213,-0.004730322571537155
3.8375831485587586,-0.03595691189249633
3.8709534368070955,-0.10552306129183973
3.9043237250554323,-0.16659600055316107
3.9376940133037697,-0.17475045981787804
3.9710643015521065,-0.10928763315834537
4.004434589800444,0.017362350642170135
4.037804878048781,0.1667260571133544
4.071175166297118,0.293597812744885
4.1045454545454545,0.3670913444397451
4.137915742793791,0.38265643424966767
4.171286031042128,0.3597720377809
4.204656319290466,0.3279490845046847
4.238026607538803,0.3095806995823725
4.27139689578714,0.30903876943748343
4.304767184035477,0.3131729305950011
4.3381374722838135,0.30172558155078133
4.371507760532151,0.2609225164124722
4.404878048780488,0.19236433789271662
4.438248337028825,0.1125985818931876
4.471618625277162,0.04425240003091718
4.504988913525499,0.00415931812252253
4.538359201773836,-0.004881928598931316
4.571729490022173,0.005420314317802633
4.60509977827051,0.01578640633062899
4.638470066518847,0.009489664829038909
4.671840354767184,-0.01976246140028382
4.705210643015521,-0.06584720139261832
4.738580931263858,-0.11436560709756362
4.771951219512196,-0.15007849102879117
4.8053215077605325,-0.16370484932427415
4.838691796008869,-0.15519728507638791
4.872062084257206,-0.13282076175584204
4.905432372505543,-0.10933574015861224
4.93880266075388,-0.09741557625998493
4.972172949002218,-0.10606143993392153
5.005543237250555,-0.13878133534925047
5.0389135254988915,-0.1933561645870251
5.072283813747228,-0.262555098329861
5.105654101995565,-0.33524677707211525
5.139024390243902,-0.39774979570927627
5.17239467849224,-0.4356120747126938
5.205764966740577,-0.43601086121713933
5.239135254988914,-0.39058613012237875
5.2725055432372505,-0.29802683129538865
5.305875831485587,-0.16550372268822738
5.339246119733925,-0.00827139160244465
5.372616407982262,0.15270268336840812
5.405986696230599,0.29469145147428616
5.439356984478936,0.3980037939110612
5.472727272727273,0.4506748738013763
5.5060975609756095,0.4519406487200452
5.539467849223947,0.41331283385737916
5.572838137472284,0.3563079262213687
5.606208425720621,0.3066531621827236
5.639578713968958,0.2860676682714289
5.672949002217295,0.3040737805375591
5.706319290465632,0.3530085741261314
5.7396895787139695,0.4088358298060586
5.773059866962306,0.4384011838160731
5.806430155210643,0.41109188635186356
5.83980044345898,0.31067558141806784
5.873170731707317,0.1425808090023755
5.906541019955654,-0.06649041618312047
5.939911308203992,-0.27659159856211607
5.9732815964523285,-0.44703130024352233
6.006651884700665,-0.5485692607431668
6.040022172949002,-0.5711278248277248
6.073392461197339,-0.5250067629464443
6.106762749445676,-0.435996912814929
6.140133037694014,-0.3364134376722531
6.173503325942351,-0.2547910878161473
6.2068736141906875,-0.2072016333858189
6.240243902439024,-0.192978314528556
6.273614190687361,-0.1966314719962622
6.306984478935698,-0.19558843732373551
6.340354767184036,-0.1706999735359667
6.373725055432373,-0.1147511334247359
6.40709534368071,-0.03487277448606797
6.4404656319290465,0.05221767018918409
6.473835920177383,0.12941772675056723
6.507206208425721,0.1878186714650972
6.540576496674058,0.2300980413657053
6.573946784922395,0.2671549296736426
6.607317073170732,0.31013389053113427
6.640687361419069,0.3623773627143443
6.674057649667406,0.4157413831286947
6.707427937915743,0.45330710726131124
6.74079822616408,0.4571474464228302
6.774168514412417,0.4171786097880018
6.807538802660754,0.3365222794163024
6.840909090909091,0.23050576420540034
6.874279379157428,0.11960852593660502
6.9076496674057655,0.019778922550276558
6.941019955654102,-0.06495622695468836
6.974390243902439,-0.14360545397578128
7.007760532150776,-0.23209582426364875
7.041130820399113,-0.3426660995612886
7.07450110864745,-0.47400489629684167
7.107871396895788,-0.6073098074781208
7.1412416851441245,-0.7107608771449074
7.174611973392461,-0.7509061098317217
7.207982261640798,-0.7061390670337682
7.241352549889135,-0.5764009617952424
7.274722838137472,-0.38486358347579025
7.30809312638581,-0.1707765213225746
7.341463414634147,0.02369114123625977
7.3748337028824835,0.1674406303953264
7.40820399113082,0.24991034848738994
7.441574279379157,0.2825992464638604
7.474944567627494,0.2924134647994526
7.508314855875832,0.30974306639344484
7.541685144124169,0.3560509591934209
7.575055432372506,0.43570236226978515
7.6084257206208425,0.5348846891528602
7.641796008869179,0.6275474645658727
7.675166297117517,0.6854982169266439
7.708536585365854,0.6882799642452015
7.741906873614191,0.6289153307352883
7.775277161862528,0.5138456613966257
7.808647450110865,0.35829282407213925
7.842017738359202,0.18025069954863637
7.875388026607539,-0.0037316748718124763
7.908758314855876,-0.1797390396161919
7.942128603104213,-0.3358208402479048
7.97549889135255,-0.46177225451716825
8.008869179600888,-0.5507214519290927
8.042239467849225,-0.6016415327812249
8.075609756097561,-0.6202922692820086
8.108980044345898,-0.616635694324047
8.142350332594235,-0.5992843498412451
8.175720620842572,-0.5701504850537354
8.209090909090909,-0.5230181190058419
8.242461197339246,-0.44757082720315955
8.275831485587583,-0.3368623916894172
8.30920177383592,-0.19377887440333333
8.342572062084257,-0.03245335908853673
8.375942350332595,0.12635800413010634
8.409312638580932,0.2632467787751081
8.442682926829269,0.36684402026353374
8.476053215077606,0.43560738435752777
8.509423503325943,0.4742847319435673
8.54279379157428,0.4879562062948711
8.576164079822616,0.47788993164908267
8.609534368070953,0.4419746886674662
8.64290465631929,0.3791781552712597
8.676274944567627,0.29449828134824824
8.709645232815964,0.20027972617099718
8.743015521064303,0.1121112310840926
8.77638580931264,0.041354521051324616
8.809756097560976,-0.010925446835381186
8.843126385809313,-0.05425878026925429
8.87649667405765,-0.10238744050313338
8.909866962305987,-0.1636387050584924
8.943237250554324,-0.23388149089152113
8.97660753880266,-0.29669573858078724
9.009977827050998,-0.3312551527429504
9.043348115299334,-0.32383426230537055
9.076718403547671,-0.27653374663633
9.110088691796008,-0.2081206039744366
9.143458980044347,-0.14604012396302235
9.176829268292684,-0.11334895312622498
9.21019955654102,-0.11703972714754893
9.243569844789358,-0.14365003665847043
9.276940133037694,-0.1645913063983782
9.310310421286031,-0.1490656444056939
9.343680709534368,-0.07889355602757699
9.377050997782705,0.04142769710983242
9.410421286031042,0.1842144973655904
9.443791574279379,0.3084291247803204
9.477161862527716,0.37620068043247124
9.510532150776053,0.36929858361708373
9.543902439024391,0.2984342318078937
9.577272727272728,0.2008634873803565
9.610643015521065,0.12643202299530704
9.644013303769402,0.11714032324911554
9.677383592017739,0.1884617147138085
9.710753880266076,0.32052815244613236
9.744124168514412,0.4636333296382907
9.77749445676275,0.5565523632880329
9.810864745011086,0.5504155214304798
9.844235033259423,0.4280052607783869
9.87760532150776,0.21001013537942925
9.910975609756099,-0.05445142655399857
9.944345898004435,-0.30838568035440517
9.977716186252772,-0.5086386697855524
10.01108647450111,-0.6385248416148761
10.044456762749446,-0.706128609973353
10.077827050997783,-0.730830826206446
10.11119733924612,-0.7269166075735846
10.144567627494457,-0.6943240384368361
10.177937915742794,-0.6219159984579946
10.21130820399113,-0.5007582939076786
10.244678492239467,-0.33842563349771654
10.278048780487804,-0.1642756429581895
10.311419068736143,-0.020746321085154732
10.34478935698448,0.05586547702893657
10.378159645232817,0.05495770012954151
10.411529933481154,0.0003030182898953867
10.44490022172949,-0.05796018664034567
10.478270509977827,-0.06504438154102324
10.511640798226164,0.013364106316249968
10.545011086474501,0.17477304417757705
10.578381374722838,0.3801355755638017
10.611751662971175,0.5702780668750627
10.645121951219512,0.6904594617834444
10.67849223946785,0.7117208797493646
10.711862527716187,0.6400138430379446
10.745232815964524,0.5104094038424252
10.778603104212861,0.370563591872288
10.811973392461198,0.26174976993015336
10.845343680709535,0.20558455713957155
10.878713968957872,0.20074303728204002
10.912084257206208,0.22880502883945775
10.945454545454545,0.26456025544821743
10.978824833702882,0.2852756384632706
11.012195121951219,0.27549335480295234
11.045565410199556,0.22727566962811213
11.078935698447895,0.13836593872932795
11.112305986696231,0.011154540022244848
11.145676274944568,-0.14631057742532375
11.179046563192905,-0.3184544910144035
11.212416851441242,-0.4821493388480049
11.245787139689579,-0.6107509795606353
11.279157427937916,-0.6820702832433901
11.312527716186253,-0.6872627043299566
11.34589800443459,-0.6359969359605286
11.379268292682926,-0.5541733251204293
11.412638580931263,-0.4738231225634593
11.4460088691796,-0.41906267663466096
11.479379157427939,-0.3947516901704176
11.512749445676276,-0.3839598246846865
11.546119733924613,-0.3563232218203839
11.57949002217295,-0.2837485265716706
11.612860310421286,-0.1557381518588065
11.646230598669623,0.013623245282102982
11.67960088691796,0.19084447349175881
11.712971175166297,0.33778567583436414
11.746341463414634,0.4282991628308321
11.77971175166297,0.4581637715418216
11.813082039911308,0.4435934998362773
11.846452328159646,0.4099670776599603
11.879822616407983,0.37758354409164757
11.91319290465632,0.352320682238726
11.946563192904657,0.3257057022908844
11.979933481152994,0.28333935993751974
12.01330376940133,0.2161530948745058
12.046674057649668,0.12797238807560218
12.080044345898004,0.03546887575157428
12.113414634146341,-0.039010367827789
12.146784922394678,-0.07755955678041479
12.180155210643015,-0.07442666546770116
12.213525498891352,-0.0376330505190162
12.24689578713969,0.015780586245051454
12.280266075388028,0.06785973438275932
12.313636363636364,0.10668556108392384
12.347006651884701,0.1287251519304988
12.380376940133038,0.13608759254951272
12.413747228381375,0.13127221766413844
12.447117516629712,0.1133566554749224
12.480487804878049,0.0783821415212275
12.513858093126386,0.02370151050576969
12.547228381374723,-0.046818168943111235
12.58059866962306,-0.12070108621228563
12.613968957871396,-0.1800436627078429
12.647339246119735,-0.20879660900667632
12.680709534368072,-0.2002396024263269
12.714079822616409,-0.1604003451207585
12.747450110864746,-0.10545167947369918
12.780820399113082,-0.05455253808529398
12.81419068736142,-0.02201963046834464
12.847560975609756,-0.012720680554152522
12.880931263858093,-0.022382301443536232
12.91430155210643,-0.04166717897128887
12.947671840354767,-0.06116400386907744
12.981042128603104,-0.07468015060446774
13.014412416851442,-0.07992815120277742
13.04778270509978,-0.0775183010848056
13.081152993348116,-0.06990719262589196
13.114523281596453,-0.06129220733430157
13.14789356984479,-0.05806827218961644
13.181263858093127,-0.06850110102557067
13.214634146341464,-0.10048570657519487
13.2480044345898,-0.1575500445023643
13.281374722838137,-0.23477512004105056
13.314745011086474,-0.3170225001201631
13.348115299334811,-0.3812590672254064
13.381485587583148,-0.4030625233752444
13.414855875831487,-0.3653502707967897
13.448226164079824,-0.2659305141400389
13.48159645232816,-0.12036566920661067
13.514966740576497,0.041864800104397464
13.548337028824834,0.18721438972897178
13.581707317073171,0.290414483337922
13.615077605321508,0.34419712613252984
13.648447893569845,0.3618805439931099
13.681818181818182,0.3711019519054933
13.715188470066519,0.4008794843393347
13.748558758314855,0.4674121416999139
13.781929046563192,0.5649578292552421
13.815299334811531,0.666127397301305
13.848669623059868,0.7317895937075154
13.882039911308205,0.72643202517635
13.915410199556542,0.632385082911009
13.948780487804878,0.4569673580200145
13.982150776053215,0.22995334646742485
14.015521064301552,-0.006938800755522306
14.048891352549889,-0.21369174198917254
14.082261640798226,-0.36326547150258004
14.115631929046563,-0.4468266511270836
14.1490022172949,-0.4723182117878068
14.182372505543238,-0.4584318781122561
14.215742793791575,-0.4271877999667717
14.249113082039912,-0.39778527542968783
14.282483370288249,-0.3828964039411003
14.315853658536586,-0.3871802774789187
14.349223946784923,-0.40723886860113717
14.38259423503326,-0.4325783613114396
14.415964523281596,-0.44781707970073
14.449334811529933,-0.43661829792976814
14.48270509977827,-0.3871752992155032
14.516075388026607,-0.2977763246220978
14.549445676274944,-0.17989778470402462
14.582815964523283,-0.05640578151367243
14.61618625277162,0.045797066854877375
14.649556541019956,0.10655323236062864
14.682926829268293,0.12214278831025285
14.71629711751663,0.10890556638252165
14.749667405764967,0.09797829444856589
14.783037694013304,0.12241442977034576
14.81640798226164,0.20198224092452668
14.849778270509978,0.33265953943593296
14.883148558758315,0.48606285401521815
14.916518847006651,0.6194749185286489
14.949889135254988,0.6921030669436461
14.983259423503327,0.6803367747558092
15.016629711751664,0.5854671586627478
15.05,0.4310470132809544
15.083370288248338,0.2518228746556736
15.116740576496674,0.07970967381781842
15.150110864745011,-0.0668514744711364
15.183481152993348,-0.18580493007912516
15.216851441241685,-0.286190667225775
15.250221729490022,-0.3781867586545309
15.283592017738359,-0.4642422886908527
15.316962305986696,-0.5362752903306885
15.350332594235034,-0.5803554320407132
15.383702882483371,-0.5858172546844588
15.417073170731708,-0.5529565143092857
15.450443458980045,-0.49414335268596843
15.483813747228382,-0.42709396979117786
15.517184035476719,-0.36390340017110717
15.550554323725056,-0.3023146594588186
15.583924611973393,-0.22480882754318224
15.61729490022173,-0.10692845596689789
15.650665188470066,0.06881746246294286
15.684035476718403,0.30026788226233336
15.71740576496674,0.5605652060229944
15.750776053215079,0.803612809539398
15.784146341463416,0.978076155126431
15.817516629711752,1.044247128346921
15.85088691796009,0.9870615078275546
15.884257206208426,0.8204187828385658
15.917627494456763,0.5816379552130807
15.9509977827051,0.3187391967284718
15.984368070953437,0.07576238345777603
16.017738359201775,-0.11835880848589792
16.05110864745011,-0.2537836761187119
16.08447893569845,-0.336348691634715
16.117849223946784,-0.37968091165396206
16.151219512195123,-0.39731580843117137
16.184589800443458,-0.39847384279740966
16.217960088691797,-0.3885339948854724
16.251330376940132,-0.37236990513169654
16.28470066518847,-0.3571844700902477
16.31807095343681,-0.35206665074924726
16.351441241685144,-0.3637980863889142
16.384811529933483,-0.3911439324187756
16.418181818181818,-0.4214207869912513
16.451552106430157,-0.4325382414008984
16.48492239467849,-0.4010685535228123
16.51829268292683,-0.31348503588336296
16.551662971175165,-0.17537117763825671
16.585033259423504,-0.013568034681133694
16.61840354767184,0.130941479979016
16.651773835920178,0.2173960011770247
16.685144124168513,0.22131796230897152
16.71851441241685,0.14562205837741646
16.75188470066519,0.02195889459701513
16.785254988913525,-0.09863118824222068
16.818625277161864,-0.16249690655995366
16.8519955654102,-0.13155238640526237
16.885365853658538,0.003590897231215231
16.918736141906873,0.22000905176412897
16.95210643015521,0.469318971723767
16.985476718403547,0.6922302442469193
17.018847006651885,0.8355398748292713
17.05221729490022,0.8659954091182073
17.08558758314856,0.7772433319085972
17.118957871396898,0.5889384619986713
17.152328159645233,0.33961701316401355
17.18569844789357,0.07621276064856677
17.219068736141907,-0.1568945868586274
17.252439024390245,-0.3270503101794808
17.28580931263858,-0.41914646529516975
17.31917960088692,-0.4370864206728874
