Frequency (Hz),Amplitude
0.0,12.824488451081603
0.01993355481727575,12.818443219803163
0.0398671096345515,12.800314288679054
0.059800664451827246,12.770121947397003
0.079734219269103,12.727900017446498
0.09966777408637874,12.673695860709733
0.11960132890365449,12.607570392659802
0.13953488372093023,12.529598101381836
0.159468438538206,12.439867074046179
0.17940199335548174,12.338479032930822
0.19933554817275748,12.22554938362871
0.21926910299003324,12.101207278707331
0.23920265780730898,11.96559570083638
0.25913621262458475,11.81887157029761
0.27906976744186046,11.661205882881069
0.29900332225913623,11.492783885499897
0.318936877076412,11.313805298495236
0.3388704318936877,11.124484595630584
0.3588039867109635,10.925051355307529
0.37873754152823924,10.715750699711846
0.39867109634551495,10.496843842613142
0.4186046511627907,10.268608771639474
0.4385382059800665,10.031341097367122
0.4584717607973422,9.78535510994619
0.47840531561461797,9.530985094826777
0.49833887043189373,9.268586973264277
0.5182724252491695,8.998540351769368
0.5382059800664452,8.721251089025392
0.5581395348837209,8.437154521088358
0.5780730897009968,8.146719528739123
0.5980066445182725,7.850453688578452
0.6179401993355482,7.5489098272105
0.637873754152824,7.242694403008195
0.6578073089700996,6.932478282478961
0.6777408637873754,6.619010671443266
0.6976744186046512,6.30313722216146
0.717607973421927,5.985823686603037
0.7375415282392027,5.668186944020229
0.7574750830564785,5.351535809756475
0.7774086378737541,5.037424711071149
0.7973421926910299,4.7277239862532445
0.8172757475083057,4.424710909886261
0.8372093023255814,4.131184807245337
0.8571428571428572,3.850606152644768
0.877076411960133,3.5872502026541864
0.8970099667774087,3.3463454237048933
0.9169435215946844,3.134130213121771
0.9368770764119602,2.9577097965145906
0.9568106312292359,2.8245561299489648
0.9767441860465116,2.7415405969393922
0.9966777408637875,2.7136097558151193
1.0166112956810631,2.7425614011916464
1.036544850498339,2.826542521194276
1.0564784053156147,2.960567039627311
1.0764119601328903,3.1377464131409853
1.0963455149501662,3.350610639388204
1.1162790697674418,3.59206782737531
1.1362126245847177,3.855897212389994
1.1561461794019936,4.1368878052588025
1.176079734219269,4.43077960242262
1.196013289036545,4.73412457334239
1.2159468438538206,5.044133165701276
1.2358803986710964,5.358535612253917
1.255813953488372,5.675467264194116
1.275747508305648,5.993377965595894
1.2956810631229239,6.3109620804772115
1.3156146179401993,6.62710507161962
1.3355481727574752,6.940842886145735
1.3554817275747508,7.251331074789124
1.3754152823920267,7.557821249185708
1.3953488372093024,7.859643058084572
1.4152823920265782,8.156190319243004
1.435215946843854,8.446910291087065
1.4551495016611296,8.731295327789498
1.4750830564784054,9.008876353593633
1.495016611295681,9.279217733985234
1.514950166112957,9.541913225912108
1.5348837209302328,9.796582766603928
1.5548172757475083,10.042869917971624
1.5747508305647842,10.280439826406944
1.5946843853820598,10.50897758993478
1.6146179401993357,10.728186948914082
1.6345514950166113,10.937789234881656
1.6544850498338872,11.137522526184014
1.6744186046511629,11.327140969836659
1.6943521594684385,11.506414237395866
1.7142857142857144,11.6751270891175
1.73421926910299,11.833079025755573
1.754152823920266,11.98008401135086
1.7740863787375416,12.115970253524596
1.7940199335548175,12.240580030314986
1.8139534883720931,12.353769554615383
1.8338870431893688,12.455408868905167
1.8538205980066447,12.545381764289303
1.8737541528239203,12.623585718948238
1.893687707641196,12.689931851995683
1.9136212624584719,12.74434488948823
1.9335548172757475,12.786763139960982
1.9534883720930232,12.817138477400647
1.9734219269102993,12.835436330035167
1.993355481727575,12.841635673731721
2.0132890365448506,12.83572902916906
2.0332225913621262,12.817722462298033
2.0531561461794023,12.787635587934773
2.073089700996678,12.745501576659674
2.0930232558139537,12.691367165526463
2.1129568106312293,12.625292673435087
2.132890365448505,12.547352022397709
2.1528239202657806,12.457632766343714
2.1727574750830567,12.35623612957971
2.1926910299003324,12.24327705756374
2.212624584717608,12.118884283288482
2.2325581395348837,11.983200413323177
2.25249169435216,11.836382038468876
2.2724252491694354,11.678599875080174
2.292358803986711,11.510038944446553
2.312292358803987,11.330898799278314
2.332225913621263,11.14139380838756
2.352159468438538,10.941753513208166
2.3720930232558137,10.732223073003341
2.39202657807309,10.513063819656988
2.4119601328903655,10.28455394808778
2.431893687707641,10.046989374898738
2.4518272425249172,9.800684806327629
2.471760797342193,9.54597506750079
2.4916943521594686,9.28321675922654
2.511627906976744,9.012790327208997
2.5315614617940203,8.735102653125884
2.551495016611296,8.450590309575794
2.5714285714285716,8.1597236643104
2.5913621262458477,7.863012077354038
2.611295681063123,7.56101051298186
2.6312292358803986,7.254327994472834
2.6511627906976742,6.9436384731094
2.6710963455149503,6.629694877383418
2.691029900332226,6.313347370854828
2.7109634551495017,5.995567197901951
2.7308970099667778,5.677477956151952
2.7508305647840534,5.360396713740414
2.770764119601329,5.04588806610973
2.7906976744186047,4.735834888377833
2.810631229235881,4.432529861944364
2.8305647840531565,4.138791060942087
2.850498338870432,3.858101310436765
2.870431893687708,3.5947614988611014
2.8903654485049834,3.3540274665064396
2.910299003322259,3.14216308609831
2.9302325581395348,2.966290699807926
2.950166112956811,2.8338823377405635
2.9700996677740865,2.7517850137949544
2.990033222591362,2.724896591458277
3.0099667774086383,2.754953582356332
3.029900332225914,2.840047832301862
3.0498338870431896,2.975158438940543
3.0697674418604657,3.1533846411213062
3.089700996677741,3.367260007741285
3.1096345514950166,3.6097032440036783
3.129568106312292,3.8745050154082534
3.1495016611295683,4.156463661445405
3.169435215946844,4.451325651301923
3.1893687707641196,4.755646843641823
3.2093023255813957,5.066639579661299
3.2292358803986714,5.382034568629701
3.249169435215947,5.699966684171205
3.2691029900332227,6.018884675266452
3.289036544850499,6.337481425427812
3.3089700996677744,6.654640686459149
3.32890365448505,6.969396565151814
3.3488372093023258,7.280902707363179
3.3687707641196014,7.588408796128953
3.388704318936877,7.891242553081518
3.4086378737541527,8.188795885516493
3.428571428571429,8.480514166857612
3.4485049833887045,8.765887896564962
3.46843853820598,9.044446176865836
3.4883720930232562,9.31575158490881
3.508305647840532,9.579396123178222
3.5282392026578075,9.83499800812396
3.548172757475083,10.082199114236412
3.5681063122923593,10.320662933537593
3.588039867109635,10.550072942529317
3.60797342192691,10.770131292840611
3.6279069767441863,10.98055776019043
3.647840531561462,11.181088900315832
3.6677740863787376,11.371477371301365
3.6877076411960132,11.551491390085006
3.7076411960132893,11.720914297402837
3.727574750830565,11.879544210512359
3.7475083056478407,12.027193747030783
3.7674418604651168,12.163689806391249
3.787375415282392,12.288873397942282
3.807308970099668,12.402599506739495
3.8272425249169437,12.504736989710524
3.8471760797342194,12.595168496202007
3.867109634551495,12.67379040800323
3.887043189368771,12.740512794838951
3.9069767441860463,12.795259382071775
3.9269102990033224,12.837967527985668
3.9468438538205985,12.868588208561388
3.9667774086378738,12.887086008123495
3.98671096345515,12.893439114653114
4.0066445182724255,12.887639318936813
4.026578073089701,12.869692017070927
4.046511627906977,12.839616216174965
4.0664451827242525,12.797444543497315
4.086378737541528,12.743223259431812
4.106312292358805,12.677012275315773
4.1262458471760795,12.59888517726018
4.146179401993356,12.508929257683219
4.166112956810632,12.407245556695012
4.186046511627907,12.293948916030736
4.205980066445183,12.169168048873077
4.225913621262459,12.033045629669578
4.245847176079734,11.885738408967942
4.26578073089701,11.727417359404559
4.2857142857142865,11.558267860340674
4.305647840531561,11.378489930313558
4.325581395348838,11.188298518544519
4.345514950166113,10.987923869332754
4.365448504983389,10.777611976412583
4.385382059800665,10.557625148453871
4.40531561461794,10.328242712097378
4.425249169435216,10.089761885578573
4.445182724252492,9.842498864558985
4.465116279069767,9.586790172864415
4.485049833887043,9.322994345250283
4.50498338870432,9.051494028196682
4.524916943521594,8.772698609610886
4.544850498338871,8.487047521278258
4.5647840531561465,8.195014401835792
4.584717607973422,7.897112366906757
4.604651162790698,7.593900712274164
4.624584717607974,7.285993483029267
4.644518272425249,6.974070486574912
4.664451827242526,6.658891523531657
4.6843853820598005,6.3413148749822605
4.704318936877076,6.022321437156089
4.724252491694353,5.703046355397283
4.7441860465116275,5.384820587658183
4.764119601328904,5.069225498092655
4.78405315614618,4.758164224976296
4.803986710963455,4.453953849164172
4.823920265780731,4.159441512858472
4.8438538205980075,3.8781439099522252
4.863787375415282,3.6143997868669695
4.883720930232559,3.3735042038061014
4.9036544850498345,3.1617560937298967
4.92358803986711,2.9862996859688655
4.943521594684386,2.8546046978284534
4.963455149501661,2.773483885426703
4.983388704318937,2.747772274789779
5.003322259136213,2.7791326214470886
5.023255813953488,2.865595466358154
5.043189368770764,3.002105238571182
5.063122923588041,3.1817517286507315
5.083056478405315,3.3970735791650037
5.102990033222592,3.6409985181386046
5.122923588039868,3.9073241384174677
5.142857142857143,4.190851702226098
5.162790697674419,4.487326915151604
5.182724252491695,4.793302237569285
5.20265780730897,5.105985020780903
5.222591362126246,5.423100183684168
5.242524916943522,5.7427765331445615
5.262458471760797,6.0634567904525305
5.282392026578074,6.38382802314055
5.3023255813953485,6.702768461016147
5.322259136212625,7.019307011273757
5.342192691029901,7.332592440774224
5.362126245847176,7.6418698567419
5.382059800664452,7.9464626838280115
5.4019933554817285,8.245758784839783
5.421926910299003,8.539199715576354
5.44186046511628,8.8262723611598
5.4617940199335555,9.106502391803717
5.48172757475083,9.37944911674714
5.501661129568107,9.644701419085852
5.5215946843853825,9.901874531239683
5.541528239202658,10.15060746802486
5.561461794019934,10.39056097703672
5.5813953488372094,10.621415898130866
5.601328903654485,10.84287184801565
5.621262458471762,11.054646164368478
5.641196013289036,11.256473057948783
5.661129568106313,11.44810293199029
5.681063122923589,11.629301836516706
5.700996677740864,11.799851031731743
5.72093023255814,11.95954663972797
5.740863787375416,12.108199367770835
5.760797342192691,12.245634289592639
5.780730897009967,12.371690673664785
5.800664451827243,12.486221849448757
5.820598006644518,12.589095104267017
5.840531561461795,12.68019160476858
5.8604651162790695,12.75940633805683
5.880398671096346,12.826648068449275
5.900332225913622,12.88183930659213
5.920265780730897,12.924916288287658
5.940199335548173,12.955828960935676
5.960132890365449,12.97454097596278
5.980066445182724,12.981029686031436
6.0,12.97528614620063
6.0199335548172765,12.957315118562654
6.039867109634551,12.927135080218642
6.059800664451828,12.884778234789767
6.0797342192691035,12.830290528000516
6.099667774086379,12.763731668228557
6.119601328903655,12.685175153301241
6.139534883720931,12.594708305247167
6.159468438538206,12.49243231519568
6.179401993355482,12.378462301176997
6.1993355481727574,12.252927382231094
6.219269102990033,12.115970773012602
6.23920265780731,11.967749904014148
6.259136212624584,11.808436573663855
6.279069767441861,11.638217139938398
6.299003322259137,11.457292760838142
6.318936877076412,11.265879695185411
6.338870431893688,11.064209677844188
6.3588039867109645,10.852530386770528
6.378737541528239,10.631106023483529
6.398671096345516,10.400218033858001
6.418604651162791,10.160166002927514
6.438538205980066,9.911268766111526
6.458471760797343,9.653865790565892
6.4784053156146175,9.388318895038694
6.498338870431894,9.11501439583363
6.51827242524917,8.834365791793461
6.538205980066445,8.546817134741396
6.558139534883721,8.252847276475968
6.578073089700998,7.952975243211662
6.598006644518272,7.647767068786835
6.617940199335549,7.337844526518816
6.6378737541528245,7.023896346377083
6.6578073089701,6.706692702494997
6.677740863787376,6.387104022805747
6.6976744186046515,6.066125527404
6.717607973421927,5.744909363881361
6.737541528239203,5.42480678371797
6.7574750830564785,5.107423463574658
6.777408637873754,4.794691691610467
6.797342192691031,4.4889633607644575
6.8172757475083055,4.1931267150860885
6.837209302325582,3.9107458517604794
6.857142857142858,3.646211861009082
6.877076411960133,3.4048731864648873
6.897009966777409,3.1930753919207833
6.9169435215946855,3.017990375481612
6.93687707641196,2.8870823712164615
6.956810631229236,2.807116731696235
6.9767441860465125,2.7828457544027514
6.996677740863787,2.815838740467077
7.016611295681064,2.904051836031356
7.036544850498339,3.0423899611789227
7.056478405315615,3.2239338312269012
7.076411960132891,3.441228510280391
7.096345514950166,3.687210402602957
7.116279069767442,3.9556813165029805
7.136212624584719,4.2414408522501015
7.156146179401993,4.540228308442447
7.17607973421927,4.84858674519741
7.196013289036546,5.163712630063142
7.21594684385382,5.483319564358042
7.235880398671097,5.80552524118669
7.2558139534883725,6.128761813147776
7.275747508305648,6.451706475340002
7.295681063122924,6.773228320306958
7.3156146179402,7.092347830857156
7.335548172757475,7.408206010215922
7.355481727574752,7.720040799044549
7.3754152823920265,8.02716898737802
7.395348837209303,8.328972273973216
7.415282392026579,8.624886465853175
7.435215946843854,8.914393066190303
7.45514950166113,9.197012688380932
7.475083056478406,9.472299874535533
7.495016611295681,9.739839000444501
7.514950166112956,9.99924102604836
7.5348837209302335,10.250140907703223
7.554817275747508,10.49219553133041
7.574750830564784,10.725082057695442
7.5946843853820605,10.948496595359845
7.614617940199336,11.162153135316924
7.634551495016611,11.365782695444446
7.6544850498338874,11.55913263376998
7.674418604651163,11.74196609795172
7.694352159468439,11.91406158492308
7.714285714285715,12.075212589775877
7.73421926910299,12.225227326996043
7.754152823920266,12.363928510367375
7.774086378737542,12.491153180412057
7.794019933554818,12.606752570285014
7.813953488372093,12.710592002693682
7.83388704318937,12.802550811761012
7.853820598006645,12.882522284851056
7.8737541528239205,12.95041362028903
7.893687707641197,13.006145897667556
7.913621262458472,13.049654058073441
7.9335548172757475,13.080886892118679
7.953488372093024,13.099807034137845
7.9734219269103,13.106390961337988
7.9933554817275745,13.100628997072183
8.013289036544851,13.082525317766668
8.033222591362128,13.052097963375004
8.053156146179402,13.009378851573347
8.073089700996679,12.954413796257379
8.093023255813954,12.887262531266673
8.11295681063123,12.807998740657014
8.132890365448505,12.716710097278996
8.152823920265782,12.613498311917757
8.172757475083056,12.498479195821886
8.192691029900331,12.37178274012198
8.21262458471761,12.233553216437812
8.232558139534884,12.083949303932396
8.252491694352159,11.923144249233808
8.272425249169435,11.751326067067074
8.292358803986712,11.5686977911879
8.312292358803987,11.375477787378825
8.332225913621263,11.171900142974197
8.352159468438538,10.958215150776024
8.372093023255815,10.734689909510232
8.392026578073091,10.501609068419162
8.411960132890366,10.259275750543678
8.43189368770764,10.008012698191408
8.451827242524917,9.748163695649417
8.471760797342194,9.480095339237835
8.491694352159469,9.204199244477621
8.511627906976745,8.920894806042474
8.53156146179402,8.630632660446867
8.551495016611296,8.333899047052975
8.571428571428573,8.031221324022436
8.591362126245848,7.723174977854374
8.611295681063122,7.410392575696485
8.6312292358804,7.093575258834694
8.651162790697676,6.773507576948834
8.67109634551495,6.451076732503909
8.691029900332227,6.127297662044917
8.710963455149502,5.803345843500785
8.730897009966778,5.480600290123683
8.750830564784053,5.160699835853301
8.77076411960133,4.845616394282312
8.790697674418604,4.537749011489087
8.81063122923588,4.240041373669332
8.830564784053157,3.9561211976247463
8.850498338870432,3.6904493660616384
8.870431893687707,3.4484448506161534
8.890365448504983,3.236513895599793
8.91029900332226,3.0618630091552874
8.930232558139535,2.931946626713971
8.950166112956811,2.853465359864916
8.970099667774086,2.831061745964814
8.990033222591363,2.8661831283475396
9.00996677740864,2.9566897846647544
9.029900332225914,3.097436189472539
9.049833887043189,3.2814913131377943
9.069767441860467,3.501407595989412
9.089700996677742,3.7501310416620344
9.109634551495017,4.021466941121052
9.129568106312293,4.310210700468084
9.14950166112957,4.612091376942561
9.169435215946844,4.923638090166209
9.189368770764121,5.242031651078133
9.209302325581396,5.564969646972848
9.22923588039867,5.890554210593023
9.249169435215949,6.217202809402152
9.269102990033224,6.543579002896777
9.289036544850498,6.868539327618322
9.308970099667773,7.191092742933419
9.328903654485051,7.510369677951355
9.348837209302326,7.825598352725555
9.368770764119601,8.136086594644533
9.388704318936878,8.441207808943037
9.408637873754152,8.74039009886934
9.428571428571429,9.033107784366612
9.448504983388705,9.31887475677486
9.46843853820598,9.597239246932707
9.488372093023255,9.86777968770621
9.508305647840533,10.130101428922078
9.528239202657808,10.383834120008421
9.548172757475083,10.628629618545336
9.56810631229236,10.864160315195257
9.588039867109636,11.09011778988949
9.60797342192691,11.306211732715248
9.627906976744187,11.5121690771565
9.647840531561462,11.70773330428127
9.667774086378738,11.892663884939957
9.687707641196015,12.066735833639246
9.70764119601329,12.229739352929252
9.727574750830565,12.381479551219144
9.747508305647841,12.52177622017083
9.767441860465118,12.650463660400284
9.787375415282392,12.767390546288025
9.807308970099669,12.872419822374058
9.827242524916944,12.965428625174473
9.84717607973422,13.04630822537432
9.867109634551497,13.114963986274317
9.887043189368772,13.171315335140921
9.906976744186046,13.215295744760592
9.926910299003321,13.246852723057893
9.9468438538206,13.265947809122697
9.966777408637874,13.272556574424346
9.986710963455149,13.266668628382483
10.006644518272426,13.24828762783073
10.026578073089702,13.217431290261274
10.046511627906977,13.174131411086245
10.066445182724253,13.11843388550858
10.086378737541528,13.050398735969482
10.106312292358805,12.970100146546212
10.126245847176081,12.877626506124916
10.146179401993356,12.773080462685057
10.16611295681063,12.656578991623855
10.186046511627907,12.528253481742707
10.205980066445184,12.38824984334326
10.225913621262459,12.236728643870753
10.245847176079735,12.073865277744645
10.26578073089701,11.89985017848456
10.285714285714286,11.714889083047947
10.305647840531563,11.519203360537158
10.325581395348838,11.313030420229072
10.345514950166113,11.096624217389081
10.36544850498339,10.87025587976008
10.385382059800666,10.634214483241484
10.40531561461794,10.388808012457412
10.425249169435217,10.134364551143
10.445182724252492,9.871233759207074
10.465116279069768,9.599788708837428
10.485049833887045,9.320428172294806
10.50498338870432,9.033579480715447
10.524916943521594,8.739702108523428
10.544850498338871,8.439292184969204
10.564784053156147,8.132888196999668
10.584717607973422,7.821078231767766
10.604651162790697,7.504509220246123
10.624584717607974,7.1838987958051534
10.64451827242525,6.860050586481029
10.664451827242525,6.533874033319103
10.684385382059801,6.206410187787862
10.704318936877076,5.878865404152409
10.724252491694353,5.552655407891991
10.74418604651163,5.229462843743613
10.764119601328904,4.911311931263855
10.784053156146179,4.600663880826811
10.803986710963457,4.300535344817077
10.823920265780732,4.014637562216801
