Frequency (Hz),Amplitude
0.0,0.23661400568002677
0.019867549668874173,0.2368603254414449
0.039735099337748346,0.237596787676905
0.059602649006622516,0.23881598188500655
0.07947019867549669,0.2405058196844555
0.09933774834437085,0.24264990713205056
0.11920529801324503,0.24522802629067295
0.13907284768211922,0.2482166928253338
0.15894039735099338,0.25158975462855215
0.17880794701986755,0.2553189983286867
0.1986754966887417,0.2593747351765451
0.2185430463576159,0.2637263441460175
0.23841059602649006,0.26834275703124416
0.2582781456953642,0.2731928769707763
0.27814569536423844,0.278245927560844
0.2980132450331126,0.28347173421045474
0.31788079470198677,0.28884094256785703
0.33774834437086093,0.29432518081295583
0.3576158940397351,0.2998971735673838
0.3774834437086093,0.3055308153622447
0.3973509933774834,0.31120121125713623
0.4172185430463576,0.31688469152566606
0.4370860927152318,0.32255880647051466
0.45695364238410596,0.3282023065229597
0.4768211920529801,0.3337951118954389
0.49668874172185434,0.33931827523896163
0.5165562913907285,0.34475394003605864
0.5364238410596026,0.35008529684083844
0.5562913907284769,0.3552965389625866
0.5761589403973509,0.36037281876705757
0.5960264900662252,0.36530020543172875
0.6158940397350993,0.37006564472561115
0.6357615894039735,0.37465692117764887
0.6556291390728477,0.3790626228414908
0.6754966887417219,0.3832721087478072
0.695364238410596,0.38727547905016896
0.7152317880794702,0.39106354781056774
0.7350993377483444,0.39462781833019744
0.7549668874172186,0.397960460904697
0.7748344370860927,0.4010542928690265
0.7947019867549668,0.40390276079037607
0.8145695364238411,0.4064999246674123
0.8344370860927152,0.4088404439987774
0.8543046357615894,0.41091956559063264
0.8741721854304636,0.41273311298334275
0.8940397350993378,0.41427747738782217
0.9139072847682119,0.4155496100344657
0.9337748344370861,0.4165470158501851
0.9536423841059603,0.4172677483916104
0.9735099337748344,0.41771040597592834
0.9933774834437087,0.4178741289635179
1.0132450331125828,0.41775859815978145
1.033112582781457,0.41736403431664254
1.0529801324503312,0.41669119872685567
1.0728476821192052,0.4157413949173902
1.0927152317880795,0.4145164714613251
1.1125827814569538,0.4130188259402814
1.1324503311258278,0.4112514101029072
1.1523178807947019,0.4092177362775822
1.1721854304635762,0.40692188511102356
1.1920529801324504,0.4043685147170902
1.2119205298013245,0.40156287133286717
1.2317880794701985,0.3985108015912957
1.2516556291390728,0.3952187665307219
1.271523178807947,0.39169385747203833
1.2913907284768211,0.38794381390101124
1.3112582781456954,0.38397704349907075
1.3311258278145695,0.37980264446542894
1.3509933774834437,0.37543043026815626
1.370860927152318,0.3708709569479383
1.390728476821192,0.3661355530731735
1.410596026490066,0.36123635240624785
1.4304635761589404,0.3561863292820268
1.4503311258278146,0.35099933661684957
1.4701986754966887,0.3456901463524396
1.4900662251655628,0.3402744919851999
1.5099337748344372,0.3347691126295829
1.5298013245033113,0.3291917978015841
1.5496688741721854,0.32356143177608876
1.5695364238410596,0.3178980359545193
1.5894039735099337,0.3122228071690564
1.609271523178808,0.3065581492363416
1.6291390728476822,0.30092769435588235
1.6490066225165563,0.2953563101336453
1.6688741721854303,0.28987008712364887
1.6887417218543048,0.28449630086423383
1.7086092715231789,0.2792633415188605
1.728476821192053,0.27420060352594333
1.7483443708609272,0.26933832727675405
1.7682119205298013,0.2647073849734003
1.7880794701986755,0.26033900370499574
1.8079470198675496,0.25626442066142724
1.8278145695364238,0.2525144684907
1.847682119205298,0.24911909321192346
1.8675496688741722,0.2461068127660069
1.8874172185430464,0.24350413091819173
1.9072847682119205,0.2413349282209892
1.9271523178807946,0.2396198582168229
1.9470198675496688,0.23837578191457853
1.9668874172185429,0.23761527570685081
1.9867549668874174,0.23734624643039443
2.0066225165562916,0.23757168183522395
2.0264900662251657,0.23828955562792012
2.0463576158940397,0.2394928945203658
2.066225165562914,0.24117000193048063
2.086092715231788,0.2433048209602486
2.1059602649006623,0.2458774096649147
2.1258278145695364,0.24886449555781734
2.1456953642384105,0.25224007419553296
2.165562913907285,0.2559760182824352
2.185430463576159,0.2600426682125113
2.205298013245033,0.26440938124103797
2.2251655629139075,0.26904502344457104
2.2450331125827816,0.2739183953557899
2.2649006622516556,0.2789985880042866
2.2847682119205297,0.28425527070823925
2.3046357615894038,0.2896589152544383
2.324503311258278,0.2951809631670813
2.3443708609271523,0.30079394379768815
2.364238410596027,0.30647155121032954
2.384105960264901,0.31218868752319695
2.403973509933775,0.3179214797066387
2.423841059602649,0.323647275991724
2.443708609271523,0.32934462713339685
2.463576158940397,0.3349932568790085
2.4834437086092715,0.3405740251671174
2.5033112582781456,0.34606888684946385
2.52317880794702,0.3514608481004371
2.543046357615894,0.356733922152842
2.562913907284768,0.36187308556871794
2.5827814569536423,0.36686423590856854
2.6026490066225163,0.3716941513903452
2.622516556291391,0.3763504529183949
2.642384105960265,0.3808215687020091
2.662251655629139,0.38509670156340037
2.6821192052980134,0.38916579894728903
2.7019867549668874,0.3930195255824922
2.7218543046357615,0.39664923870358687
2.741721854304636,0.4000469657137919
2.76158940397351,0.40320538415462637
2.781456953642384,0.40611780384101465
2.801324503311258,0.4087781510200093
2.821192052980132,0.41118095441504837
2.8410596026490067,0.41332133302525226
2.8609271523178808,0.4151949855584266
2.8807947019867552,0.4167981813877672
2.9006622516556293,0.4181277529340421
2.9205298013245033,0.41918108938769094
2.9403973509933774,0.41995613169824153
2.9602649006622515,0.42045136877145833
2.9801324503311255,0.4206658348277132
3.0,0.4205991078883213
3.0198675496688745,0.4202513093694697
3.0397350993377485,0.41962310477668535
3.0596026490066226,0.4187157055054908
3.0794701986754967,0.41753087176748377
3.0993377483443707,0.41607091667364704
3.119205298013245,0.41433871152038804
3.1390728476821192,0.4123376923366532
3.1589403973509933,0.41007186776403276
3.1788079470198674,0.40754582835455455
3.198675496688742,0.40476475738415124
3.218543046357616,0.401734443291842
3.23841059602649,0.39846129386646356
3.2582781456953644,0.394952352312995
3.2781456953642385,0.391215315338476
3.2980132450331126,0.38725855340318227
3.3178807947019866,0.3830911332831825
3.3377483443708607,0.37872284308595994
3.3576158940397347,0.3741642198475568
3.3774834437086096,0.3694265798161197
3.3973509933774837,0.36452205148858596
3.4172185430463577,0.35946361141059885
3.437086092715232,0.3542651226682964
3.456953642384106,0.34894137588900437
3.47682119205298,0.34350813241628775
3.4966887417218544,0.33798216912517337
3.5165562913907285,0.3323813240842929
3.5364238410596025,0.32672454194098993
3.556291390728477,0.32103191749169363
3.576158940397351,0.31532473539085454
3.596026490066225,0.3096255033392734
3.615894039735099,0.30395797537342406
3.6357615894039736,0.2983471610579428
3.6556291390728477,0.2928193154859923
3.6754966887417218,0.28740190406024524
3.695364238410596,0.2821235351351732
3.7152317880794703,0.27701385286073255
3.7350993377483444,0.2721033821335189
3.754966887417219,0.26742331763445465
3.774834437086093,0.2630052497460858
3.794701986754967,0.2588808219465572
3.814569536423841,0.25508131729025263
3.834437086092715,0.2516371759354441
3.854304635761589,0.248577451330456
3.8741721854304636,0.24592921934017448
3.8940397350993377,0.24371696170335636
3.9139072847682117,0.24196195187935582
3.9337748344370858,0.24068167647293304
3.9536423841059607,0.23988932788289424
3.9735099337748347,0.23959340268243848
3.993377483443709,0.23979743507049994
4.013245033112583,0.24049988578428244
4.033112582781457,0.2416941951202595
4.052980132450331,0.2433689957489457
4.072847682119205,0.24550846866693593
4.0927152317880795,0.2480928156121864
4.112582781456953,0.25109881477966506
4.132450331125828,0.2545004242106712
4.152317880794702,0.2582693985643381
4.172185430463576,0.26237588932536576
4.19205298013245,0.26678900476472756
4.211920529801325,0.27147731301954675
4.231788079470199,0.276409278531482
4.251655629139073,0.2815536280994918
4.271523178807947,0.28687964758728135
4.291390728476821,0.2923574137682456
4.311258278145695,0.29795796797333013
4.33112582781457,0.30365343932605166
4.3509933774834435,0.30941712564627916
4.370860927152318,0.3152235398224848
4.390728476821192,0.32104842880203105
4.410596026490066,0.3268687715011099
4.43046357615894,0.33266276101503384
4.450331125827815,0.3384097756008179
4.470198675496689,0.34409034206105754
4.490066225165563,0.34968609440847215
4.509933774834438,0.35517973004624875
4.529801324503311,0.3605549651590937
4.549668874172186,0.3657964905677025
4.569536423841059,0.3708899289437123
4.589403973509934,0.3758217940015797
4.6092715231788075,0.38057945206586163
4.629139072847682,0.3851510862469057
4.649006622516556,0.38952566333316285
4.66887417218543,0.3936929034183373
4.688741721854305,0.3976432522167425
4.708609271523179,0.40136785597661223
4.728476821192054,0.4048585388724816
4.748344370860927,0.40810778274162834
4.768211920529802,0.4111087090218415
4.788079470198675,0.4138550627468906
4.80794701986755,0.41634119845982576
4.827814569536423,0.41856206791136147
4.847682119205298,0.42051320942007764
4.867549668874172,0.42219073878238106
4.887417218543046,0.42359134163212736
4.9072847682119205,0.4247122671625027
4.927152317880794,0.4255513231360941
4.947019867549669,0.42610687212196163
4.966887417218543,0.42637782891201015
4.986754966887418,0.426363659082431
5.006622516556291,0.4260643786788809
5.026490066225166,0.42548055501755777
5.04635761589404,0.42461330860771596
5.066225165562914,0.42346431621426295
5.086092715231788,0.42203581509236865
5.105960264900662,0.4203306084398829
5.125827814569536,0.4183520721262945
5.14569536423841,0.41610416277088025
5.1655629139072845,0.4135914272559304
5.185430463576159,0.41081901377437435
5.205298013245033,0.40779268452353107
5.225165562913908,0.40451883016922097
5.245033112582782,0.4010044862146899
5.264900662251656,0.3972573514179613
5.28476821192053,0.39328580840666183
5.304635761589404,0.3890989466414168
5.324503311258278,0.3847065878747486
5.344370860927152,0.38011931424010975
5.364238410596027,0.37534849908377993
5.3841059602649,0.3704063406145485
5.403973509933775,0.36530589839149963
5.4238410596026485,0.36006113259019107
5.443708609271523,0.35468694587700944
5.463576158940397,0.3491992275724639
5.483443708609272,0.3436148995852611
5.503311258278146,0.33795196334218136
5.52317880794702,0.33222954660865534
5.543046357615895,0.326467948681702
5.562913907284768,0.3206886819265865
5.582781456953643,0.3149145070134671
5.602649006622516,0.3091694584843963
5.622516556291391,0.3034788564517663
5.642384105960264,0.2978692993152406
5.662251655629139,0.2923686314286971
5.682119205298013,0.2870058787230478
5.701986754966887,0.2818111445059593
5.7218543046357615,0.27681545716906586
5.741721854304636,0.2720505615385875
5.7615894039735105,0.2675486463440821
5.781456953642384,0.26334200200795516
5.801324503311259,0.2594626059067196
5.821192052980132,0.25594163656823204
5.841059602649007,0.2528089239329967
5.860927152317881,0.2500923495595283
5.880794701986755,0.24781721793246514
5.900662251655629,0.24600562696114234
5.920529801324503,0.24467587122620726
5.940397350993377,0.24384191436952077
5.960264900662251,0.2435129662473717
5.980132450331126,0.24369319557309732
6.0,0.2443815999462608
6.0198675496688745,0.2455720433468168
6.039735099337749,0.24725345793481487
6.059602649006623,0.24941019421917096
6.079470198675497,0.2520224931211761
6.099337748344371,0.2550670464528103
6.119205298013245,0.25851760943578117
6.139072847682119,0.262345629933121
6.158940397350993,0.26652086328366204
6.178807947019867,0.27101194791492883
6.198675496688741,0.2757869240970219
6.218543046357616,0.2808136852803369
6.23841059602649,0.2860603577092169
6.258278145695365,0.29149560901264976
6.2781456953642385,0.2970888901075353
6.298013245033113,0.30281061708316837
6.317880794701987,0.3086323009595905
6.337748344370861,0.3145266335757152
6.357615894039735,0.3204675376136209
6.377483443708609,0.3264301881242937
6.397350993377484,0.3323910120635614
6.417218543046357,0.33832767140793923
6.437086092715232,0.3442190344877981
6.456953642384105,0.3500451393074002
6.47682119205298,0.3557871518468967
6.496688741721854,0.36142732167522684
6.516556291390729,0.366948936642465
6.5364238410596025,0.372336277961578
6.556291390728477,0.3775745766196954
6.5761589403973515,0.38264997176730126
6.596026490066225,0.3875494715066994
6.6158940397351,0.3922609163282858
6.635761589403973,0.3967729453135403
6.655629139072848,0.4010749651287879
6.675496688741721,0.4051571217663932
6.695364238410596,0.40901027494387454
6.715231788079469,0.4126259750413894
6.735099337748344,0.41599644244065875
6.754966887417219,0.4191145491200647
6.774834437086093,0.42197380235938964
6.794701986754967,0.4245683304109373
6.814569536423841,0.42689287000130494
6.8344370860927155,0.4289427555371859
6.854304635761589,0.4307139099001675
6.874172185430464,0.4322028367275442
6.894039735099337,0.43340661408931064
6.913907284768212,0.4343228894846353
6.933774834437086,0.43494987609484714
6.95364238410596,0.43528635024342693
6.973509933774834,0.4353316500270632
6.993377483443709,0.4350856750955711
7.013245033112583,0.43454888757182925
7.033112582781457,0.43372231411668805
7.052980132450331,0.43260754915723937
7.072847682119205,0.43120675931067537
7.0927152317880795,0.42952268904959706
7.112582781456954,0.4275586676685775
7.132450331125828,0.4253186176256966
7.152317880794702,0.4228070643463661
7.172185430463576,0.4200291475909315
7.19205298013245,0.41699063450011414
7.211920529801324,0.41369793444553427
7.231788079470198,0.41015811582328565
7.251655629139073,0.4063789249383439
7.271523178807947,0.40236880713364365
7.291390728476822,0.39813693032061837
7.311258278145695,0.3936932110643879
7.33112582781457,0.38904834336591476
7.3509933774834435,0.3842138302616597
7.370860927152318,0.37920201832574674
7.390728476821192,0.37402613510496596
7.410596026490066,0.3687003294388588
7.430463576158941,0.36323971450753456
7.450331125827814,0.357660413301551
7.470198675496689,0.35197960601056405
7.490066225165562,0.346215578570308
7.509933774834438,0.3403877712771446
7.52980132450331,0.3345168259643081
7.549668874172186,0.3286246297204322
7.569536423841059,0.3227343525089668
7.589403973509934,0.3168704753123718
7.6092715231788075,0.311058804580135
7.629139072847682,0.30532646782480577
7.649006622516557,0.29970188422499744
7.66887417218543,0.2942147031293125
7.6887417218543055,0.2888957025193649
7.708609271523178,0.28377663893744876
7.728476821192054,0.27889004031671477
7.748344370860927,0.27426893381237333
7.768211920529802,0.2699465023840116
7.788079470198675,0.26595566676719
7.80794701986755,0.26232859376052897
7.827814569536423,0.25909613744898197
7.847682119205298,0.25628722684775107
7.8675496688741715,0.2539282209380316
7.887417218543046,0.2520422593049751
7.907284768211921,0.2506486424523642
7.927152317880795,0.24976227914136873
7.9470198675496695,0.2493932377351081
7.966887417218543,0.24954643393974357
7.986754966887418,0.2502214786253979
8.006622516556291,0.25141269748322154
8.026490066225167,0.2531093206959603
8.046357615894038,0.25529582749572377
8.066225165562914,0.2579524193180948
8.086092715231787,0.26105558763714104
8.105960264900663,0.2645787391556354
8.125827814569536,0.2684928417253148
8.14569536423841,0.27276705844021454
8.165562913907285,0.27736934366386856
8.185430463576159,0.2822669821093718
8.205298013245034,0.2874270594294496
8.225165562913906,0.2928168593122507
8.245033112582782,0.2984041873663386
8.264900662251655,0.30415762595334
8.28476821192053,0.3100467266470813
8.304635761589404,0.3160421483547071
8.324503311258278,0.322115749580605
8.344370860927151,0.3282406431064905
8.364238410596027,0.3343912207297584
8.3841059602649,0.3405431548360448
8.403973509933774,0.3466733826191104
8.42384105960265,0.35276007779916246
8.443708609271523,0.358782613790563
8.463576158940398,0.36472152146441633
8.483443708609272,0.37055844395599935
8.503311258278146,0.3762760903819702
8.52317880794702,0.381858189851348
8.543046357615895,0.3872894467669454
8.562913907284768,0.392555498107214
8.582781456953642,0.3976428731398661
8.602649006622515,0.40253895583652355
8.62251655629139,0.4072319501209287
8.642384105960264,0.4117108479829677
8.66225165562914,0.4159654004193082
8.682119205298013,0.41998609111231644
8.701986754966887,0.42376411272684117
8.721854304635762,0.42729134568549515
8.741721854304636,0.4305603392739339
8.76158940397351,0.4335642949256216
8.781456953642383,0.43629705153888143
8.801324503311259,0.43875307268599073
8.821192052980132,0.44092743558375036
8.841059602649008,0.44281582170659095
8.86092715231788,0.44441450893528345
8.880794701986755,0.44572036514833874
8.90066225165563,0.4467308431762038
8.920529801324504,0.4474439770526301
8.940397350993377,0.4478583795115424
8.960264900662251,0.44797324069150757
8.980132450331126,0.447788328024089
9.0,0.447303987296281
9.019867549668875,0.4465211448912353
9.039735099337747,0.44544131122532743
9.059602649006623,0.444066585414146
9.079470198675496,0.44239966121363067
9.099337748344372,0.4404438342974023
9.119205298013245,0.43820301094522246
9.139072847682119,0.43568171823226387
9.158940397350994,0.43288511582260647
9.178807947019868,0.42981900948460205
9.198675496688743,0.42648986645838854
9.218543046357615,0.4229048328181256
9.23841059602649,0.4190717529810818
9.258278145695364,0.4149991915232184
9.27814569536424,0.41069645746403904
9.298013245033111,0.406173631180686
9.317880794701987,0.4014415941014501
9.33774834437086,0.39651206130732314
9.357615894039736,0.3913976171358467
9.37748344370861,0.386111753827319
9.397350993377483,0.3806689131757014
9.417218543046358,0.375084531037627
9.437086092715232,0.3693750844042417
9.456953642384107,0.3635581405426875
9.47682119205298,0.35765240745532345
9.496688741721854,0.3516777845724548
9.516556291390728,0.34565541217498585
9.536423841059603,0.3396077175238239
9.556291390728477,0.33355845504235293
9.57615894039735,0.32753273715006864
9.596026490066224,0.32155705148331176
9.6158940397351,0.31565925927932875
9.635761589403973,0.3098685686822589
9.655629139072847,0.3042154757228994
9.675496688741722,0.2987316648354989
9.695364238410596,0.29344986015944585
9.715231788079471,0.28840361873402093
9.735099337748345,0.28362705727874754
9.754966887417218,0.2791545058316622
9.774834437086092,0.27502008435122316
9.794701986754967,0.2712572026579328
9.814569536423841,0.26789798982704854
9.834437086092716,0.2649726661314293
9.854304635761588,0.26250887834510933
9.874172185430464,0.2605310267883158
9.894039735099337,0.2590596187813092
9.913907284768213,0.25811068691554573
9.933774834437086,0.2576953106328264
9.95364238410596,0.2578192753504843
9.973509933774835,0.2584828948112175
9.993377483443709,0.25968101030922464
10.013245033112582,0.2614031665058229
10.033112582781456,0.26363394967032244
10.052980132450331,0.2663534623197865
10.072847682119205,0.26953789990022886
10.09271523178808,0.2731601911381353
10.112582781456952,0.27719066397108283
10.132450331125828,0.28159770283322183
10.152317880794701,0.286348369397735
10.172185430463577,0.29140896641402214
10.192052980132452,0.29674553189887853
10.211920529801324,0.3023242578118345
10.2317880794702,0.30811183295825245
10.251655629139073,0.31407571402713336
10.271523178807948,0.3201843314197092
10.29139072847682,0.3264072380475542
10.311258278145695,0.3327152098318007
10.331125827814569,0.3390803064843107
10.350993377483444,0.3454759005403722
10.370860927152318,0.3518766817391025
10.390728476821192,0.3582586428604129
10.410596026490065,0.36459905213253585
10.43046357615894,0.3708764163859399
10.450331125827816,0.3770704382877374
10.470198675496688,0.38316197025996446
10.490066225165563,0.389132967069478
10.509933774834437,0.39496643856947017
10.529801324503312,0.4006464036629847
