Frequency (Hz),Amplitude
0.0,0.6297936681993361
0.01993355481727575,0.6393781218904163
0.0398671096345515,0.6672701567681463
0.059800664451827246,0.7112185773905827
0.079734219269103,0.7683183943960432
0.09966777408637874,0.8356798655538292
0.11960132890365449,0.9107961712601129
0.13953488372093023,0.9916467687530415
0.159468438538206,1.0766598402939545
0.17940199335548174,1.1646273753323682
0.19933554817275748,1.2546190149056344
0.21926910299003324,1.345910619338883
0.23920265780730898,1.4379298006466343
0.25913621262458475,1.5302159333606222
0.27906976744186046,1.6223912530900741
0.29900332225913623,1.7141400520208208
0.318936877076412,1.8051936665384254
0.3388704318936877,1.8953195797496603
0.3588039867109635,1.9843134491611703
0.37873754152823924,2.0719932238726306
0.39867109634551495,2.158194765174311
0.4186046511627907,2.2427685580539896
0.4385382059800665,2.3255772215050334
0.4584717607973422,2.4064936091658446
0.47840531561461797,2.4853993502240526
0.49833887043189373,2.562183721581188
0.5182724252491695,2.636742771373959
0.5382059800664452,2.7089786347464155
0.5581395348837209,2.7787989977616028
0.5780730897009968,2.8461166762462953
0.5980066445182725,2.910849284362351
0.6179401993355482,2.972918973616541
0.637873754152824,3.032252227435367
0.6578073089700996,3.0887796997513126
0.6777408637873754,3.1424360885625156
0.6976744186046512,3.1931600373482376
0.717607973421927,3.240894058700293
0.7375415282392027,3.2855844756740944
0.7574750830564785,3.3271813772558843
0.7774086378737541,3.3656385850431323
0.7973421926910299,3.4009136287894592
0.8172757475083057,3.432967728906271
0.8372093023255814,3.4617657843672385
0.8571428571428572,3.4872763647471254
0.877076411960133,3.509471705359223
0.8970099667774087,3.528327704646488
0.9169435215946844,3.543823923140157
0.9368770764119602,3.555943583432311
0.9568106312292359,3.564673570722028
0.9767441860465116,3.5700044335927097
0.9966777408637875,3.571930384763985
1.0166112956810631,3.5704493016395085
1.036544850498339,3.5655627265435745
1.0564784053156147,3.5572758666079425
1.0764119601328903,3.545597593337262
1.0963455149501662,3.5305404419497513
1.1162790697674418,3.512120610660634
1.1362126245847177,3.4903579601528296
1.1561461794019936,3.465276013563816
1.176079734219269,3.436901957413884
1.196013289036545,3.4052666440112915
1.2159468438538206,3.3704045960000175
1.2358803986710964,3.3323540138701246
1.255813953488372,3.2911567874368455
1.275747508305648,3.2468585125206437
1.2956810631229239,3.1995085143381474
1.3156146179401993,3.149159879456935
1.3355481727574752,3.0958694985954076
1.3554817275747508,3.0396981230855338
1.3754152823920267,2.980710438495232
1.3953488372093024,2.9189751597707176
1.4152823920265782,2.8545651533654106
1.435215946843854,2.7875575932496437
1.4551495016611296,2.718034159549749
1.4750830564784054,2.6460812909927105
1.495016611295681,2.5717905055327477
1.514950166112957,2.4952588077899014
1.5348837209302328,2.4165892076274837
1.5548172757475083,2.3358913818905047
1.5747508305647842,2.2532825218084827
1.5946843853820598,2.1688884229665963
1.6146179401993357,2.082844894710044
1.6345514950166113,1.9952995937563707
1.6544850498338872,1.9064144261522733
1.6744186046511629,1.8163687176744852
1.6943521594684385,1.7253634329106475
1.7142857142857144,1.6336268386374335
1.73421926910299,1.5414221736729978
1.754152823920266,1.4490581272682808
1.7740863787375416,1.356903269857395
1.7940199335548175,1.2654060540098628
1.8139534883720931,1.1751226230158063
1.8338870431893688,1.0867553677445916
1.8538205980066447,1.001205666276245
1.8737541528239203,0.9196436265100018
1.893687707641196,0.8435936461045562
1.9136212624584719,0.7750223600800792
1.9335548172757475,0.7163875379753085
1.9534883720930232,0.6705597599603238
1.9734219269102993,0.640491479072619
1.993355481727575,0.6285735867086498
2.0132890365448506,0.6358756582786657
2.0332225913621262,0.66173557652739
2.0531561461794023,0.7040189819661682
2.073089700996678,0.7598411044415746
2.0930232558139537,0.8262695418761797
2.1129568106312293,0.900732063296752
2.132890365448505,0.981144581635722
2.1528239202657806,1.0658830601384048
2.1727574750830567,1.1536997638070812
2.1926910299003324,1.243635167339154
2.212624584717608,1.334944000338472
2.2325581395348837,1.4270385789184903
2.25249169435216,1.5194471337830415
2.2724252491694354,1.6117836929931555
2.292358803986711,1.7037264205112868
2.312292358803987,1.795002005085514
2.332225913621263,1.8853743445172126
2.352159468438538,1.97463627981175
2.3720930232558137,2.0626035048684823
2.39202657807309,2.1491100391082347
2.4119601328903655,2.2340048324744646
2.431893687707641,2.3171491983507306
2.4518272425249172,2.398414857439445
2.471760797342193,2.4776824366617407
2.4916943521594686,2.554840309974945
2.511627906976744,2.6297836983164653
2.5315614617940203,2.7024139675163252
2.551495016611296,2.7726380785951648
2.5714285714285716,2.8403681561756087
2.5913621262458477,2.9055211490225368
2.611295681063123,2.9680185628505784
2.6312292358803986,3.0277862500997563
2.6511627906976742,3.084754244806425
2.6710963455149503,3.1388566332906804
2.691029900332226,3.190031453359554
2.7109634551495017,3.2382206162452243
2.7308970099667778,3.2833698466737533
2.7508305647840534,3.3254286373761004
2.770764119601329,3.364350215072199
2.7906976744186047,3.4000915155271585
2.810631229235881,3.4326131657296615
2.8305647840531565,3.4618794716053567
2.850498338870432,3.487858409969052
2.870431893687708,3.510521623657757
2.8903654485049834,3.52984441898056
2.910299003322259,3.5458057647833012
2.9302325581395348,3.5583882925607444
2.950166112956811,3.567578297163712
2.9700996677740865,3.573365737747543
2.990033222591362,3.5757442386953504
3.0099667774086383,3.5747110903270616
3.029900332225914,3.5702672492778027
3.0498338870431896,3.5624173384967954
3.0697674418604657,3.5511696468847562
3.089700996677741,3.5365361286550345
3.1096345514950166,3.518532402573743
3.129568106312292,3.4971777513091507
3.1495016611295683,3.4724951212032673
3.169435215946844,3.4445111228723966
3.1893687707641196,3.4132560331501485
3.2093023255813957,3.37876379901288
3.2292358803986714,3.3410720442767308
3.249169435215947,3.3002220800350033
3.2691029900332227,3.256258920023174
3.289036544850499,3.2092313023660703
3.3089700996677744,3.159191719492663
3.32890365448505,3.1061964584155497
3.3488372093023258,3.050305654088904
3.3687707641196014,2.9915833592108787
3.388704318936877,2.930097634666281
3.4086378737541527,2.8659206658677676
3.428571428571429,2.7991289116235407
3.4485049833887045,2.729803293938782
3.46843853820598,2.6580294394853157
3.4883720930232562,2.583897986541016
3.508305647840532,2.507504975275288
3.5282392026578075,2.428952344712005
3.548172757475083,2.3483485670677386
3.5681063122923593,2.2658094601928087
3.588039867109635,2.181459232621631
3.60797342192691,2.0954318348351593
3.6279069767441863,2.007872717042931
3.647840531561462,1.9189411314656948
3.6677740863787376,1.82881317069791
3.6877076411960132,1.7376858105639243
3.7076411960132893,1.6457823367069209
3.727574750830565,1.5533596945764343
3.7475083056478407,1.4607185345359528
3.7674418604651168,1.3682170566869705
3.787375415282392,1.2762902270108474
3.807308970099668,1.1854765596788213
3.8272425249169437,1.0964554010613163
3.8471760797342194,1.0100982714387756
3.867109634551495,0.9275375416916577
3.887043189368771,0.8502524803744409
3.9069767441860463,0.7801619140255422
3.9269102990033224,0.7196866519521615
3.9468438538205985,0.6716981006128312
3.9667774086378738,0.6392238306047335
3.98671096345515,0.6248248379182145
4.0066445182724255,0.6298017651322557
4.026578073089701,0.6536960095318358
4.046511627906977,0.6944734666514603
4.0664451827242525,0.7492409837557646
4.086378737541528,0.81499485804013
4.106312292358805,0.8890757198035127
4.1262458471760795,0.9693222234065514
4.146179401993356,1.0540506462962904
4.166112956810632,1.1419700953617207
4.186046511627907,1.232090762242413
4.205980066445183,1.3236463407575172
4.225913621262459,1.4160345126797815
4.245847176079734,1.5087732404441645
4.26578073089701,1.6014692522877287
4.2857142857142865,1.6937954369279384
4.305647840531561,1.785474597633711
4.325581395348838,1.8762677083708268
4.345514950166113,1.9659653573468048
4.365448504983389,2.0543814577665813
4.385382059800665,2.141348583000135
4.40531561461794,2.226714475687081
4.425249169435216,2.310339413122254
4.445182724252492,2.392094203152532
4.465116279069767,2.4718586487046337
4.485049833887043,2.5495203637994095
4.50498338870432,2.6249738554856075
4.524916943521594,2.6981198086094325
4.544850498338871,2.7688645264878184
4.5647840531561465,2.8371194922597476
4.584717607973422,2.9028010242506523
4.604651162790698,2.965830004998476
4.624584717607974,3.0261316682869306
4.644518272425249,3.0836354320529007
4.664451827242526,3.1382747676972467
4.6843853820598005,3.1899870983556697
4.704318936877076,3.238713720241961
4.724252491694353,3.2843997423784503
4.7441860465116275,3.326994040963787
4.764119601328904,3.3664492253619285
4.78405315614618,3.40272161327422
4.803986710963455,3.435771213116666
4.823920265780731,3.4655617119916866
4.8438538205980075,3.492060467940222
4.863787375415282,3.5152385054008684
4.883720930232559,3.535070512999481
4.9036544850498345,3.5515348429561757
4.92358803986711,3.564613511532653
4.943521594684386,3.5742922000583657
4.963455149501661,3.5805602561733694
4.983388704318937,3.583410695012755
5.003322259136213,3.58284020013518
5.023255813953488,3.5788491240697593
5.043189368770764,3.571441488422713
5.063122923588041,3.560624983550945
5.083056478405315,3.5464109678754347
5.102990033222592,3.5288144669756627
5.122923588039868,3.5078541726793135
5.142857142857143,3.4835524424412814
5.162790697674419,3.45593529939633
5.182724252491695,3.4250324335729134
5.20265780730897,3.390877204876505
5.222591362126246,3.3535066485939757
5.242524916943522,3.312961484342345
5.262458471760797,3.269286129593913
5.282392026578074,3.222528719165185
5.3023255813953485,3.1727411323723103
5.322259136212625,3.119979029948585
5.342192691029901,3.064301903311544
5.362126245847176,3.005773139388525
5.382059800664452,2.9444601049996013
5.4019933554817285,2.880434255807556
5.421926910299003,2.813771276148165
5.44186046511628,2.744551257745751
5.4617940199335555,2.672858927532254
5.48172757475083,2.5987839377039035
5.501661129568107,2.522421235022936
5.5215946843853825,2.443871531557778
5.541528239202658,2.3632419060573913
5.561461794019934,2.2806465746926348
5.5813953488372094,2.196207883003009
5.601328903654485,2.110057589060624
5.621262458471762,2.02233853329762
5.641196013289036,1.933206826366475
5.661129568106313,1.8428347375931988
5.681063122923589,1.7514145401337464
5.700996677740864,1.6591636753681607
5.72093023255814,1.5663317538135932
5.740863787375416,1.4732101351186644
5.760797342192691,1.3801451559498987
5.780730897009967,1.2875565391330916
5.800664451827243,1.1959631532437942
5.820598006644518,1.1060190868551696
5.840531561461795,1.0185637793269076
5.8604651162790695,0.9346900589578924
5.880398671096346,0.8558315405461824
5.900332225913622,0.7838615855680822
5.920265780730897,0.7211718738336536
5.940199335548173,0.6706515817279891
5.960132890365449,0.6354327195300112
5.980066445182724,0.6182867922851096
6.0,0.6207855499269209
6.0199335548172765,0.6426944177254542
6.039867109634551,0.6820696522092506
6.059800664451828,0.7359777471021312
6.0797342192691035,0.8013071184537968
6.099667774086379,0.8752819136273282
6.119601328903655,0.9556443828073635
6.139534883720931,1.040640334451562
6.159468438538206,1.1289304436994243
6.179401993355482,1.2194925550352396
6.1993355481727574,1.311538973572011
6.219269102990033,1.4044532264404648
6.23920265780731,1.4977438370797103
6.259136212624584,1.5910111605654609
6.279069767441861,1.6839237104827975
6.299003322259137,1.776201223113217
6.318936877076412,1.8676024662079949
6.338870431893688,1.957916390534053
6.3588039867109645,2.046955648574534
6.378737541528239,2.134551802381961
6.398671096345516,2.220551747664701
6.418604651162791,2.304815022041309
6.438538205980066,2.387211762362021
6.458471760797343,2.467621143119114
6.4784053156146175,2.5459301747770966
6.498338870431894,2.622032773775376
6.51827242524917,2.6958290393174713
6.538205980066445,2.7672246887927643
6.558139534883721,2.8361306157696795
6.578073089700998,2.902462543319763
6.598006644518272,2.9661407519220235
6.617940199335549,3.027089866014243
6.6378737541528245,3.0852386868624793
6.6578073089701,3.140520062139808
6.677740863787376,3.192870784672884
6.6976744186046515,3.242231514398642
6.717607973421927,3.288546718795877
6.737541528239203,3.331764628005773
6.7574750830564785,3.371837201598858
6.777408637873754,3.4087201045313216
6.797342192691031,3.442372690298167
6.8172757475083055,3.4727579896618455
6.837209302325582,3.499842703633675
6.857142857142858,3.523597199627668
6.877076411960133,3.5439955099042963
6.897009966777409,3.5610153315855535
6.9169435215946855,3.574638027658904
6.93687707641196,3.584848628503204
6.956810631229236,3.5916358335684895
6.9767441860465125,3.594992012928035
6.996677740863787,3.5949132084979056
7.016611295681064,3.591399134789732
7.036544850498339,3.584453179128436
7.056478405315615,3.5740824013305117
7.076411960132891,3.5602975329024447
7.096345514950166,3.5431129758847137
7.116279069767442,3.5225468015367487
7.136212624584719,3.4986207491349433
7.156146179401993,3.4713602252414972
7.17607973421927,3.44079430390008
7.196013289036546,3.4069557283288843
7.21594684385382,3.369880914816948
7.235880398671097,3.32960995969216
7.2558139534883725,3.2861866504259982
7.275747508305648,3.239658482181019
7.295681063122924,3.1900766814040993
7.3156146179402,3.1374962384381613
7.335548172757475,3.0819759515881904
7.355481727574752,3.0235784856618353
7.3754152823920265,2.9623704487476554
7.395348837209303,2.8984224919447557
7.415282392026579,2.831809437982548
7.435215946843854,2.7626104462602283
7.45514950166113,2.690909223915521
7.475083056478406,2.616794295273944
7.495016611295681,2.540359345671839
7.514950166112956,2.4617036605243805
7.5348837209302335,2.380932687099292
7.554817275747508,2.298158755437415
7.574750830564784,2.213502007212653
7.5946843853820605,2.1270915984704994
7.614617940199336,2.039067266217994
7.634551495016611,1.9495813828489728
7.6544850498338874,1.8588016709785535
7.674418604651163,1.7669148213120474
7.694352159468439,1.674131357991076
7.714285714285715,1.5806922448134495
7.73421926910299,1.486877944397488
7.754152823920266,1.3930209628482093
7.774086378737542,1.2995233770342667
7.794019933554818,1.2068814959118435
7.813953488372093,1.115720669961313
7.83388704318937,1.026844226361859
7.853820598006645,0.9413010642791725
7.8737541528239205,0.8604750105067125
7.893687707641197,0.7861915577325754
7.913621262458472,0.7208157302650339
7.9335548172757475,0.6672675834242734
7.953488372093024,0.6288151793209512
7.9734219269103,0.6084946677724506
7.9933554817275745,0.6082134069596868
8.013289036544851,0.6280049161551252
8.033222591362128,0.6660152581689992
8.053156146179402,0.7192325186591457
8.073089700996679,0.7843878626159985
8.093023255813954,0.8585478710203667
8.11295681063123,0.9393312661044174
8.132890365448505,1.0248980165039092
8.152823920265782,1.1138527454792515
8.172757475083056,1.2051378210364534
8.192691029900331,1.2979434138714576
8.21262458471761,1.3916393131562266
8.232558139534884,1.4857255184387586
8.252491694352159,1.5797970814592506
8.272425249169435,1.6735191968949652
8.292358803986712,1.766609501358023
8.312292358803987,1.8588254073963277
8.332225913621263,1.949954959365845
8.352159468438538,2.039810167382345
8.372093023255815,2.1282220995588674
8.392026578073091,2.2150372338581406
8.411960132890366,2.3001147215115996
8.43189368770764,2.383324316903746
8.451827242524917,2.4645447996343877
8.471760797342194,2.543662763579144
8.491694352159469,2.6205716821330003
8.511627906976745,2.69517118309821
8.53156146179402,2.7673664839934204
8.551495016611296,2.8370679510301935
8.571428571428573,2.9041907540668546
8.591362126245848,2.9686545964986184
8.611295681063122,3.0303835039636207
8.6312292358804,3.089305659417231
8.651162790697676,3.145353274891531
8.67109634551495,3.1984624923532516
8.691029900332227,3.248573307676649
8.710963455149502,3.295629512981925
8.730897009966778,3.3395786535472127
8.750830564784053,3.3803719962501417
8.77076411960133,3.417964507083097
8.790697674418604,3.452314835752278
8.81063122923588,3.4833853057424116
8.830564784053157,3.5111419085273345
8.850498338870432,3.5355543008486654
8.870431893687707,3.5565958041819785
8.890365448504983,3.5742434056725787
8.91029900332226,3.588477759958296
8.930232558139535,3.5992831914109784
8.950166112956811,3.60664769642575
8.970099667774086,3.6105629454722026
8.990033222591363,3.61102428469688
9.00996677740864,3.608030736935127
9.029900332225914,3.6015850020541547
9.049833887043189,3.5916934566110386
9.069767441860467,3.5783661528702533
9.089700996677742,3.561616817288296
9.109634551495017,3.5414628486391657
9.129568106312293,3.5179253160264796
9.14950166112957,3.491028957108851
9.169435215946844,3.4608021769565744
9.189368770764121,3.427277048064724
9.209302325581396,3.390489312173608
9.22923588039867,3.350478384698479
9.249169435215949,3.307287362752724
9.269102990033224,3.2609630379721577
9.289036544850498,3.2115559156228497
9.308970099667773,3.159120241817016
9.328903654485051,3.1037140410899866
9.348837209302326,3.0453991671313774
9.368770764119601,2.9842413701503747
9.388704318936878,2.9203103852338166
9.408637873754152,2.8536800471879387
9.428571428571429,2.7844284388253855
9.448504983388705,2.712638081582292
9.46843853820598,2.63839617988623
9.488372093023255,2.561794934066018
9.508305647840533,2.482931941111367
9.528239202657808,2.401910708697089
9.548172757475083,2.318841316217899
9.56810631229236,2.233841268053727
9.588039867109636,2.1470366002412935
9.60797342192691,2.058563324139823
9.627906976744187,1.9685693224818122
9.647840531561462,1.877216858793234
9.667774086378738,1.7846859271912756
9.687707641196015,1.6911787660882864
9.70764119601329,1.5969260016122102
9.727574750830565,1.502195097579855
9.747508305647841,1.4073021025386472
9.767441860465118,1.3126281484218774
9.787375415282392,1.218642829670442
9.807308970099669,1.125937529308492
9.827242524916944,1.0352729311749045
9.84717607973422,0.947646026147516
9.867109634551497,0.8643816149015817
9.887043189368772,0.7872479909810166
9.906976744186046,0.7185776686129335
9.926910299003321,0.6613275739696488
9.9468438538206,0.6189342369687978
9.966777408637874,0.5947708017193858
9.986710963455149,0.5911822137339081
10.006644518272426,0.6085535586779899
10.026578073089702,0.6451373679023952
10.046511627906977,0.6977959574125574
10.066445182724253,0.763032766016615
10.086378737541528,0.8376965673637379
10.106312292358805,0.9192428344707418
10.126245847176081,1.0057234199684193
10.146179401993356,1.095675972624592
10.16611295681063,1.1880029138993136
10.186046511627907,1.2818711659728241
10.205980066445184,1.3766372707458965
10.225913621262459,1.4717938697944368
10.245847176079735,1.5669320825452966
10.26578073089701,1.6617151360053135
10.285714285714286,1.7558598006563724
10.305647840531563,1.8491232156291848
10.325581395348838,1.9412934456805144
10.345514950166113,2.032182640999165
10.36544850498339,2.1216220296660793
10.385382059800666,2.2094582141478085
10.40531561461794,2.295550405861758
10.425249169435217,2.37976834193578
10.445182724252492,2.4619907033622197
10.465116279069768,2.5421039054209746
10.485049833887045,2.620001167167092
10.50498338870432,2.6955817920038667
10.524916943521594,2.7687506092596506
10.544850498338871,2.8394175395128562
10.564784053156147,2.9074972556923053
10.584717607973422,2.972908918762776
10.604651162790697,3.0355759718071935
10.624584717607974,3.0954259800374704
10.64451827242525,3.152390507057947
10.664451827242525,3.206405019816758
10.684385382059801,3.2574088162907104
10.704318936877076,3.305344971185688
10.724252491694353,3.35016029589199
10.74418604651163,3.3918053096796976
10.764119601328904,3.43023421970497
