Frequency (Hz),Amplitude
0.0,6.5583635542739795
0.01993355481727575,6.555597777305926
0.0398671096345515,6.547304381710027
0.059800664451827246,6.533495180049985
0.079734219269103,6.514189882224359
0.09966777408637874,6.489416129476981
0.11960132890365449,6.459209543169518
0.13953488372093023,6.423613789506569
0.159468438538206,6.382680661792361
0.17940199335548174,6.336470182223544
0.19933554817275748,6.285050725697732
0.21926910299003324,6.228499168652137
0.23920265780730898,6.166901066556118
0.25913621262458475,6.100350864380778
0.27906976744186046,6.028952145176547
0.29900332225913623,5.952817922826732
0.318936877076412,5.872070986135139
0.3388704318936877,5.786844302678044
0.3588039867109635,5.697281492333728
0.37873754152823924,5.603537382133729
0.39867109634551495,5.505778656092604
0.4186046511627907,5.404184616008253
0.4385382059800665,5.29894807191545
0.4584717607973422,5.190276383950854
0.47840531561461797,5.078392680858378
0.49833887043189373,4.963537284209998
0.5182724252491695,4.845969371564026
0.5382059800664452,4.725968916067909
0.5581395348837209,4.603838944128743
0.5780730897009968,4.4799081561941385
0.5980066445182725,4.354533957540311
0.6179401993355482,4.228105944882265
0.637873754152824,4.101049888492423
0.6578073089700996,3.9738322351921584
0.6777408637873754,3.8469651304940866
0.6976744186046512,3.7210119119136738
0.717607973421927,3.596592951429925
0.7375415282392027,3.474391612393988
0.7574750830564785,3.3551599224338635
0.7774086378737541,3.2397233373329173
0.7973421926910299,3.1289836753745637
0.8172757475083057,3.023918945993328
0.8372093023255814,2.9255784187819343
0.8571428571428572,2.8350709649268633
0.877076411960133,2.753544603469087
0.8970099667774087,2.682155513994474
0.9169435215946844,2.6220257722328486
0.9368770764119602,2.574190877455943
0.9568106312292359,2.539540669650765
0.9767441860465116,2.5187599687021307
0.9966777408637875,2.5122772820377404
1.0166112956810631,2.5202301736997903
1.036544850498339,2.5424537500328377
1.0564784053156147,2.5784945168991937
1.0764119601328903,2.6276468968279287
1.0963455149501662,2.689005647250614
1.1162790697674418,2.761525512966305
1.1362126245847177,2.8440798980717643
1.1561461794019936,2.935512471366481
1.176079734219269,3.0346783677011064
1.196013289036545,3.140474122888941
1.2159468438538206,3.251857213147765
1.2358803986710964,3.367856992600184
1.255813953488372,3.4875791005376326
1.275747508305648,3.6102052819886374
1.2956810631229239,3.7349902399781123
1.3156146179401993,3.8612567596151033
1.3355481727574752,3.9883899933510283
1.3554817275747508,4.115831507892173
1.3754152823920267,4.2430734731368185
1.3953488372093024,4.369653215200477
1.4152823920265782,4.495148247127075
1.435215946843854,4.6191718199258105
1.4551495016611296,4.74136899246698
1.4750830564784054,4.861413193132643
1.495016611295681,4.979003232735522
1.514950166112957,5.0938607226769115
1.5348837209302328,5.205727851578037
1.5548172757475083,5.314365475663082
1.5747508305647842,5.419551481680578
1.5946843853820598,5.521079385293827
1.6146179401993357,5.618757132147545
1.6345514950166113,5.712406072937
1.6544850498338872,5.801860087614375
1.6744186046511629,5.8869648372975245
1.6943521594684385,5.967577125481505
1.7142857142857144,6.043564352807032
1.73421926910299,6.114804051940732
1.754152823920266,6.181183491105642
1.7740863787375416,6.242599336504296
1.7940199335548175,6.298957365338229
1.8139534883720931,6.350172222379752
1.8338870431893688,6.3961672141264705
1.8538205980066447,6.436874135491985
1.8737541528239203,6.472233124782781
1.893687707641196,6.502192543401053
1.9136212624584719,6.526708877314801
1.9335548172757475,6.545746657865416
1.9534883720930232,6.559278399952301
1.9734219269102993,6.567284556056417
1.993355481727575,6.569753484949849
2.0132890365448506,6.566681434296403
2.0332225913621262,6.558072536687139
2.0531561461794023,6.54393881898332
2.073089700996678,6.524300225164172
2.0930232558139537,6.499184653207257
2.1129568106312293,6.468628006871385
2.132890365448505,6.432674263615218
2.1528239202657806,6.391375560277372
2.1727574750830567,6.3447922985751815
2.1926910299003324,6.2929932729609686
2.212624584717608,6.236055823917975
2.2325581395348837,6.1740660203976
2.25249169435216,6.107118875811297
2.2724252491694354,6.035318602812369
2.292358803986711,5.958778913057323
2.312292358803987,5.877623369247061
2.332225913621263,5.791985798043391
2.352159468438538,5.7020107739679595
2.3720930232558137,5.6078541861525135
2.39202657807309,5.509683901859683
2.4119601328903655,5.40768054306911
2.431893687707641,5.302038395160429
2.4518272425249172,5.192966469848035
2.471760797342193,5.080689748043143
2.4916943521594686,4.965450632209563
2.511627906976744,4.847510641962007
2.5315614617940203,4.727152390951524
2.551495016611296,4.6046818871693045
2.5714285714285716,4.480431202116732
2.5913621262458477,4.354761555927655
2.611295681063123,4.2280668640477295
2.6312292358803986,4.1007777842748725
2.6511627906976742,3.9733662875648705
2.6710963455149503,3.8463507472620346
2.691029900332226,3.7203014927003157
2.7109634551495017,3.5958466955827384
2.7308970099667778,3.473678340098347
2.7508305647840534,3.354557857863016
2.770764119601329,3.2393207749855546
2.7906976744186047,3.128879415746638
2.810631229235881,3.0242223464718307
2.8305647840531565,2.9264088661500716
2.850498338870432,2.836556549047341
2.870431893687708,2.7558197765030026
2.8903654485049834,2.6853575801051632
2.910299003322259,2.6262901911830263
2.9302325581395348,2.5796455873608437
2.950166112956811,2.546299910362617
2.9700996677740865,2.526918344019222
2.990033222591362,2.521904931199785
3.0099667774086383,2.5313698394997703
3.029900332225914,2.5551202140209868
3.0498338870431896,2.5926764065267034
3.0697674418604657,2.643310412667439
3.089700996677741,2.7060994615041163
3.1096345514950166,2.779986023371517
3.129568106312292,2.863836154034744
3.1495016611295683,2.9564903293273272
3.169435215946844,3.0568036828439684
3.1893687707641196,3.1636749803692283
3.2093023255813957,3.27606532194322
3.2292358803986714,3.3930084166964964
3.249169435215947,3.513614506205472
3.2691029900332227,3.6370698577388847
3.289036544850499,3.7626334134906925
3.3089700996677744,3.8896318033477963
3.32890365448505,4.017453582442054
3.3488372093023258,4.145543271922327
3.3687707641196014,4.273395567113098
3.388704318936877,4.400549923817362
3.4086378737541527,4.526585628831074
3.428571428571429,4.6511173925257365
3.4485049833887045,4.773791459163343
3.46843853820598,4.894282206254705
3.4883720930232562,5.012289191721277
3.508305647840532,5.127534602595412
3.5282392026578075,5.23976105856422
3.548172757475083,5.348729725874263
3.5681063122923593,5.45421870070354
3.588039867109635,5.556021625278346
3.60797342192691,5.65394650428434
3.6279069767441863,5.747814693218709
3.647840531561462,5.837460034108805
3.6677740863787376,5.922728117420178
3.6877076411960132,6.003475651980075
3.7076411960132893,6.0795699273657124
3.727574750830565,6.15088835548041
3.7475083056478407,6.2173180799998065
3.7674418604651168,6.278755644053889
3.787375415282392,6.3351067079536865
3.807308970099668,6.386285810008886
3.8272425249169437,6.432216164544107
3.8471760797342194,6.472829492134411
3.867109634551495,6.508065877868004
3.887043189368771,6.537873654127333
3.9069767441860463,6.562209304975194
3.9269102990033224,6.581037389757255
3.9468438538205985,6.594330483998349
3.9667774086378738,6.602069136089912
3.98671096345515,6.6042418386497825
4.0066445182724255,6.600845013792859
4.026578073089701,6.591883011890652
4.046511627906977,6.577368123726862
4.0664451827242525,6.557320606283717
4.086378737541528,6.531768722726471
4.106312292358805,6.500748797499806
4.1262458471760795,6.46430528781775
4.146179401993356,6.422490873227656
4.166112956810632,6.375366565367264
4.186046511627907,6.323001840524876
4.205980066445183,6.265474798166223
4.225913621262459,6.2028723492244735
4.245847176079734,6.135290438676168
4.26578073089701,6.062834307766005
4.2857142857142865,5.985618802218934
4.305647840531561,5.90376873391337
4.325581395348838,5.817419304813643
4.345514950166113,5.726716603504945
4.365448504983389,5.631818186474935
4.385382059800665,5.532893758380325
4.40531561461794,5.430125967962504
4.425249169435216,5.323711339067148
4.445182724252492,5.213861359405013
4.465116279069767,5.100803753269968
4.485049833887043,4.984783968376565
4.50498338870432,4.866066911202708
4.524916943521594,4.744938969533694
4.544850498338871,4.621710364954848
4.5647840531561465,4.496717881238513
4.584717607973422,4.370328015954682
4.604651162790698,4.242940600689286
4.624584717607974,4.114992927669926
4.644518272425249,3.9869644039467813
4.664451827242526,3.859381723613548
4.6843853820598005,3.732824497006245
4.704318936877076,3.6079311942589705
4.724252491694353,3.48540513769481
4.7441860465116275,3.3660201006943757
4.764119601328904,3.25062482875848
4.78405315614618,3.14014548749551
4.803986710963455,3.0355846756691833
4.823920265780731,2.938015265653553
4.8438538205980075,2.848567047050953
4.863787375415282,2.7684041169237306
4.883720930232559,2.698691407182224
4.9036544850498345,2.640549897610653
4.92358803986711,2.5950020480298583
4.943521594684386,2.5629116217073755
4.963455149501661,2.5449247606763894
4.983388704318937,2.5414209257054763
5.003322259136213,2.5524821151015993
5.023255813953488,2.577886163321552
5.043189368770764,2.6171254247208373
5.063122923588041,2.66944720863756
5.083056478405315,2.733908614036085
5.102990033222592,2.8094369677067137
5.122923588039868,2.8948879197133004
5.142857142857143,2.989095588756079
5.162790697674419,3.0909119148407678
5.182724252491695,3.199234742962823
5.20265780730897,3.313025744217082
5.222591362126246,3.4313200692169112
5.242524916943522,3.5532298141104524
5.262458471760797,3.6779432004201498
5.282392026578074,3.8047210252179795
5.3023255813953485,3.932891559345447
5.322259136212625,4.061844729256302
5.342192691029901,4.1910261408100995
5.362126245847176,4.319931294427131
5.382059800664452,4.448100192071938
5.4019933554817285,4.575112435270599
5.421926910299003,4.700582847643567
5.44186046511628,4.824157614971254
5.4617940199335555,4.945510912613924
5.48172757475083,5.06434197830528
5.501661129568107,5.180372583780598
5.5215946843853825,5.293344858548014
5.541528239202658,5.403019421477809
5.561461794019934,5.509173779550017
5.5813953488372094,5.611600957299715
5.601328903654485,5.710108324771614
5.621262458471762,5.804516595877588
5.641196013289036,5.894658972806694
5.661129568106313,5.980380415509201
5.681063122923589,6.06153701825416
5.700996677740864,6.137995477859449
5.72093023255814,6.20963264044571
5.740863787375416,6.276335115506123
5.760797342192691,6.3379989477510525
5.780730897009967,6.3945293386164925
5.800664451827243,6.445840410550768
5.820598006644518,6.4918550082462785
5.840531561461795,6.5325045318879305
5.8604651162790695,6.56772879827148
5.880398671096346,6.597475926322851
5.900332225913622,6.621702244141872
5.920265780730897,6.640372215215478
5.940199335548173,6.6534583819101645
5.960132890365449,6.660941324772341
5.980066445182724,6.662809636549416
6.0,6.659059910202403
6.0199335548172765,6.6496967405219465
6.039867109634551,6.63473273929158
6.059800664451828,6.614188564272583
6.0797342192691035,6.588092962622035
6.099667774086379,6.556482829707383
6.119601328903655,6.519403284655182
6.139534883720931,6.476907764378547
6.159468438538206,6.429058138275877
6.179401993355482,6.375924846295691
6.1993355481727574,6.317587063629387
6.219269102990033,6.254132895942281
6.23920265780731,6.1856596097985825
6.259136212624584,6.11227390379786
6.279069767441861,6.034092226941986
6.299003322259137,5.951241151916986
6.318936877076412,5.863857812333874
6.338870431893688,5.772090414558196
6.3588039867109645,5.676098836605822
6.378737541528239,5.576055328730085
6.398671096345516,5.4721453328105225
6.418604651162791,5.36456844051022
6.438538205980066,5.253539513420419
6.458471760797343,5.139289992060519
6.4784053156146175,5.022069424612716
6.498338870431894,4.902147250543279
6.51827242524917,4.7798148785898
6.538205980066445,4.655388102602931
6.558139534883721,4.529209901788592
6.578073089700998,4.401653672979689
6.598006644518272,4.2731269400727125
6.617940199335549,4.144075577258394
6.6378737541528245,4.014988564553933
6.6578073089701,3.8864032612362287
6.677740863787376,3.758911127925085
6.6976744186046515,3.63316374183578
6.717607973421927,3.5098788205162545
6.737541528239203,3.389845784545834
6.7574750830564785,3.27393013846765
6.777408637873754,3.16307562905207
6.797342192691031,3.0583027672258343
6.8172757475083055,2.960701926159543
6.837209302325582,2.8714189588236034
6.857142857142858,2.791631287165287
6.877076411960133,2.7225129323370356
6.897009966777409,2.665188207962979
6.9169435215946855,2.620675880132627
6.93687707641196,2.589828292665894
6.956810631229236,2.573272609919856
6.9767441860465125,2.571362926517829
6.996677740863787,2.584151545822563
7.016611295681064,2.6113848618407838
7.036544850498339,2.6525246373970535
7.056478405315615,2.706790561471106
7.076411960132891,2.773216433276689
7.096345514950166,2.850711118772516
7.116279069767442,2.9381164743690644
7.136212624584719,3.034256871704385
7.156146179401993,3.137977725325122
7.17607973421927,3.2481727351680174
7.196013289036546,3.3638010642403184
7.21594684385382,3.4838963958674216
7.235880398671097,3.607569956364084
7.2558139534883725,3.7340093861098325
7.275747508305648,3.862474988193088
7.295681063122924,3.992294504655395
7.3156146179402,4.122857232095095
7.335548172757475,4.253608016306548
7.355481727574752,4.384041461674912
7.3754152823920265,4.513696546232873
7.395348837209303,4.642151735186935
7.415282392026579,4.7690206222878455
7.435215946843854,4.893948089544349
7.45514950166113,5.016606953647862
7.475083056478406,5.13669505636321
7.495016611295681,5.253932752013272
7.514950166112956,5.368060745292261
7.5348837209302335,5.478838235154876
7.554817275747508,5.586041324269719
7.574750830564784,5.689461657756051
7.5946843853820605,5.788905259201046
7.614617940199336,5.88419153602871
7.634551495016611,5.975152430031683
7.6544850498338874,6.061631692231285
7.674418604651163,6.143484264190019
7.694352159468439,6.2205757504832455
7.714285714285715,6.292781969272824
7.73421926910299,6.359988569852868
7.754152823920266,6.422090707692748
7.774086378737542,6.478992768922743
7.794019933554818,6.5306081374253075
7.813953488372093,6.57685899874054
7.83388704318937,6.617676175894724
7.853820598006645,6.652998993037937
7.8737541528239205,6.682775163452439
7.893687707641197,6.706960699083685
7.913621262458472,6.725519839266868
7.9335548172757475,6.738424996786296
7.953488372093024,6.74565671982475
7.9734219269103,6.747203668745346
7.9933554817275745,6.7430626070089215
8.013289036544851,6.733238405873946
8.033222591362128,6.717744062861812
8.053156146179402,6.6966007343059015
8.073089700996679,6.669837782645836
8.093023255813954,6.637492839487161
8.11295681063123,6.599611885829769
8.132890365448505,6.556249351284834
8.152823920265782,6.5074682345605455
8.172757475083056,6.453340248012602
8.192691029900331,6.393945989639449
8.21262458471761,6.329375146569876
8.232558139534884,6.259726734858859
8.252491694352159,6.185109381296105
8.272425249169435,6.105641653964604
8.292358803986712,6.021452449488473
8.312292358803987,5.932681446311393
8.332225913621263,5.83947963498199
8.352159468438538,5.742009938326558
8.372093023255815,5.640447936601196
8.392026578073091,5.534982715272368
8.411960132890366,5.425817856010249
8.43189368770764,5.313172594814253
8.451827242524917,5.1972831749238075
8.471760797342194,5.078404426255962
8.491694352159469,4.95681160744273
8.511627906976745,4.832802550887757
8.53156146179402,4.70670015522016
8.551495016611296,4.578855272411665
8.571428571428573,4.449650037547151
8.591362126245848,4.319501686091927
8.611295681063122,4.188866893897361
8.6312292358804,4.058246655323523
8.651162790697676,3.928191679296308
8.67109634551495,3.7993082243749856
8.691029900332227,3.6722642021955605
8.710963455149502,3.547795242087462
8.730897009966778,3.426710215530633
8.750830564784053,3.3098954572323063
8.77076411960133,3.1983165890051577
8.790697674418604,3.093016473166113
8.81063122923588,2.9951074512684976
8.830564784053157,2.9057557757354506
8.850498338870432,2.826156198884149
8.870431893687707,2.7574952816207183
8.890365448504983,2.7009033431765865
8.91029900332226,2.657397161007143
8.930232558139535,2.627818282279679
8.950166112956811,2.6127744161971016
8.970099667774086,2.6125927963815134
8.990033222591363,2.627293680856339
9.00996677740864,2.6565890193702497
9.029900332225914,2.699906528615182
9.049833887043189,2.756434547615051
9.069767441860467,2.8251797100197718
9.089700996677742,2.905028523359502
9.109634551495017,2.994805198935686
9.129568106312293,3.093320614625627
9.14950166112957,3.199410061341821
9.169435215946844,3.311959675472854
9.189368770764121,3.429922893015468
9.209302325581396,3.552328920580586
9.22923588039867,3.678285316351161
9.249169435215949,3.8069765476064736
9.269102990033224,3.9376600285065813
9.289036544850498,4.069660762166082
9.308970099667773,4.202365376322692
9.328903654485051,4.335216074654035
9.348837209302326,4.4677048264930415
9.368770764119601,4.599367976754371
9.388704318936878,4.72978136275371
9.408637873754152,4.85855596331812
9.428571428571429,4.985334068202979
9.448504983388705,5.109785934701585
9.46843853820598,5.231606887872958
9.488372093023255,5.350514817097966
9.508305647840533,5.466248022030955
9.528239202657808,5.578563363672792
9.548172757475083,5.687234680111289
9.56810631229236,5.792051430743741
9.588039867109636,5.8928175370882006
9.60797342192691,5.989350392363285
9.627906976744187,6.081480015749117
9.647840531561462,6.169048330584897
9.667774086378738,6.251908548705835
9.687707641196015,6.329924645693023
9.70764119601329,6.402970914035906
9.727574750830565,6.470931583125133
9.747508305647841,6.5337004966413925
9.767441860465118,6.591180839319832
9.787375415282392,6.643284906282754
9.807308970099669,6.689933909175196
9.827242524916944,6.731057814235805
9.84717607973422,6.766595208211249
9.867109634551497,6.796493188697084
9.887043189368772,6.820707276078625
9.906976744186046,6.839201344766983
9.926910299003321,6.851947571891498
9.9468438538206,6.858926402032009
9.966777408637874,6.8601265269625005
9.986710963455149,6.855544879742238
10.006644518272426,6.84518664283873
10.026578073089702,6.8290652703084795
10.046511627906977,6.8072025244035155
10.066445182724253,6.779628527322254
10.086378737541528,6.7463818291915505
10.106312292358805,6.707509493759989
10.126245847176081,6.663067203712212
10.146179401993356,6.613119387988599
10.16611295681063,6.557739374027893
10.186046511627907,6.497009568454768
10.205980066445184,6.43102167042525
10.225913621262459,6.359876922639221
10.245847176079735,6.283686405950549
10.26578073089701,6.202571384575641
10.285714285714286,6.1166637101480505
10.305647840531563,6.026106294320024
10.325581395348838,5.93105366130628
10.345514950166113,5.831672593737541
10.36544850498339,5.728142887480608
10.385382059800666,5.62065823372491
10.40531561461794,5.50942724966562
10.425249169435217,5.394674682549076
10.445182724252492,5.276642815680966
10.465116279069768,5.155593109179514
10.485049833887045,5.03180811265709
10.50498338870432,4.905593691383745
10.524916943521594,4.7772816113826995
10.544850498338871,4.647232531592681
10.564784053156147,4.515839451525373
10.584717607973422,4.383531658916803
10.604651162790697,4.250779210959462
10.624584717607974,4.118097960760621
10.64451827242525,3.9860551019496024
10.664451827242525,3.855275140992005
10.684385382059801,3.7264461085650136
10.704318936877076,3.6003256760922473
10.724252491694353,3.47774663850358
10.74418604651163,3.3596209499657688
10.764119601328904,3.2469411567856294
10.784053156146179,3.1407776848987186
10.803986710963457,3.0422700726922995
10.823920265780732,2.9526100171222356
10.843853820598007,2.873014214875723
10.863787375415283,2.804685671652241
10.88372093023256,2.748763633187162
10.903654485049834,2.706264597068192
