Time (s),Filtered Signal
0.0,0.003329353816279237
0.03337028824833703,-0.33289777186571695
0.06674057649667406,-0.5421024714287163
0.10011086474501109,-0.5430548370650649
0.13348115299334812,-0.32834561515270994
0.16685144124168516,0.03743909535846975
0.20022172949002218,0.4468096559344828
0.2335920177383592,0.7921811222285471
0.26696230598669624,1.003819515405549
0.3003325942350333,1.0678366174955072
0.3337028824833703,1.0191827345672824
0.3670731707317073,0.916128161042131
0.40044345898004435,0.8102069710737289
0.4338137472283814,0.7257648273450316
0.4671840354767184,0.6567162859983884
0.5005543237250555,0.5788194586985682
0.5339246119733925,0.46867234838069166
0.5672949002217295,0.31894438246253487
0.6006651884700666,0.14302584957135245
0.6340354767184035,-0.031483441529498266
0.6674057649667406,-0.17572035407389847
0.7007760532150776,-0.2720748638728425
0.7341463414634146,-0.32066282991625045
0.7675166297117517,-0.3375305473984227
0.8008869179600887,-0.34615573339106753
0.8342572062084257,-0.3665015653219741
0.8676274944567628,-0.40657550886734856
0.9009977827050998,-0.4600123396989671
0.9343680709534368,-0.5103257473834325
0.9677383592017739,-0.5394431058011716
1.001108647450111,-0.5363155984966306
1.0344789356984478,-0.5015818710369954
1.067849223946785,-0.44630962066568336
1.101219512195122,-0.3857285458265427
1.134589800443459,-0.3312129595832591
1.167960088691796,-0.28448788412913617
1.2013303769401331,-0.2368518706812796
1.23470066518847,-0.17378282644070264
1.268070953436807,-0.08281396193055461
1.3014412416851442,0.03884786489279685
1.3348115299334813,0.18031952095230994
1.3681818181818182,0.31848946744857515
1.4015521064301553,0.4246181913931785
1.4349223946784924,0.4738788056295741
1.4682926829268292,0.4545024017644086
1.5016629711751663,0.3731037590489402
1.5350332594235034,0.2537376534232351
1.5684035476718403,0.13017637958006714
1.6017738359201774,0.033473162082538505
1.6351441241685145,-0.020685839483580236
1.6685144124168514,-0.03921781905419974
1.7018847006651885,-0.04912431499666184
1.7352549889135256,-0.08470779470982732
1.7686252771618625,-0.16908396907505546
1.8019955654101996,-0.2983690559954635
1.8353658536585367,-0.4370623709001532
1.8687361419068735,-0.5287653331658526
1.9021064301552106,-0.5191015939040373
1.9354767184035477,-0.3811145756382937
1.9688470066518848,-0.13121156769742057
2.002217294900222,0.17251801278605805
2.035587583148559,0.44973063945223446
2.0689578713968957,0.6268927257958633
2.102328159645233,0.6636494151344994
2.13569844789357,0.5658296447270285
2.1690687361419068,0.38067983757215546
2.202439024390244,0.17742282089828543
2.235809312638581,0.02161035679945033
2.269179600886918,-0.046835968058705255
2.302549889135255,-0.02439108365352791
2.335920177383592,0.05927001714297516
2.369290465631929,0.1560466689404871
2.4026607538802662,0.2194999515931092
2.436031042128603,0.22249744564933882
2.46940133037694,0.1659343234169506
2.5027716186252773,0.07564660889843343
2.536141906873614,-0.010684139123867337
2.569512195121951,-0.06081736327020344
2.6028824833702884,-0.0619352099126043
2.6362527716186253,-0.025332390657072316
2.6696230598669626,0.01998074085457123
2.7029933481152995,0.04148879979061267
2.7363636363636363,0.018359307576524153
2.7697339246119737,-0.04948652177636245
2.8031042128603105,-0.14227527611939458
2.8364745011086474,-0.23005058844809342
2.8698447893569847,-0.28574361141954613
2.9032150776053216,-0.2952182898164988
2.9365853658536585,-0.2602746767139224
2.969955654101996,-0.1948088704271331
3.0033259423503327,-0.11774063132514181
3.0366962305986696,-0.047032767435037
3.070066518847007,0.0028982811620735243
3.1034368070953438,0.02112339381194655
3.1368070953436806,7.207750374962506e-05
3.170177383592018,-0.06264820427387163
3.203547671840355,-0.16082270640637356
3.2369179600886917,-0.2771859954470006
3.270288248337029,-0.3849217371552931
3.303658536585366,-0.4541167627203758
3.337028824833703,-0.46119879961990046
3.37039911308204,-0.39738895497952087
3.403769401330377,-0.2724673010120138
3.437139689578714,-0.11235318533886468
3.470509977827051,0.0483878912364134
3.503880266075388,0.17643217265756234
3.537250554323725,0.24914292944976413
3.5706208425720622,0.2613279684578429
3.603991130820399,0.22763651561752482
3.637361419068736,0.17939331666068303
3.6707317073170733,0.15559907607560683
3.70410199556541,0.18964246213674157
3.737472283813747,0.2955308646372282
3.7708425720620844,0.45889525879724086
3.8042128603104213,0.6373941384355333
3.8375831485587586,0.7721036190737349
3.8709534368070955,0.8070210428027657
3.9043237250554323,0.7098472499092696
3.9376940133037697,0.4857371590969694
3.9710643015521065,0.17782132646787327
4.004434589800444,-0.1464871418317183
4.037804878048781,-0.41823309273754206
4.071175166297118,-0.5894224955099243
4.1045454545454545,-0.6461467613574229
4.137915742793791,-0.6076590174351081
4.171286031042128,-0.5132414730060956
4.204656319290466,-0.4038802098973244
4.238026607538803,-0.3071313021221416
4.27139689578714,-0.230861878813854
4.304767184035477,-0.16665473601181857
4.3381374722838135,-0.09929028071030825
4.371507760532151,-0.01685467479936627
4.404878048780488,0.08297599280503434
4.438248337028825,0.19219143585112108
4.471618625277162,0.2961958162061
4.504988913525499,0.3794752129305681
4.538359201773836,0.430621923665019
4.571729490022173,0.44517846870641303
4.60509977827051,0.4259760488760442
4.638470066518847,0.381443263456293
4.671840354767184,0.32262254524675915
4.705210643015521,0.25960129087531547
4.738580931263858,0.19807490416020018
4.771951219512196,0.13694651873362274
4.8053215077605325,0.0680596522296291
4.838691796008869,-0.021025669137217966
4.872062084257206,-0.14119375269964363
4.905432372505543,-0.29440991420419177
4.93880266075388,-0.46797657715525787
4.972172949002218,-0.6340992397986733
5.005543237250555,-0.7569512733115988
5.0389135254988915,-0.8059017718552991
5.072283813747228,-0.7695800942524512
5.105654101995565,-0.6635107162190165
5.139024390243902,-0.5260379216140083
5.17239467849224,-0.40283167890450156
5.205764966740577,-0.3266176180426377
5.239135254988914,-0.30214077730326183
5.2725055432372505,-0.30440444435443126
5.305875831485587,-0.2916220222490268
5.339246119733925,-0.2265980586509013
5.372616407982262,-0.09574632515360747
5.405986696230599,0.08375744877906861
5.439356984478936,0.27184224963490056
5.472727272727273,0.4238230059471408
5.5060975609756095,0.5096556406301719
5.539467849223947,0.5252002471050911
5.572838137472284,0.49146383731887067
5.606208425720621,0.44395228178146495
5.639578713968958,0.41822894445692976
5.672949002217295,0.4379668646614323
5.706319290465632,0.5090039648407114
5.7396895787139695,0.6194501138161451
5.773059866962306,0.7438631925546798
5.806430155210643,0.8495508606325586
5.83980044345898,0.9041494935591281
5.873170731707317,0.8841075406703388
5.906541019955654,0.7826996102248331
5.939911308203992,0.6145171703059039
5.9732815964523285,0.4129463579786996
6.006651884700665,0.219385369025478
6.040022172949002,0.06731760121856596
6.073392461197339,-0.03175832908972399
6.106762749445676,-0.09309245290329395
6.140133037694014,-0.1507288007702222
6.173503325942351,-0.24003676917090766
6.2068736141906875,-0.37934425212702805
6.240243902439024,-0.5602196149296268
6.273614190687361,-0.7516516752131658
6.306984478935698,-0.9160508210147809
6.340354767184036,-1.028557254247549
6.373725055432373,-1.0891121159444088
6.40709534368071,-1.1203490265926694
6.4404656319290465,-1.1518317281604622
6.473835920177383,-1.1986373044621024
6.507206208425721,-1.245829327055206
6.540576496674058,-1.2480190025225197
6.573946784922395,-1.145993193896534
6.607317073170732,-0.8938101095906584
6.640687361419069,-0.48412353939842256
6.674057649667406,0.040283750000632036
6.707427937915743,0.5947174856832529
6.74079822616408,1.077629020196724
6.774168514412417,1.402329109535946
6.807538802660754,1.5228697580548982
6.840909090909091,1.4448718038413308
6.874279379157428,1.218785476498697
6.9076496674057655,0.9198889927016367
6.941019955654102,0.6235265687895791
6.974390243902439,0.3845344927557337
7.007760532150776,0.22696090799279847
7.041130820399113,0.1455598743742555
7.07450110864745,0.11606610521221454
7.107871396895788,0.10863727383185526
7.1412416851441245,0.09890344060025429
7.174611973392461,0.07336255364018023
7.207982261640798,0.02900685334335077
7.241352549889135,-0.030519750680379223
7.274722838137472,-0.09918410657342644
7.30809312638581,-0.1710580173897081
7.341463414634147,-0.24051661415208506
7.3748337028824835,-0.30107909184839043
7.40820399113082,-0.3444528894083064
7.441574279379157,-0.3610321143433687
7.474944567627494,-0.3421933681145215
7.508314855875832,-0.2837026280448538
7.541685144124169,-0.1887987106627714
7.575055432372506,-0.06932488831897424
7.6084257206208425,0.05621463303267171
7.641796008869179,0.16762808291978318
7.675166297117517,0.24948394145647773
7.708536585365854,0.2962737949940798
7.741906873614191,0.31343580092767254
7.775277161862528,0.3129198041817446
7.808647450110865,0.3048326328151976
7.842017738359202,0.28949816271610007
7.875388026607539,0.25506154079950355
7.908758314855876,0.18335039244618356
7.942128603104213,0.0618609845300108
7.97549889135255,-0.10470450219046404
8.008869179600888,-0.2907443493629764
8.042239467849225,-0.45732248118860075
8.075609756097561,-0.5677518738713128
8.108980044345898,-0.6028796782531836
8.142350332594235,-0.5677038620283084
8.175720620842572,-0.4860569586340357
8.209090909090909,-0.3870736422923634
8.242461197339246,-0.29159881358936207
8.275831485587583,-0.20598876896308152
8.30920177383592,-0.1256813266677195
8.342572062084257,-0.04487654432805085
8.375942350332595,0.034614519673369995
8.409312638580932,0.10114149048303706
8.442682926829269,0.13892760478314994
8.476053215077606,0.13816582935632404
8.509423503325943,0.10340653802965759
8.54279379157428,0.05508666025906389
8.576164079822616,0.022673602585857964
8.609534368070953,0.03221383815923381
8.64290465631929,0.09399868681845869
8.676274944567627,0.1962855032758806
8.709645232815964,0.30844879276540305
8.743015521064303,0.39268392566444704
8.77638580931264,0.4193385404944761
8.809756097560976,0.37903697943324804
8.843126385809313,0.28604940116247507
8.87649667405765,0.17137938514152973
8.909866962305987,0.06891572015463418
8.943237250554324,0.0012966419800272146
8.97660753880266,-0.027837990985994494
9.009977827050998,-0.031846228015602426
9.043348115299334,-0.030969251064728802
9.076718403547671,-0.039847787530404244
9.110088691796008,-0.059509788189064855
9.143458980044347,-0.07814964362466964
9.176829268292684,-0.08015248470982313
9.21019955654102,-0.05814192129186853
9.243569844789358,-0.020894507320688743
9.276940133037694,0.008040536675173461
9.310310421286031,0.0011738579270605537
9.343680709534368,-0.05784478699508828
9.377050997782705,-0.16286399733897586
9.410421286031042,-0.28408505841963816
9.443791574279379,-0.37861431487198055
9.477161862527716,-0.40821657164931263
9.510532150776053,-0.35594435169860955
9.543902439024391,-0.2336081938581508
9.577272727272728,-0.0763179276251777
9.610643015521065,0.07352878434490416
9.644013303769402,0.18534649647006482
9.677383592017739,0.25343846920555396
9.710753880266076,0.2975154464592485
9.744124168514412,0.34984609284681845
9.77749445676275,0.43464612216929116
9.810864745011086,0.5495829832578899
9.844235033259423,0.659268613460251
9.87760532150776,0.705851272051378
9.910975609756099,0.6339237259417482
9.944345898004435,0.41934915780763626
9.977716186252772,0.08816024653608903
10.01108647450111,-0.28518425527068403
10.044456762749446,-0.6019326145917431
10.077827050997783,-0.7765200624568054
10.11119733924612,-0.7711979448815263
10.144567627494457,-0.6120227377726033
10.177937915742794,-0.3784972915033706
10.21130820399113,-0.17105269352699162
10.244678492239467,-0.0704960295339699
10.278048780487804,-0.10684087992771693
10.311419068736143,-0.2502691585393941
10.34478935698448,-0.4268586979936752
10.378159645232817,-0.5510419358699916
10.411529933481154,-0.5603218579385005
10.44490022172949,-0.4380269485305396
10.478270509977827,-0.21608304834211498
10.511640798226164,0.04134644988875275
10.545011086474501,0.26493868318970126
10.578381374722838,0.40623031471988186
10.611751662971175,0.4524330900560093
10.645121951219512,0.42533466268497344
10.67849223946785,0.36639137234818114
10.711862527716187,0.31563693914696095
10.745232815964524,0.2941459773124478
10.778603104212861,0.2976741946376571
10.811973392461198,0.30359175615752515
10.845343680709535,0.2867315351400676
10.878713968957872,0.23540477779413047
10.912084257206208,0.15895360389883362
10.945454545454545,0.0829524951735327
10.978824833702882,0.035034442676142266
11.012195121951219,0.029418943205296342
11.045565410199556,0.05866807624234986
11.078935698447895,0.09692799085735775
11.112305986696231,0.11262014539242146
11.145676274944568,0.08383379127005793
11.179046563192905,0.008846704235756168
11.212416851441242,-0.09281843388769839
11.245787139689579,-0.18862331902995208
11.279157427937916,-0.24632450575817152
11.312527716186253,-0.24656710596486414
11.34589800443459,-0.19000873814306476
11.379268292682926,-0.09689433760274449
11.412638580931263,0.0001122398292261152
11.4460088691796,0.06698648371758333
11.479379157427939,0.07959643370553424
11.512749445676276,0.03168167784208179
11.546119733924613,-0.06288771420194396
11.57949002217295,-0.1743819884275257
11.612860310421286,-0.2667827456816285
11.646230598669623,-0.309487511489532
11.67960088691796,-0.28697864097294595
11.712971175166297,-0.20294783215478976
11.746341463414634,-0.07767106511404648
11.77971175166297,0.059663609141105974
11.813082039911308,0.18003085649911557
11.846452328159646,0.261498606011706
11.879822616407983,0.29237544883431626
11.91319290465632,0.2712331020168981
11.946563192904657,0.20557842192068068
11.979933481152994,0.11034330182837226
12.01330376940133,0.005881838174930409
12.046674057649668,-0.08568171004527411
12.080044345898004,-0.1461857182097181
12.113414634146341,-0.16776921770922634
12.146784922394678,-0.15671236043521608
12.180155210643015,-0.13181275528668446
12.213525498891352,-0.11663158229332972
12.24689578713969,-0.12832323600892992
12.280266075388028,-0.16823571404936952
12.313636363636364,-0.2193642509461369
12.347006651884701,-0.2527757642618414
12.380376940133038,-0.2406675189355417
12.413747228381375,-0.17010067783947944
12.447117516629712,-0.05067316214411772
12.480487804878049,0.08794194951367336
12.513858093126386,0.20779050564955323
12.547228381374723,0.27834542717864313
12.58059866962306,0.2887838331283526
12.613968957871396,0.2512803862961319
12.647339246119735,0.19428040614055678
12.680709534368072,0.14949708746125456
12.714079822616409,0.13894131518169153
12.747450110864746,0.1675433181311927
12.780820399113082,0.22363189297535221
12.81419068736142,0.28568584718679385
12.847560975609756,0.3313360278298046
12.880931263858093,0.34451279003699237
12.91430155210643,0.31849738697718144
12.947671840354767,0.2551201247299155
12.981042128603104,0.162034257448018
13.014412416851442,0.050142626143328844
13.04778270509978,-0.06787746442328726
13.081152993348116,-0.1784359494098018
13.114523281596453,-0.26846077210376923
13.14789356984479,-0.32810031827971975
13.181263858093127,-0.35411206238075266
13.214634146341464,-0.352168594861252
13.2480044345898,-0.33612361237483945
13.281374722838137,-0.32341794892586523
13.314745011086474,-0.327809459415081
13.348115299334811,-0.35242329510806525
13.381485587583148,-0.38663240519169023
13.414855875831487,-0.4089685050851246
13.448226164079824,-0.39556793138207047
13.48159645232816,-0.33083717863367185
13.514966740576497,-0.2155497797095363
13.548337028824834,-0.06835114471968741
13.581707317073171,0.08055613074634733
13.615077605321508,0.20119925982692402
13.648447893569845,0.27607625430963945
13.681818181818182,0.30734711962228795
13.715188470066519,0.3154587505338677
13.748558758314855,0.3293401332587767
13.781929046563192,0.3720814553397219
13.815299334811531,0.4482637931602878
13.848669623059868,0.5387687075065802
13.882039911308205,0.6059811202234471
13.915410199556542,0.6079496472148713
13.948780487804878,0.5161052785756093
13.982150776053215,0.3292856258563014
14.015521064301552,0.07795972418629027
14.048891352549889,-0.1836609625983679
14.082261640798226,-0.395034674676134
14.115631929046563,-0.5096886216436606
14.1490022172949,-0.5107645499626179
14.182372505543238,-0.41573914024942016
14.215742793791575,-0.26861297947637797
14.249113082039912,-0.12282718024891073
14.282483370288249,-0.02186068576873609
14.315853658536586,0.01468175365372432
14.349223946784923,-0.0058269600142988685
14.38259423503326,-0.05716246705736553
14.415964523281596,-0.10892383259533579
14.449334811529933,-0.1402807655067671
14.48270509977827,-0.14633505366426044
14.516075388026607,-0.1350110175360357
14.549445676274944,-0.1177457163312702
14.582815964523283,-0.10051495722842704
14.61618625277162,-0.08093173393571941
14.649556541019956,-0.05274424343502027
14.682926829268293,-0.013834399635752634
14.71629711751663,0.028747260672904416
14.749667405764967,0.061207339130672195
14.783037694013304,0.07203737393930562
14.81640798226164,0.061627599363684664
14.849778270509978,0.0451870140920321
14.883148558758315,0.045543565496812224
14.916518847006651,0.07910473139047618
14.949889135254988,0.14342064085092254
14.983259423503327,0.2147714351820113
15.016629711751664,0.25862458908948793
15.05,0.24795981108972442
15.083370288248338,0.1792355777918604
15.116740576496674,0.07653679661377821
15.150110864745011,-0.01912525249307577
15.183481152993348,-0.07006496698311994
15.216851441241685,-0.06104631455162352
15.250221729490022,-0.007135557143284684
15.283592017738359,0.05387316065826691
15.316962305986696,0.08057897247588454
15.350332594235034,0.04893155478045432
15.383702882483371,-0.0354609160005695
15.417073170731708,-0.13970491302920854
15.450443458980045,-0.21939192829066442
15.483813747228382,-0.23994362450229836
15.517184035476719,-0.1931055940099707
15.550554323725056,-0.10068264665340826
15.583924611973393,-0.003919686618889177
15.61729490022173,0.056122467057461975
15.650665188470066,0.057644379795184546
15.684035476718403,0.0075564319434310995
15.71740576496674,-0.06300797492269895
15.750776053215079,-0.11469948133402344
15.784146341463416,-0.11958914677049041
15.817516629711752,-0.07488848007801403
15.85088691796009,-0.004158422992722618
15.884257206208426,0.05446157064201301
15.917627494456763,0.06718814935432216
15.9509977827051,0.021535986371945013
15.984368070953437,-0.06669751873848279
16.017738359201775,-0.15938615210776302
16.05110864745011,-0.2118027212705245
16.08447893569845,-0.19072897712897682
16.117849223946784,-0.08715023779821722
16.151219512195123,0.08105356943707291
16.184589800443458,0.27620842344762436
16.217960088691797,0.45366418589419283
16.251330376940132,0.5749084213734672
16.28470066518847,0.6166834377860771
16.31807095343681,0.5742132604580534
16.351441241685144,0.45896725040290076
16.384811529933483,0.29288786243440024
16.418181818181818,0.10160674067428474
16.451552106430157,-0.09098460785087782
16.48492239467849,-0.265296198038188
16.51829268292683,-0.4056943685954543
16.551662971175165,-0.49886444805795915
16.585033259423504,-0.5334118646442065
16.61840354767184,-0.5025313205103961
16.651773835920178,-0.40926023124958005
16.685144124168513,-0.27119134689356944
16.71851441241685,-0.12046791854963301
16.75188470066519,0.003399515747400439
16.785254988913525,0.06647350317808343
16.818625277161864,0.05381566919006116
16.8519955654102,-0.02323498315435366
16.885365853658538,-0.13029728067544524
16.918736141906873,-0.2231153892281837
16.95210643015521,-0.2650172702560294
16.985476718403547,-0.24062580024818692
17.018847006651885,-0.1594920850843117
17.05221729490022,-0.04838429735080257
17.08558758314856,0.06324369133084715
17.118957871396898,0.1566991840317826
17.152328159645233,0.22944252929370204
17.18569844789357,0.2902306366167786
17.219068736141907,0.3477624055436269
17.252439024390245,0.4002767323747904
