Frequency (Hz),Amplitude
0.0,8.677421191347987
0.020066889632107024,8.673362694900648
0.04013377926421405,8.66119186640393
0.060200668896321065,8.64092269039683
0.0802675585284281,8.612578481249567
0.10033444816053512,8.57619189382404
0.12040133779264213,8.531804939318475
0.14046822742474915,8.479469007250467
0.1605351170568562,8.419244894857034
0.1806020066889632,8.351202845555317
0.20066889632107024,8.275422598528216
0.22073578595317725,8.191993451989905
0.24080267558528426,8.10101434326728
0.2608695652173913,8.002593949528059
0.2809364548494983,7.896850813825735
0.3010033444816054,7.783913502152847
0.3210702341137124,7.663920798446921
0.34113712374581934,7.537021946039065
0.3612040133779264,7.403376945954962
0.3812709030100334,7.263156924874972
0.4013377926421405,7.116544588570905
0.42140468227424743,6.963734780438069
0.4414715719063545,6.804935169567095
0.4615384615384615,6.640367098958181
0.4816053511705685,6.47026663238025
0.5016722408026756,6.29488584856312
0.5217391304347826,6.11449444460852
0.5418060200668896,5.929381727686242
0.5618729096989966,5.739859096543842
0.5819397993311036,5.546263143834975
0.6020066889632107,5.348959549065206
0.6220735785953176,5.148347983092964
0.6421404682274248,4.944868312519681
0.6622073578595318,4.7390084808549995
0.6822742474916387,4.531314558836774
0.7023411371237458,4.32240360478416
0.7224080267558528,4.112980161909258
0.7424749163879598,3.9038574417872214
0.7625418060200668,3.6959844849062695
0.7826086956521738,3.4904807982485306
0.802675585284281,3.28868001962992
0.8227424749163879,3.0921837764018285
0.8428093645484949,2.90292555486979
0.862876254180602,2.7232411157198384
0.882943143812709,2.5559352928295764
0.903010033444816,2.4043231903024433
0.923076923076923,2.2722064818816863
0.9431438127090299,2.1637277407769626
0.963210702341137,2.0830439473735214
0.983277591973244,2.0338027525416997
1.0033444816053512,2.0185087957098307
1.0234113712374582,2.0379901018810886
1.0434782608695652,2.0912037918801047
1.0635451505016722,2.175479848931778
1.0836120401337792,2.287079930949364
1.1036789297658862,2.421826855356457
1.1237458193979932,2.575606929669243
1.1438127090301002,2.7446727424305646
1.1638795986622072,2.9257710704761273
1.1839464882943145,3.116156237305133
1.2040133779264215,3.3135442538916133
1.2240802675585283,3.5160447728751922
1.2441471571906353,3.7220911280255704
1.2642140468227423,3.9303775897319992
1.2842809364548495,4.139806768143102
1.3043478260869565,4.3494471113762065
1.3244147157190636,4.558499250276976
1.3444816053511706,4.766269631635855
1.3645484949832773,4.972149960696851
1.3846153846153846,5.175601191143945
1.4046822742474916,5.376141041764906
1.4247491638795986,5.5733342372852
1.4448160535117056,5.766784852257103
1.4648829431438126,5.956130281110478
1.4849498327759196,6.141036469399279
1.5050167224080266,6.321194126997104
1.5250836120401337,6.496315709201438
1.5451505016722407,6.6661330011768625
1.5652173913043477,6.830395178700227
1.5852842809364547,6.988867246698419
1.605351170568562,7.141328778816789
1.625418060200669,7.287572897898875
1.6454849498327757,7.427405450049491
1.6655518394648827,7.560644334830958
1.6856187290969897,7.6871189618080615
1.705685618729097,7.8066698096369205
1.725752508361204,7.919148068581399
1.745819397993311,8.024415351036536
1.765886287625418,8.12234345756723
1.7859531772575248,8.21281418830422
1.806020066889632,8.2957191914093
1.826086956521739,8.370959841828856
1.846153846153846,8.438447144776973
1.866220735785953,8.498101659386885
1.8862876254180598,8.549853438789924
1.9063545150501673,8.593641983561131
1.926421404682274,8.629416206040057
1.9464882943143813,8.657134403516917
1.966555183946488,8.676764238687785
1.9866220735785953,8.688282726142896
2.0066889632107023,8.69167622397206
2.026755852842809,8.686940429862508
2.0468227424749164,8.674080381335628
2.0668896321070234,8.653110460029431
2.0869565217391304,8.624054400191064
2.1070234113712374,8.58694530180619
2.1270903010033444,8.541825649068084
2.1471571906354514,8.488747335187188
2.1672240802675584,8.427771694872433
2.1872909698996654,8.358969546188797
2.2073578595317724,8.282421243926601
2.2274247491638794,8.198216747121672
2.2474916387959865,8.106455703962645
2.267558528428094,8.007247558036964
2.2876254180602005,7.900711680731618
2.3076923076923075,7.786977535658049
2.3277591973244145,7.666184882263124
2.3478260869565215,7.53848402738437
2.367892976588629,7.404036135490405
2.3879598662207355,7.263013610825885
2.408026755852843,7.115600567793241
2.4280936454849495,6.9619934098365714
2.4481605351170566,6.802401542087802
2.468227424749164,6.637048249411537
2.4882943143812706,6.4661717796676355
2.508361204013378,6.290026682563321
2.5284280936454846,6.108885468143594
2.548494983277592,5.923040666774941
2.568561872909699,5.732807395758426
2.5886287625418056,5.538526568255144
2.608695652173913,5.340568920395263
2.6287625418060196,5.13934008538448
2.648829431438127,4.935287013120286
2.668896321070234,4.728906125252032
2.688963210702341,4.520753714541006
2.709030100334448,4.3114592496515405
2.7290969899665547,4.101742435999531
2.749163879598662,3.892435107019331
2.769230769230769,3.6845092577559417
2.789297658862876,3.479112724435833
2.809364548494983,3.277614018643329
2.82943143812709,3.081657344347564
2.849498327759197,2.8932272810422313
2.869565217391304,2.714718990406153
2.8896321070234112,2.5490025721337157
2.9096989966555182,2.3994577352023203
2.9297658862876252,2.269937348378332
2.9498327759197323,2.164601815741846
2.9698996655518393,2.0875685854298265
2.9899665551839463,2.0423706505216765
3.0100334448160533,2.0313266094134876
3.0301003344481603,2.0550409942749157
3.0501672240802673,2.1122630721943003
3.0702341137123748,2.2001758914028953
3.0903010033444813,2.3149717351159405
3.1103678929765888,2.4524701830629394
3.1304347826086953,2.6085959935653618
3.1505016722408024,2.7796586353289707
3.1705685618729094,2.9624644147337706
3.1906354515050164,3.1543215752643876
3.210702341137124,3.352991358395194
3.2307692307692304,3.5566197180287964
3.250836120401338,3.7636683741692223
3.270903010033445,3.9728534587436544
3.2909698996655514,4.183094272979809
3.311036789297659,4.393471947623861
3.3311036789297654,4.603196724824395
3.351170568561873,4.8115823223875696
3.3712374581939795,5.018025936363173
3.391304347826087,5.221992656215178
3.411371237458194,5.423003303084558
3.4314381270903005,5.620624913839936
3.451505016722408,5.814463269307157
3.471571906354515,6.0041570045595
3.491638795986622,6.189372947364676
3.511705685618729,6.369802413778142
3.531772575250836,6.545158252962851
3.551839464882943,6.71517248121721
3.5719063545150496,6.879594381566828
3.591973244147157,7.038188972947706
3.612040133779264,7.190735774124444
3.632107023411371,7.337027803661641
3.652173913043478,7.47687076971057
3.672240802675585,7.610082412991555
3.692307692307692,7.736491973824173
3.712374581939799,7.855939759890773
3.732441471571906,7.968276795996687
3.752508361204013,8.073364540702586
3.7725752508361197,8.171074657569122
3.7926421404682276,8.261288831038739
3.8127090301003346,8.343898618812
3.832775919732441,8.418805334053767
3.852842809364548,8.48591995196449
3.872909698996655,8.545163036232138
3.8929765886287626,8.596464681687431
3.9130434782608696,8.639764470155077
3.933110367892976,8.675011437055247
3.953177257525083,8.702164046785873
3.9732441471571907,8.721190175325821
3.9933110367892977,8.732067098856813
4.013377926421405,8.734781487521076
4.033444816053511,8.729329403722275
4.053511705685618,8.715716304650217
4.073578595317726,8.69395704897141
4.093645484949833,8.664075907889002
4.113712374581939,8.626106581041983
4.133779264214047,8.580092217995604
4.153846153846153,8.526085446380238
4.173913043478261,8.464148408075413
4.193979933110368,8.394352805220723
4.214046822742475,8.316779958280144
4.234113712374581,8.23152087890756
4.254180602006689,8.138676360979904
4.274247491638796,8.038357093906107
4.294314381270903,7.930683803217697
4.314381270903009,7.8157874245409795
4.334448160535117,7.693809318394503
4.354515050167224,7.5649015349152755
4.374581939799331,7.429227139680775
4.394648829431437,7.2869606143726005
4.414715719063545,7.138288349269097
4.434782608695651,6.983409248649885
4.454849498327759,6.822535475397593
4.474916387959866,6.655893367724121
4.494983277591973,6.4837245694729155
4.5150501672240795,6.3062874264412425
4.535117056856188,6.123858715411238
4.555183946488294,5.936735791118283
4.575250836120401,5.7452392606137925
4.595317725752508,5.54971632624584
4.615384615384615,5.350544980230164
4.635451505016722,5.148139288699419
4.655518394648829,4.942956075261649
4.6755852842809364,4.735503408440764
4.695652173913043,4.526351419558144
4.71571906354515,4.316146133051136
4.735785953177258,4.105627182677588
4.7558528428093645,3.895650509127244
4.775919732441471,3.687217361880975
4.795986622073578,3.481511091539754
4.816053511705686,3.2799431597768
4.8361204013377925,3.0842091841809687
4.856187290969899,2.896354050822811
4.8762541806020065,2.7188411023286583
4.896321070234113,2.5546126112197216
4.916387959866221,2.4071157259060807
4.936454849498328,2.2802505204354415
4.956521739130435,2.1781820726419516
4.976588628762541,2.1049659743197
4.996655518394649,2.0639934932043587
5.016722408026756,2.0573740922956927
5.036789297658863,2.08547848128021
5.056856187290969,2.1468534645432955
5.076923076923077,2.23855153731066
5.096989966555184,2.3567146300244617
5.117056856187291,2.497174173476039
5.137123745819398,2.6559019484541455
5.157190635451505,2.8292668316658007
5.177257525083611,3.0141328804616827
5.197324414715719,3.2078579528470157
5.217391304347826,3.4082430303695754
5.237458193979933,3.6134645509861625
5.257525083612039,3.822006961679893
5.277591973244148,4.032602993635901
5.297658862876254,4.244183866450593
5.317725752508361,4.455839122484534
5.337792642140468,4.666784817686912
5.357859531772575,4.876338571404984
5.377926421404682,5.083900078741465
5.397993311036789,5.2889359021132
5.418060200668896,5.49096758670584
5.438127090301003,5.689562348736953
5.458193979933109,5.884325754481108
5.478260869565218,6.074895942317642
5.498327759197324,6.260939044383461
5.518394648829431,6.442145544442448
5.538461538461538,6.618227369589329
5.558528428093646,6.788915559798913
5.578595317725752,6.953958394616012
5.598662207357859,7.11311988316577
5.618729096989966,7.266178544210166
5.638795986622073,7.412926418737016
5.65886287625418,7.553168269709797
5.678929765886288,7.686720933004531
5.698996655518394,7.813412790869231
5.719063545150501,7.933083344955119
5.739130434782608,8.0455828704582
5.759197324414716,8.150772136455945
5.7792642140468224,8.24852218033919
5.799331103678929,8.338714126487762
5.8193979933110365,8.421239041142867
5.839464882943144,8.495997816887163
5.8595317725752505,8.562901081327668
5.879598662207358,8.621869125545865
5.8996655518394645,8.672831848678188
5.919732441471571,8.715728715654153
5.9397993311036785,8.750508725677138
5.959866220735786,8.77713038950673
5.9799331103678925,8.795561714010002
5.999999999999999,8.805780192806878
6.020066889632107,8.807772802155101
6.040133779264214,8.80153600151319
6.060200668896321,8.787075738495286
6.080267558528428,8.764407458198642
6.100334448160535,8.733556117150345
6.120401337792642,8.694556202393823
6.1404682274247495,8.64745175652577
6.160535117056856,8.592296409809833
6.180602006688963,8.529153420845242
6.200668896321069,8.45809572766909
6.2207357859531776,8.379206011634027
6.240802675585284,8.29257677694738
6.260869565217391,8.19831044940383
6.280936454849498,8.096519498619982
6.301003344481605,7.98732658901837
6.321070234113712,7.870864765954856
6.341137123745819,7.747277684791211
6.361204013377926,7.616719892454933
6.381270903010033,7.479357173191867
6.40133779264214,7.335366972922164
6.421404682274248,7.1849389200099125
6.441471571906354,7.028275464552913
6.461538461538461,6.86559266375569
6.481605351170568,6.697121147914666
6.501672240802676,6.523107310481342
6.521739130434782,6.343814777190318
6.54180602006689,6.1595262241593085
6.561872909698996,5.970545634273267
6.581939799331103,5.777201106496633
6.60200668896321,5.579848365925568
6.622073578595318,5.378875165901662
6.642140468227424,5.174706830599284
6.662207357859531,4.96781326124885
6.682274247491639,4.758717826462997
6.702341137123746,4.548008682343962
6.722408026755852,4.336353225830125
6.742474916387959,4.124516576209973
6.762541806020066,3.91338519612482
6.782608695652174,3.7039969727732562
6.80267558528428,3.4975792010892137
6.822742474916388,3.295595763649433
6.842809364548494,3.0998040246163208
6.862876254180601,2.912319877253899
6.882943143812709,2.735684900682248
6.903010033444816,2.5729211941133068
6.9230769230769225,2.4275459907723413
6.94314381270903,2.3035010839022365
6.963210702341137,2.2049401873886305
6.983277591973244,2.1358309324210842
7.0033444816053505,2.0993920934108816
7.023411371237458,2.097498114665785
7.0434782608695645,2.130273644779958
7.063545150501672,2.1960666598710192
7.083612040133779,2.2918134098599605
7.103678929765886,2.4136223846649765
7.123745819397993,2.5573504124910524
7.143812709030099,2.7190242306835493
7.1638795986622075,2.895074854135237
7.183946488294314,3.0824230735349745
7.204013377926421,3.2784730793709005
7.224080267558528,3.481061173149321
7.2441471571906355,3.688389453103918
7.264214046822742,3.898960295618403
7.2842809364548495,4.111518485809601
7.304347826086956,4.3250029697902175
7.324414715719063,4.538507892905076
7.34448160535117,4.751251691067649
7.364548494983278,4.962552799236602
7.384615384615384,5.17181063938218
7.404682274247491,5.378490753046112
7.424749163879598,5.582113160437628
7.444816053511706,5.782243222563708
7.464882943143812,5.978484444352323
7.48494983277592,6.170472785367521
7.505016722408026,6.357872144912216
7.525083612040134,6.540370765386172
7.545150501672239,6.717678356669853
7.565217391304348,6.889523789207768
7.585284280936455,7.055653237694761
7.605351170568561,7.215828683406781
7.625418060200669,7.369826703233782
7.645484949832775,7.517437488856318
7.665551839464882,7.658464051381176
7.685618729096991,7.792721575956872
7.705685618729096,7.920036898061556
7.725752508361204,8.040248078770752
7.74581939799331,8.153204060730317
7.765886287625418,8.25876439005483
7.785953177257525,8.356798992150251
7.806020066889631,8.447187991681204
7.826086956521739,8.52982156868927
7.846153846153847,8.60459984431267
7.866220735785952,8.671432790733283
7.88628762541806,8.730240160939417
7.906354515050166,8.780951434688223
7.926421404682274,8.823505777713287
7.946488294314381,8.857852011780428
7.966555183946488,8.883948593668977
7.986622073578595,8.901763601565957
8.006688963210701,8.911274727721096
8.02675585284281,8.912469276534155
8.046822742474916,8.905344167543669
8.066889632107022,8.889905943067012
8.08695652173913,8.866170780515183
8.107023411371236,8.83416450967958
8.127090301003344,8.793922635571498
8.147157190635452,8.7454903676965
8.167224080267557,8.688922656975247
8.187290969899665,8.624284241890702
8.207357859531772,8.551649705861651
8.227424749163879,8.471103548329927
8.247491638795987,8.382740272621346
8.267558528428093,8.28666449432251
8.2876254180602,8.182991074734357
8.307692307692307,8.071845284956089
8.327759197324415,7.95336300736445
8.347826086956522,7.8276909827421
8.367892976588628,7.694987113149155
8.387959866220736,7.555420832920649
8.408026755852843,7.409173563033507
8.42809364548495,7.256439267682812
8.448160535117056,7.097425136449987
8.468227424749163,6.932352421214139
8.488294314381271,6.761457464318582
8.508361204013378,6.584992963942758
8.528428093645484,6.403229534787365
8.548494983277592,6.216457637909749
8.568561872909697,6.024989973976911
8.588628762541806,5.829164460829792
8.608695652173914,5.629347951040582
8.628762541806019,5.425940890653951
8.648829431438127,5.219383179801869
8.668896321070234,5.010161573412107
8.68896321070234,4.798819060499569
8.709030100334449,4.585966788384376
8.729096989966555,4.37229925714588
8.749163879598662,4.158613698472599
8.769230769230768,3.9458347584473183
8.789297658862875,3.735045785212035
8.809364548494983,3.5275280832720832
8.82943143812709,3.324809231147464
8.849498327759196,3.1287205674694225
8.869565217391303,2.941461516542679
8.889632107023411,2.765663419138156
8.909698996655518,2.604436553759785
8.929765886287624,2.461370311230407
8.949832775919733,2.3404404751883146
8.96989966555184,2.245769472388242
8.989966555183946,2.181206061889111
9.010033444816054,2.1497612400011255
9.030100334448159,2.153045207046121
9.050167224080267,2.190922002224459
9.070234113712376,2.2615423380295985
9.09030100334448,2.361738290689347
9.110367892976589,2.487599758848701
9.130434782608695,2.635021179496835
9.150501672240802,2.8000918078112917
9.17056856187291,2.9793079702700074
9.190635451505017,3.169647116249152
9.210702341137123,3.368557630775608
9.23076923076923,3.573907855804562
9.250836120401337,3.7839217527639537
9.270903010033445,3.9971156991166876
9.290969899665551,4.212242695927285
9.311036789297658,4.428245784037546
9.331103678929765,4.644220337711332
9.351170568561873,4.859384070651812
9.37123745819398,5.073053396790928
9.391304347826086,5.284624877158837
9.411371237458194,5.493560672352758
9.4314381270903,5.699377123172137
9.451505016722408,5.901635765319424
9.471571906354516,6.099936237022452
9.49163879598662,6.293910660874088
9.511705685618729,6.483219176959213
9.531772575250837,6.667546378295636
9.551839464882942,6.8465984563401845
9.57190635451505,7.020100907695672
9.591973244147155,7.1877966863278395
9.612040133779264,7.349444711004066
9.632107023411372,7.5048186571697
9.652173913043477,7.653705977505328
9.672240802675585,7.795907107032654
9.692307692307692,7.93123481766903
9.712374581939798,8.059513694181037
9.732441471571907,8.180579709018044
9.752508361204013,8.294279877866368
9.77257525083612,8.40047198121886
9.792642140468226,8.499024340006201
9.812709030100335,8.589815635538903
9.832775919732441,8.672734765783273
9.852842809364548,8.747680731431162
9.872909698996656,8.814562546394455
9.89297658862876,8.87329916831653
9.91304347826087,8.92381944548779
9.933110367892976,8.966062077215959
9.953177257525082,8.9999755852614
9.97324414715719,9.025518294425606
9.993311036789297,9.042658320795127
10.013377926421404,9.051373566509056
10.033444816053512,9.051651720247339
10.053511705685617,9.043490262941777
10.073578595317725,9.02689647850051
10.093645484949834,9.001887469619211
10.113712374581938,8.968490179037104
10.133779264214047,8.926741416892098
10.153846153846153,8.876687895145452
10.17391304347826,8.81838627039389
10.193979933110368,8.751903196776244
10.214046822742475,8.677315391127278
10.234113712374581,8.594709713049017
10.254180602006688,8.504183263179618
10.274247491638796,8.405843503666391
10.294314381270903,8.29980840572304
10.31438127090301,8.186206630210455
10.334448160535118,8.065177748474017
10.354515050167223,7.93687251225992
10.37458193979933,7.801453183499203
10.394648829431437,7.65909393719205
10.414715719063544,7.509981353680626
10.434782608695652,7.354315020437604
10.454849498327757,7.192308268345912
10.474916387959865,7.024189073597769
10.494983277591974,6.850201164186157
10.515050167224079,6.670605380011696
10.535117056856187,6.485681348557496
10.555183946488295,6.2957295547877745
10.5752508361204,6.101073905580252
10.595317725752508,5.902064917156338
10.615384615384615,5.6990836906464395
10.635451505016722,5.49254688871755
10.65551839464883,5.28291298835833
10.675585284280936,5.070690165390373
10.695652173913043,4.856446269418412
10.71571906354515,4.6408214777988555
10.735785953177256,4.424544375654388
10.755852842809364,4.208452391489681
10.775919732441471,3.993517705035338
10.795986622073578,3.780879883915134
10.816053511705684,3.5718864828482655
10.836120401337793,3.3681424176461685
10.856187290969899,3.1715676632054244
10.876254180602006,2.984459961616186
10.896321070234114,2.8095536390768525
10.916387959866219,2.6500560885552416
10.936454849498327,2.5096297838955963
10.956521739130435,2.392273483554148
10.97658862876254,2.3020531756307845
10.996655518394649,2.242661712300213
