Frequency (Hz),Amplitude
0.0,4.672315727154697
0.01978021978021978,4.670443763751709
0.03956043956043956,4.6648307273531575
0.05934065934065934,4.655485184842439
0.07912087912087912,4.642421432646183
0.0989010989010989,4.625659524566311
0.11868131868131868,4.605225311554248
0.13846153846153844,4.581150494256059
0.15824175824175823,4.55347268942175
0.17802197802197803,4.522235511558655
0.1978021978021978,4.487488671522473
0.21758241758241756,4.449288094086862
0.23736263736263735,4.407696056920225
0.2571428571428572,4.36278135383253
0.2769230769230769,4.314619485645712
0.2967032967032967,4.263292882593647
0.31648351648351647,4.208891162782891
0.3362637362637363,4.151511431949678
0.35604395604395606,4.091258630540344
0.3758241758241758,4.028245935026034
0.3956043956043956,3.9625952213406683
0.4153846153846154,3.8944375993978775
0.4351648351648351,3.8239140287850266
0.45494505494505494,3.7511760269186594
0.4747252747252747,3.6763864821231573
0.4945054945054945,3.5997205851738965
0.5142857142857143,3.521366893687689
0.5340659340659341,3.441528544133586
0.5538461538461538,3.360424625859245
0.5736263736263736,3.278291729920899
0.5934065934065934,3.1953856820133906
0.6131868131868132,3.1119834625066036
0.6329670329670329,3.028385306265442
0.6527472527472528,2.944916958925059
0.6725274725274726,2.86193204253404
0.6923076923076923,2.7798144494722554
0.7120879120879121,2.698980636548687
0.7318681318681318,2.619881628605297
0.7516483516483516,2.543004461216613
0.7714285714285715,2.4688726960648752
0.7912087912087912,2.3980455358735413
0.810989010989011,2.331114961701709
0.8307692307692308,2.2687002382617156
0.8505494505494506,2.211439120328013
0.8703296703296702,2.159975194830874
0.8901098901098901,2.1149410619588753
0.9098901098901099,2.0769375323026056
0.9296703296703297,2.0465096893723493
0.9494505494505494,2.0241214565043744
0.9692307692307692,2.0101310439856213
0.989010989010989,2.0047701018484183
1.0087912087912088,2.0081293430162015
1.0285714285714287,2.0201527237835286
1.0483516483516484,2.040641066018121
1.0681318681318681,2.0692645672597227
1.087912087912088,2.1055823551707653
1.1076923076923075,2.149066425487817
1.1274725274725275,2.1991271000874897
1.1472527472527472,2.255137488984072
1.1670329670329669,2.316455131549476
1.1868131868131868,2.3824397878207106
1.2065934065934065,2.4524670610836585
1.2263736263736265,2.5259380560795694
1.2461538461538462,2.6022855917326204
1.2659340659340659,2.680977623504836
1.2857142857142858,2.761518539935215
1.3054945054945055,2.8434489321009724
1.3252747252747252,2.9263443343755515
1.3450549450549452,3.009813327265736
1.3648351648351649,3.093495293889811
1.3846153846153846,3.1770580379141653
1.4043956043956045,3.2601954042538956
1.4241758241758242,3.342624993406475
1.443956043956044,3.4240860234858075
1.4637362637362636,3.5043373680993404
1.4835164835164834,3.5831557805881906
1.5032967032967033,3.6603343036509033
1.523076923076923,3.735680856256299
1.542857142857143,3.8090169856938267
1.5626373626373626,3.8801767706251704
1.5824175824175823,3.9490058603809226
1.6021978021978023,4.015360635986762
1.621978021978022,4.079107479160668
1.6417582417582417,4.140122136559488
1.6615384615384616,4.1982891677160525
1.6813186813186813,4.25350146629748
1.7010989010989013,4.30565984547008
1.720879120879121,4.354672679242234
1.7406593406593405,4.4004555926554545
1.7604395604395604,4.4429311945992875
1.7802197802197801,4.482028847838151
1.7999999999999998,4.517684471562246
1.8197802197802198,4.549840372417014
1.8395604395604395,4.578445100534786
1.8593406593406594,4.603453327595854
1.879120879120879,4.624825744393277
1.8989010989010988,4.642528975773392
1.9186813186813187,4.6565355111801345
1.9384615384615385,4.666823649352197
1.9582417582417584,4.673377456014575
1.978021978021978,4.676186733675177
1.9978021978021978,4.6752470028891056
2.0175824175824175,4.67055949459209
2.0373626373626372,4.662131153335985
2.0571428571428574,4.649974651487084
2.076923076923077,4.6341084146772324
2.096703296703297,4.6145566590329095
2.1164835164835165,4.591349440952982
2.1362637362637362,4.5645227204669645
2.1560439560439564,4.534118439487254
2.175824175824176,4.500184616576907
2.195604395604396,4.462775460194633
2.215384615384615,4.421951502758183
2.2351648351648348,4.377779758292249
2.254945054945055,4.330333906906697
2.2747252747252746,4.279694509891719
2.2945054945054943,4.22594925982895
2.314285714285714,4.169193270808292
2.3340659340659338,4.109529414618813
2.353846153846154,4.047068709653422
2.3736263736263736,3.9819307702354445
2.3934065934065933,3.914244325137835
2.413186813186813,3.844147815211755
2.4329670329670328,3.771790081246179
2.452747252747253,3.6973311543966134
2.4725274725274726,3.6209431626725728
2.4923076923076923,3.542811367933932
2.512087912087912,3.463135348423881
2.5318681318681318,3.382130341772736
2.5516483516483515,3.300028762218755
2.5714285714285716,3.2170819029044884
2.5912087912087913,3.1335618286679767
2.610989010989011,3.0497634555914237
2.6307692307692307,2.9660067991398686
2.6505494505494505,2.882639351018363
2.6703296703296706,2.800038513449157
2.6901098901098903,2.7186139756378593
2.70989010989011,2.6388098579858874
2.7296703296703297,2.5611063730718073
2.7494505494505495,2.4860206585580813
2.769230769230769,2.414106330088483
2.7890109890109893,2.3459511930630343
2.808791208791209,2.2821724625079436
2.8285714285714287,2.2234088049935186
2.8483516483516484,2.1703085838616634
2.8681318681318677,2.123513913963861
2.887912087912088,2.0836405601954295
2.9076923076923076,2.0512543537791146
2.9274725274725273,2.0268455902343376
2.947252747252747,2.010803660973886
2.9670329670329667,2.00339472679645
2.986813186813187,2.004745324218561
3.0065934065934066,2.0148342557670476
3.0263736263736263,2.0334939942090813
3.046153846153846,2.0604213830199094
3.0659340659340657,2.0951960267131886
3.085714285714286,2.1373037963673074
3.1054945054945056,2.1861625237215656
3.1252747252747253,2.2411472002022905
3.145054945054945,2.3016126473876084
3.1648351648351647,2.366912434702383
3.184615384615385,2.4364135772918862
3.2043956043956046,2.5095071271063536
3.2241758241758243,2.5856151355478807
3.243956043956044,2.664194639236681
3.2637362637362637,2.744739352204098
3.2835164835164834,2.826779692308783
3.3032967032967036,2.9098816714475597
3.3230769230769233,2.993645068990229
3.342857142857143,3.077701203979425
3.3626373626373627,3.1617105327328026
3.3824175824175824,3.245360227203916
3.4021978021978025,3.328361835020474
3.4219780219780223,3.4104490821681597
3.441758241758242,3.491375850996564
3.4615384615384617,3.5709143468885247
3.481318681318681,3.648853454234259
3.501098901098901,3.7249972744226048
3.520879120879121,3.799163833970412
3.5406593406593405,3.871183948591461
3.5604395604395602,3.9409002281871794
3.58021978021978,4.008166207876254
3.5999999999999996,4.072845590890033
3.61978021978022,4.134811590189921
3.6395604395604395,4.193946356839667
3.659340659340659,4.250140484382487
3.679120879120879,4.303292579661228
3.6989010989010986,4.353308891641051
3.718681318681319,4.400102990827718
3.7384615384615385,4.44359549281329
3.758241758241758,4.483713820322812
3.7780219780219784,4.520391998886973
3.7978021978021976,4.5535704819314144
3.8175824175824173,4.583196001663354
3.8373626373626375,4.60922144265744
3.8571428571428568,4.631605735505043
3.876923076923077,4.650313768301681
3.896703296703296,4.665316314114217
3.916483516483517,4.67658997289936
3.936263736263736,4.684117126644516
3.956043956043956,4.687885906777322
3.9758241758241755,4.687890173146009
3.9956043956043956,4.684129504115587
4.015384615384615,4.6766091975574575
4.035164835164835,4.665340282739661
4.054945054945055,4.650339543353896
4.0747252747252745,4.631629552149731
4.094505494505494,4.6092387178901655
4.114285714285715,4.5832013456009495
4.134065934065934,4.55355771136401
4.153846153846154,4.520354153208758
4.173626373626373,4.483643179989638
4.193406593406594,4.443483600511063
4.213186813186813,4.399940675579022
4.232967032967033,4.353086296129655
4.252747252747253,4.302999191118306
4.2725274725274724,4.2497651694555305
4.292307692307692,4.1934774009601625
4.312087912087913,4.134236742070574
4.331868131868132,4.072152112923613
4.351648351648352,4.007340933378934
4.371428571428571,3.939929626638301
4.391208791208792,3.870054200274923
4.410989010989011,3.7978609157302854
4.43076923076923,3.7235070586160828
4.450549450549451,3.6471618234104803
4.4703296703296695,3.569007327251751
4.49010989010989,3.489239768337548
4.50989010989011,3.408070744674445
4.52967032967033,3.3257287482046056
4.549450549450549,3.2424608471055993
4.569230769230769,3.158534564522769
4.589010989010989,3.0742399540509355
4.608791208791209,2.9898918594469213
4.628571428571428,2.9058323263835595
4.648351648351649,2.8224331051173746
4.6681318681318675,2.740098141882895
4.687912087912088,2.6592659006350248
4.707692307692308,2.580411282875966
4.7274725274725276,2.5040468207722584
4.747252747252747,2.430722710181843
4.767032967032967,2.3610251345443136
4.786813186813187,2.2955722267811565
4.806593406593407,2.2350069567632667
4.826373626373626,2.17998626359134
4.846153846153847,2.1311659323746808
4.8659340659340655,2.0891810982239534
4.885714285714286,2.0546228697557694
4.905494505494506,2.028012359920864
4.9252747252747255,2.0097742594925623
4.945054945054945,2.000212762552406
4.964835164835165,1.9994928910026308
4.984615384615385,2.0076298715044265
5.004395604395604,2.024488179013424
5.024175824175824,2.049790393669585
5.043956043956045,2.0831345104868126
5.0637362637362635,2.1240171988104293
5.083516483516483,2.1718599882587064
5.103296703296703,2.226035487895957
5.123076923076923,2.2858913567753354
5.142857142857143,2.350770577710048
5.162637362637362,2.420027403951324
5.182417582417583,2.4930389979650998
5.2021978021978015,2.5692132063255158
5.221978021978022,2.647993129465707
5.241758241758242,2.7288592001826766
5.2615384615384615,2.81132943852289
5.281318681318681,2.894958452490986
5.301098901098901,2.9793356390078185
5.320879120879121,3.0640829288940936
5.340659340659341,3.1488523239211568
5.36043956043956,3.2333233966953925
5.380219780219781,3.3172008648725995
5.3999999999999995,3.400212307573464
5.41978021978022,3.4821060609112675
5.43956043956044,3.5626493083436475
5.4593406593406595,3.641626367607147
5.479120879120879,3.7188371672543488
5.498901098901099,3.7940959007248636
5.518681318681319,3.8672298432779204
5.538461538461538,3.938078316152143
5.558241758241758,4.006491782400782
5.578021978021979,4.072331059563755
5.5978021978021975,4.1354666354020315
5.617582417582418,4.195778074149049
5.637362637362637,4.25315350200926
5.6571428571428575,4.307489161881915
5.676923076923077,4.358689028466542
5.696703296703297,4.406664475992732
5.716483516483517,4.451333991802046
5.736263736263735,4.492622929894227
5.756043956043956,4.530463299336382
5.775824175824176,4.564793583131481
5.795604395604395,4.595558583758799
5.815384615384615,4.622709292142754
5.835164835164835,4.6462027772881624
5.854945054945055,4.666002094246359
5.874725274725275,4.682076208456644
5.894505494505494,4.6943999348486445
5.914285714285715,4.702953890399287
5.934065934065933,4.707724459120646
5.953846153846154,4.708703768716343
5.973626373626374,4.705889678390572
5.993406593406593,4.6992857775303225
6.013186813186813,4.688901395211529
6.032967032967033,4.674751620710349
6.052747252747253,4.656857335434391
6.072527472527473,4.635245256931131
6.092307692307692,4.609947995887172
6.112087912087913,4.5810041273067945
6.131868131868131,4.548458277358093
6.151648351648352,4.512361227704976
6.171428571428572,4.472770039511494
6.191208791208791,4.4297481997170305
6.210989010989011,4.38336579264705
6.230769230769231,4.333699700550963
6.2505494505494505,4.280833837257689
6.270329670329671,4.224859419819232
6.29010989010989,4.165875283783669
6.309890109890111,4.103988248610515
6.329670329670329,4.039313540720992
6.349450549450549,3.9719752827677492
6.36923076923077,3.902107058910323
6.3890109890109885,3.829852567182263
6.408791208791209,3.755366371404104
6.428571428571428,3.678814766479286
6.4483516483516485,3.600376772215806
6.468131868131868,3.520245271895898
6.487912087912088,3.438628312439395
6.507692307692308,3.3557505828265133
6.527472527472527,3.271855085951732
6.547252747252747,3.1872050155355662
6.567032967032967,3.1020858430901663
6.5868131868131865,3.016807608792974
6.606593406593407,2.9317073925722785
6.626373626373626,2.847151915314836
6.6461538461538465,2.7635401819119596
6.665934065934065,2.681306024568773
6.685714285714286,2.6009203332615627
6.705494505494506,2.522892668449823
6.725274725274725,2.4477718400815007
6.745054945054945,2.376144913238718
6.764835164835165,2.3086339805960074
6.7846153846153845,2.245889954928612
6.804395604395605,2.1885826272376656
6.824175824175824,2.1373863679527334
6.8439560439560445,2.092961183296865
6.863736263736263,2.0559294175499288
6.883516483516484,2.0268491971723726
6.903296703296704,2.0061866314708503
6.923076923076923,1.9942895960495246
6.942857142857143,1.9913663429963688
6.962637362637362,1.9974719566054095
6.9824175824175825,2.0125047253476276
7.002197802197802,2.0362130022488567
7.021978021978022,2.068211468579419
7.041758241758242,2.1080043581117245
7.061538461538461,2.155012474802698
7.081318681318681,2.208600834733243
7.101098901098901,2.2681043366191576
7.1208791208791204,2.3328497392366705
7.140659340659341,2.4021731247447957
7.16043956043956,2.475432766435754
7.1802197802197805,2.552017818418324
7.199999999999999,2.6313535087251005
7.21978021978022,2.7129035980192007
7.23956043956044,2.7961708275942994
7.259340659340659,2.8806959790657607
7.279120879120879,2.966056044726107
7.298901098901099,3.0518618869451677
7.318681318681318,3.1377556599032785
7.338461538461539,3.2234081818429376
7.358241758241758,3.3085163806869913
7.3780219780219785,3.392800887802407
7.397802197802197,3.4760038206237054
7.417582417582418,3.5578867715745828
7.437362637362638,3.638229005447846
7.457142857142857,3.7168258578674305
7.476923076923077,3.7934873219262975
7.496703296703297,3.8680368072822904
7.516483516483516,3.9403100549702685
7.536263736263736,4.010154191296295
7.556043956043957,4.0774269049667655
7.575824175824176,4.141995732765577
7.595604395604395,4.203737440425843
7.615384615384615,4.262537486720302
7.635164835164835,4.3182895601381945
7.654945054945055,4.370895178780944
7.674725274725275,4.42026334527144
7.694505494505494,4.466310249523501
7.7142857142857135,4.508959013158906
7.734065934065935,4.548139470195114
7.753846153846154,4.583787979365136
7.7736263736263735,4.61584726408194
7.793406593406592,4.644266276632671
7.813186813186814,4.669000083693566
7.832967032967034,4.6900097707028126
7.852747252747252,4.707262363025164
7.872527472527472,4.720730762196483
7.892307692307693,4.73039369585589
7.912087912087912,4.736235680263641
7.931868131868132,4.738246994571861
7.951648351648351,4.736423666266336
7.971428571428572,4.7307674674376035
7.991208791208791,4.721285921772748
8.010989010989011,4.707992322390249
8.03076923076923,4.690905760874587
8.05054945054945,4.670051168108749
8.07032967032967,4.6454593677576295
8.09010989010989,4.6171671435278
8.10989010989011,4.5852173216256205
8.129670329670331,4.549658870162814
8.149450549450549,4.510547017621689
8.169230769230769,4.467943392901663
8.189010989010988,4.421916189929678
8.20879120879121,4.372540360342055
8.22857142857143,4.319897838342148
8.248351648351647,4.264077802519134
8.268131868131867,4.205176980189397
8.287912087912087,4.143300000704407
8.307692307692308,4.078559805169382
8.327472527472528,4.011078121141437
8.347252747252746,3.940986012130462
8.367032967032966,3.868424513103727
8.386813186813187,3.7935453646788426
8.406593406593407,3.7165118602396934
8.426373626373627,3.6374998217522645
8.446153846153845,3.556698721469626
8.465934065934066,3.4743129677997775
8.485714285714286,3.390563374061695
8.505494505494505,3.3056888282142785
8.525274725274725,3.219948179235544
8.545054945054945,3.1336223506855347
8.564835164835165,3.047016682746937
8.584615384615384,2.960463488845193
8.604395604395604,2.874324789357274
8.624175824175826,2.7889951498378225
8.643956043956043,2.7049045009880603
8.663736263736263,2.6225207484370348
8.683516483516483,2.5423518891136787
8.703296703296704,2.4649472366332965
8.723076923076924,2.390897224718556
8.742857142857142,2.320831118113215
8.762637362637362,2.2554118413392312
8.782417582417583,2.1953270816606496
8.802197802197803,2.14127589712097
8.821978021978023,2.0939503374372754
8.84175824175824,2.0540121267411555
8.86153846153846,2.022065273576013
8.881318681318682,1.9986264788221684
8.901098901098901,1.9840961938319486
8.920879120879121,1.978733824606791
8.940659340659339,1.9826405669042586
8.96043956043956,1.995752525941348
8.98021978021978,2.0178452339557524
9.0,2.048548822773706
9.01978021978022,2.0873714651705133
9.03956043956044,2.133727704911647
9.05934065934066,2.186968123536291
9.079120879120879,2.246407324850856
9.098901098901099,2.3113481570986325
9.11868131868132,2.381101112953816
9.138461538461538,2.454998711824656
9.158241758241758,2.532405266860395
9.178021978021977,2.612722765392034
9.197802197802199,2.695393701319237
9.217582417582419,2.7799016648578543
9.237362637362637,2.86577038548618
9.257142857142856,2.952561786369679
9.276923076923078,3.039873472929515
9.296703296703297,3.127335959799211
9.316483516483517,3.2146098446500244
9.336263736263735,3.3013830640921618
9.356043956043957,3.3873683132104575
9.375824175824176,3.4723006725007495
9.395604395604396,3.5559354603367375
9.415384615384616,3.6380463124171554
9.435164835164835,3.718423479349811
9.454945054945055,3.7968723276593925
9.474725274725275,3.873212026610996
9.494505494505495,3.9472744022835955
9.514285714285714,4.01890294058035
9.534065934065934,4.087951921829038
9.553846153846154,4.154285670974462
9.573626373626373,4.217777908878306
9.593406593406593,4.278311191785441
9.613186813186815,4.335776427506286
9.632967032967032,4.390072458257925
9.652747252747252,4.44110570137863
9.672527472527472,4.4887898402758175
9.692307692307693,4.533045558986543
9.712087912087913,4.573800314631279
9.731868131868131,4.610988142834339
9.75164835164835,4.644549491880878
9.771428571428572,4.674431081990508
9.791208791208792,4.700585786624132
9.810989010989012,4.72297253321185
9.83076923076923,4.741556221107481
9.850549450549451,4.756307654945794
9.87032967032967,4.767203491911555
9.89010989010989,4.7742262017309
9.90989010989011,4.777364038472219
9.92967032967033,4.776611023501469
9.94945054945055,4.771966939181363
9.96923076923077,4.763437333139672
9.989010989010989,4.751033533165001
10.008791208791209,4.73477267302261
10.028571428571428,4.7146777297244915
10.048351648351648,4.6907775730404255
10.068131868131868,4.663107028307837
10.08791208791209,4.631706953891247
10.107692307692307,4.596624334966135
10.127472527472527,4.55791239566198
10.147252747252747,4.515630732004411
10.167032967032966,4.469845468555562
10.186813186813188,4.420629442174469
10.206593406593406,4.368062416916957
10.226373626373626,4.312231334779966
10.246153846153845,4.253230607780221
10.265934065934067,4.19116245775792
10.285714285714286,4.12613731132424
10.305494505494504,4.058274258542184
10.325274725274724,3.987701585252227
10.345054945054946,3.914557390433057
10.364835164835165,3.8389903016163442
10.384615384615385,3.7611603031316903
10.404395604395603,3.681239693790931
10.424175824175824,3.5994141924387235
10.443956043956044,3.5158842114380984
10.463736263736264,3.430866319371191
10.483516483516484,3.3445949146173217
10.503296703296703,3.257324130422192
10.523076923076923,3.1693299887026627
10.542857142857143,3.080912812861548
10.562637362637362,2.9923998975130925
10.582417582417584,2.9041484127876314
10.602197802197802,2.8165484895653212
10.621978021978022,2.7300263855689315
10.641758241758241,2.6450475661081545
10.661538461538463,2.5621194428261362
10.681318681318682,2.4817933958636695
10.7010989010989,2.4046655601678038
10.72087912087912,2.3313756939585617
10.740659340659342,2.2626032889757237
10.760439560439561,2.1990599702504765
