Frequency (Hz),Amplitude
0.0,0.6126541527413445
0.019867549668874173,0.6129178722978007
0.039735099337748346,0.6137073326628102
0.059602649006622516,0.6150174646066373
0.07947019867549669,0.6168399040749564
0.09933774834437085,0.619163115924403
0.11920529801324503,0.6219725608646524
0.13907284768211922,0.6252508998237721
0.15894039735099338,0.6289782289629843
0.17880794701986755,0.6331323379784034
0.1986754966887417,0.6376889841427741
0.2185430463576159,0.6426221747292543
0.23841059602649006,0.6479044509661914
0.2582781456953642,0.6535071674238404
0.27814569536423844,0.6594007616517722
0.2980132450331126,0.6655550098909584
0.31788079470198677,0.6719392657066354
0.33774834437086093,0.6785226793689988
0.3576158940397351,0.6852743967049777
0.3774834437086093,0.6921637369266302
0.3973509933774834,0.6991603495952935
0.4172185430463576,0.7062343514008517
0.4370860927152318,0.7133564438279556
0.45695364238410596,0.7204980130562253
0.4768211920529801,0.7276312136145645
0.49668874172185434,0.7347290373970872
0.5165562913907285,0.7417653696666694
0.5364238410596026,0.7487150336376304
0.5562913907284769,0.7555538251557046
0.5761589403973509,0.7622585388937732
0.5960264900662252,0.768806987365632
0.6158940397350993,0.7751780139358702
0.6357615894039735,0.7813515008778021
0.6556291390728477,0.7873083734079016
0.6754966887417219,0.7930306005079517
0.695364238410596,0.7985011932366851
0.7152317880794702,0.8037042011330291
0.7350993377483444,0.80862470722291
0.7549668874172186,0.8132488220618947
0.7748344370860927,0.8175636771755325
0.7947019867549668,0.8215574181983
0.8145695364238411,0.8252191979594576
0.8344370860927152,0.8285391697192327
0.8543046357615894,0.8315084807207495
0.8741721854304636,0.8341192661913479
0.8940397350993378,0.8363646439002463
0.9139072847682119,0.8382387093577567
0.9337748344370861,0.8397365317231371
0.9536423841059603,0.8408541504735714
0.9735099337748344,0.8415885728748513
0.9933774834437087,0.8419377722844548
1.0132450331125828,0.8419006873099165
1.033112582781457,0.8414772218384632
1.0529801324503312,0.8406682459479877
1.0728476821192052,0.839475597703941
1.0927152317880795,0.8379020858412166
1.1125827814569538,0.8359514933240786
1.1324503311258278,0.8336285817704543
1.1523178807947019,0.8309390967188386
1.1721854304635762,0.8278897737061796
1.1920529801324504,0.8244883451130992
1.2119205298013245,0.8207435477175673
1.2317880794701985,0.8166651308800605
1.2516556291390728,0.8122638652602384
1.271523178807947,0.8075515519379862
1.2913907284768211,0.8025410317781382
1.3112582781456954,0.7972461948386594
1.3311258278145695,0.7916819895744721
1.3509933774834437,0.7858644315335824
1.370860927152318,0.7798106111768928
1.390728476821192,0.7735387003778452
1.410596026490066,0.7670679570717963
1.4304635761589404,0.760418727427298
1.4503311258278146,0.7536124448024161
1.4701986754966887,0.7466716246287634
1.4900662251655628,0.739619854235864
1.5099337748344372,0.7324817764902153
1.5298013245033113,0.7252830659808432
1.5496688741721854,0.7180503963408778
1.5695364238410596,0.7108113971595672
1.5894039735099337,0.7035945988198594
1.609271523178808,0.6964293635049089
1.6291390728476822,0.689345800565699
1.6490066225165563,0.6823746644482058
1.6688741721854303,0.6755472334596935
1.6887417218543048,0.6688951678297261
1.7086092715231789,0.6624503458112847
1.728476821192053,0.656244676989099
1.7483443708609272,0.6503098925291784
1.7682119205298013,0.6446773128224946
1.7880794701986755,0.6393775938433283
1.8079470198675496,0.6344404545424672
1.8278145695364238,0.6298943886950895
1.847682119205298,0.625766365772466
1.8675496688741722,0.6220815265398749
1.8874172185430464,0.6188628801177963
1.9072847682119205,0.6161310100892841
1.9271523178807946,0.6139037978017263
1.9470198675496688,0.6121961712111099
1.9668874172185429,0.6110198873892665
1.9867549668874174,0.610383356124583
2.0066225165562916,0.6102915109006367
2.0264900662251657,0.6107457319818019
2.0463576158940397,0.6117438244596576
2.066225165562914,0.613280052041043
2.086092715231788,0.6153452252319147
2.1059602649006623,0.6179268405412136
2.1258278145695364,0.6210092655342668
2.1456953642384105,0.6245739631196953
2.165562913907285,0.6285997474347363
2.185430463576159,0.6330630631356166
2.205298013245033,0.6379382797960681
2.2251655629139075,0.6431979934247052
2.2450331125827816,0.6488133277605748
2.2649006622516556,0.6547542289086731
2.2847682119205297,0.6609897479416947
2.3046357615894038,0.6674883072318019
2.324503311258278,0.6742179474101865
2.3443708609271523,0.6811465529207684
2.364238410596027,0.6882420550929348
2.384105960264901,0.6954726124799151
2.403973509933775,0.7028067688814008
2.423841059602649,0.7102135899912803
2.443708609271523,0.7176627799928355
2.463576158940397,0.7251247796792495
2.4834437086092715,0.7325708478250479
2.5033112582781456,0.7399731275935674
2.52317880794702,0.7473046997553899
2.543046357615894,0.7545396244308673
2.562913907284768,0.76165297297126
2.5827814569536423,0.7686208514706719
2.6026490066225163,0.775420417265363
2.622516556291391,0.7820298896364628
2.642384105960265,0.7884285557923025
2.662251655629139,0.7945967730727006
2.6821192052980134,0.8005159681914409
2.7019867549668874,0.8061686342179194
2.7218543046357615,0.8115383258943396
2.741721854304636,0.816609653791765
2.76158940397351,0.8213682777267945
2.781456953642384,0.8258008997888451
2.801324503311258,0.8298952572674461
2.821192052980132,0.8336401157160125
2.8410596026490067,0.8370252623449127
2.8609271523178808,0.8400414998995596
2.8807947019867552,0.8426806411487517
2.9006622516556293,0.8449355040834605
2.9205298013245033,0.8467999079060569
2.9403973509933774,0.8482686698736112
2.9602649006622515,0.8493376030460653
2.9801324503311255,0.8500035149800373
3.0,0.8502642074011219
3.0198675496688745,0.8501184768814013
3.0397350993377485,0.8495661165441798
3.0596026490066226,0.8486079188139181
3.0794701986754967,0.8472456792256862
3.0993377483443707,0.8454822013051123
3.119205298013245,0.8433213025255328
3.1390728476821192,0.8407678213443398
3.1589403973509933,0.837827625314148
3.1788079470198674,0.8345076202561637
3.198675496688742,0.8308157604725525
3.218543046357616,0.8267610599605846
3.23841059602649,0.822353604573579
3.2582781456953644,0.8176045650511722
3.2781456953642385,0.8125262108130803
3.2980132450331126,0.8071319243754941
3.3178807947019866,0.8014362162063268
3.3377483443708607,0.7954547397832274
3.3576158940397347,0.7892043065556328
3.3774834437086096,0.7827029004371666
3.3973509933774837,0.7759696913665266
3.4172185430463577,0.7690250473719823
3.437086092715232,0.7618905444554053
3.456953642384106,0.7545889734761692
3.47682119205298,0.7471443430619203
3.4966887417218544,0.7395818774041162
3.5165562913907285,0.7319280076113932
3.5364238410596025,0.7242103550979763
3.556291390728477,0.716457705281616
3.576158940397351,0.7086999696642384
3.596026490066225,0.7009681341791534
3.615894039735099,0.6932941915258886
3.6357615894039736,0.6857110550949465
3.6556291390728477,0.6782524520334429
3.6754966887417218,0.670952793042806
3.695364238410596,0.6638470166622578
3.7152317880794703,0.6569704061049029
3.7350993377483444,0.6503583772076206
3.754966887417219,0.64404623675454
3.774834437086093,0.638068911353751
3.794701986754967,0.6324606481884997
3.814569536423841,0.6272546903105568
3.834437086092715,0.6224829306523197
3.854304635761589,0.6181755505371208
3.8741721854304636,0.6143606500663698
3.8940397350993377,0.611063879237059
3.9139072847682117,0.6083080798553502
3.9337748344370858,0.606112949120496
3.9536423841059607,0.6044947360297863
3.9735099337748347,0.6034659814025141
3.993377483443709,0.603035311292092
4.013245033112583,0.6032072918648526
4.033112582781457,0.6039823515547408
4.052980132450331,0.6053567736024417
4.072847682119205,0.6073227591521598
4.0927152317880795,0.6098685581348241
4.112582781456953,0.6129786624386363
4.132450331125828,0.616634053556574
4.152317880794702,0.6208124951562148
4.172185430463576,0.6254888599279218
4.19205298013245,0.6306354796526086
4.211920529801325,0.6362225076464335
4.231788079470199,0.6422182834943505
4.251655629139073,0.6485896911512629
4.271523178807947,0.6553025029287594
4.291390728476821,0.6623217034598151
4.311258278145695,0.6696117893216306
4.33112582781457,0.677137041499477
4.3509933774834435,0.684861769222163
4.370860927152318,0.6927505248482956
4.390728476821192,0.7007682904130332
4.410596026490066,0.7088806371575916
4.43046357615894,0.7170538598723403
4.450331125827815,0.7252550882129603
4.470198675496689,0.7334523773257217
4.490066225165563,0.7416147801720606
4.509933774834438,0.7497124039031527
4.529801324503311,0.7577164525273935
4.549668874172186,0.7655992579598524
4.569536423841059,0.7733343013614967
4.589403973509934,0.780896226480789
4.6092715231788075,0.7882608465131209
4.629139072847682,0.795405145801607
4.649006622516556,0.8023072775215749
4.66887417218543,0.808946558324424
4.688741721854305,0.81530346076544
4.708609271523179,0.8213596042060592
4.728476821192054,0.8270977447633985
4.748344370860927,0.8325017647778052
4.768211920529802,0.8375566621819439
4.788079470198675,0.8422485400810472
4.80794701986755,0.8465645967920383
4.827814569536423,0.8504931165378873
4.847682119205298,0.8540234609517116
4.867549668874172,0.8571460615112517
4.887417218543046,0.8598524129972783
4.9072847682119205,0.8621350680486821
4.927152317880794,0.8639876328707731
4.947019867549669,0.8654047641416492
4.966887417218543,0.8663821671530413
4.986754966887418,0.8669165952165838
5.006622516556291,0.8670058503631638
5.026490066225166,0.8666487853615162
5.04635761589404,0.8658453070821126
5.066225165562914,0.8645963812329422
5.086092715231788,0.862904038494909
5.105960264900662,0.8607713820857621
5.125827814569536,0.8582025967819001
5.14569536423841,0.85520295942736
5.1655629139072845,0.8517788509573303
5.185430463576159,0.8479377699599344
5.205298013245033,0.8436883477933059
5.225165562913908,0.8390403652649051
5.245033112582782,0.8340047708653733
5.264900662251656,0.8285937005289358
5.28476821192053,0.822820498865064
5.304635761589404,0.816699741770454
5.324503311258278,0.8102472602845038
5.344370860927152,0.8034801654932379
5.364238410596027,0.7964168742141852
5.3841059602649,0.7890771351050168
5.403973509933775,0.7814820547296902
5.4238410596026485,0.7736541229839705
5.443708609271523,0.7656172371251969
5.463576158940397,0.757396723466158
5.483443708609272,0.7490193555774322
5.503311258278146,0.7405133675958743
5.52317880794702,0.7319084609582582
5.543046357615895,0.7232358025710716
5.562913907284768,0.7145280120948487
5.582781456953643,0.7058191356724276
5.602649006622516,0.6971446030802727
5.622516556291391,0.6885411649484664
5.642384105960264,0.6800468064076628
5.662251655629139,0.6717006333137769
5.682119205298013,0.6635427271186937
5.701986754966887,0.6556139645488751
5.7218543046357615,0.6479557985815824
5.741721854304636,0.6406099978293338
5.7615894039735105,0.6336183424132543
5.781456953642384,0.6270222757672196
5.801324503311259,0.6208625135864206
5.821192052980132,0.6151786133002165
5.841059602649007,0.6100085099463952
5.860927152317881,0.6053880270333067
5.880794701986755,0.6013503737196249
5.900662251655629,0.597925642186736
5.920529801324503,0.5951403211573314
5.940397350993377,0.5930168428482678
5.960264900662251,0.5915731809867283
5.980132450331126,0.5908225166885098
6.0,0.5907729869266723
6.0198675496688745,0.5914275270750325
6.039735099337749,0.5927838148039453
6.059602649006623,0.5948343177707435
6.079470198675497,0.5975664425039123
6.099337748344371,0.6009627770777566
6.119205298013245,0.6050014160265537
6.139072847682119,0.6096563527795139
6.158940397350993,0.6148979229073599
6.178807947019867,0.6206932807127559
6.198675496688741,0.6270068920913501
6.218543046357616,0.6338010279544958
6.23841059602649,0.6410362445868363
6.258278145695365,0.6486718398382428
6.2781456953642385,0.656666276754883
6.298013245033113,0.6649775689142499
6.317880794701987,0.6735636241717463
6.337748344370861,0.6823825456388869
6.357615894039735,0.6913928904365737
6.377483443708609,0.7005538880880156
6.397350993377484,0.7098256213551588
6.417218543046357,0.7191691729229411
6.437086092715232,0.7285467416513832
6.456953642384105,0.7379217322052387
6.47682119205298,0.7472588217902998
6.496688741721854,0.756524007524577
6.516556291390729,0.7656846376944524
6.5364238410596025,0.774709429824196
6.556291390728477,0.783568478148534
6.5761589403973515,0.7922332527413836
6.596026490066225,0.8006765922327066
6.6158940397351,0.8088726917481843
6.635761589403973,0.816797087437461
6.655629139072848,0.8244266387184845
6.675496688741721,0.8317395091576911
6.695364238410596,0.8387151467271041
6.715231788079469,0.8453342640279817
6.735099337748344,0.8515788189437169
6.754966887417219,0.8574319960795661
6.774834437086093,0.862878189260897
6.794701986754967,0.8679029852923158
6.814569536423841,0.872493149124804
6.8344370860927155,0.8766366105349951
6.854304635761589,0.8803224523876766
6.874172185430464,0.8835409005282854
6.894039735099337,0.8862833153348073
6.913907284768212,0.8885421849469136
6.933774834437086,0.8903111201837018
6.95364238410596,0.8915848511585669
6.973509933774834,0.8923592256005121
6.993377483443709,0.8926312088940629
7.013245033112583,0.892398885855636
7.033112582781457,0.8916614642707109
7.052980132450331,0.8904192802246378
7.072847682119205,0.8886738052686335
7.0927152317880795,0.8864276554722385
7.112582781456954,0.8836846024229581
7.132450331125828,0.8804495862432936
7.152317880794702,0.8767287307039534
7.172185430463576,0.8725293605193956
7.19205298013245,0.8678600209173294
7.211920529801324,0.8627304995767477
7.231788079470198,0.857151851027933
7.251655629139073,0.8511364236024608
7.271523178807947,0.844697889009128
7.291390728476822,0.8378512745914679
7.311258278145695,0.8306129982921813
7.33112582781457,0.8230009063062925
7.3509933774834435,0.8150343133448753
7.370860927152318,0.8067340453515074
7.390728476821192,0.7981224844089229
7.410596026490066,0.789223615438954
7.430463576158941,0.7800630741286542
7.450331125827814,0.7706681953028481
7.470198675496689,0.7610680607014225
7.490066225165562,0.7512935448009437
7.509933774834438,0.7413773569384067
7.52980132450331,0.7313540775439727
7.549668874172186,0.7212601857666283
7.569536423841059,0.711134075182372
7.589403973509934,0.7010160536159612
7.6092715231788075,0.6909483223998092
7.629139072847682,0.68097492966545
7.649006622516557,0.6711416915569931
7.66887417218543,0.6614960746347076
7.6887417218543055,0.6520870322843922
7.708609271523178,0.6429647877718231
7.728476821192054,0.6341805568100127
7.748344370860927,0.6257862032840242
7.768211920529802,0.6178338232499623
7.788079470198675,0.6103752546207744
7.80794701986755,0.6034615131545101
7.827814569536423,0.5971421594769226
7.847682119205298,0.5914646067875922
7.8675496688741715,0.5864733843642573
7.887417218543046,0.5822093775767201
7.907284768211921,0.5787090702897449
7.927152317880795,0.5760038196094307
7.9470198675496695,0.5741191952328947
7.966887417218543,0.5730744156167694
7.986754966887418,0.5728819104289451
8.006622516556291,0.5735470332605886
8.026490066225167,0.575067940703395
8.046357615894038,0.5774356443577287
8.066225165562914,0.5806342321165228
8.086092715231787,0.5846412452637884
8.105960264900663,0.589428189563466
8.125827814569536,0.5949611523807534
8.14569536423841,0.6012014944155211
8.165562913907285,0.6081065838926937
8.185430463576159,0.615630542761818
8.205298013245034,0.6237249780752541
8.225165562913906,0.6323396765824547
8.245033112582782,0.6414232460304532
8.264900662251655,0.6509236921131099
8.28476821192053,0.6607889250177688
8.304635761589404,0.6709671937886135
8.324503311258278,0.6814074501191866
8.344370860927151,0.6920596456817738
8.364238410596027,0.7028749687636756
8.3841059602649,0.7138060269271488
8.403973509933774,0.7248069827817465
8.42384105960265,0.73583364989656
8.443708609271523,0.7468435555160757
8.463576158940398,0.7577959761868543
8.483443708609272,0.7686519517414758
8.503311258278146,0.7793742823868965
8.52317880794702,0.7899275129538935
8.543046357615895,0.8002779077134465
8.562913907284768,0.8103934185727857
8.582781456953642,0.8202436489381475
8.602649006622515,0.8297998150744987
8.62251655629139,0.83903470640367
8.642384105960264,0.8479226458558169
8.66225165562914,0.8564394511193427
8.682119205298013,0.8645623974145895
8.701986754966887,0.872270182239317
8.721854304635762,0.8795428923938742
8.741721854304636,0.886361973484079
8.76158940397351,0.8927102020157652
8.781456953642383,0.8985716601318204
8.801324503311259,0.9039317129964377
8.821192052980132,0.9087769887992942
8.841059602649008,0.9130953613315065
8.86092715231788,0.916875935072991
8.880794701986755,0.9201090327266358
8.90066225165563,0.922786185134979
8.920529801324504,0.9249001235211641
8.940397350993377,0.9264447740047811
8.960264900662251,0.9274152543553728
8.980132450331126,0.9278078729607967
9.0,0.9276201300040531
9.019867549668875,0.9268507208602199
9.039735099337747,0.9254995417444918
9.059602649006623,0.9235676976629777
9.079470198675496,0.9210575127394933
9.099337748344372,0.9179725430140632
9.119205298013245,0.9143175918321251
9.139072847682119,0.9100987279670025
9.158940397350994,0.9053233066422485
9.178807947019868,0.8999999936441087
9.198675496688743,0.8941387927375439
9.218543046357615,0.8877510766208447
9.23841059602649,0.8808496216731374
9.258278145695364,0.8734486467648127
9.27814569536424,0.8655638564109546
9.298013245033111,0.8572124885501047
9.317880794701987,0.8484133672225196
9.33774834437086,0.8391869603986646
9.357615894039736,0.8295554431660807
9.37748344370861,0.819542766413663
9.397350993377483,0.8091747310498696
9.417218543046358,0.7984790676445553
9.437086092715232,0.7874855211821077
9.456953642384107,0.7762259403411682
9.47682119205298,0.7647343703570775
9.496688741721854,0.7530471480579123
9.516556291390728,0.7412029970719359
9.536423841059603,0.7292431204618772
9.556291390728477,0.7172112871268518
9.57615894039735,0.7051539072093
9.596026490066224,0.6931200904407068
9.6158940397351,0.6811616798617135
9.635761589403973,0.6693332516863935
9.655629139072847,0.6576920703092569
9.675496688741722,0.6462979856861581
9.695364238410596,0.6352132587271923
9.715231788079471,0.6245022991651841
9.735099337748345,0.6142312999311732
9.754966887417218,0.6044677527762782
9.774834437086092,0.5952798321734762
9.794701986754967,0.5867356388532927
9.814569536423841,0.5789023010225794
9.834437086092716,0.5718449405214729
9.854304635761588,0.5656255226789945
9.874172185430464,0.5603016217458248
9.894039735099337,0.5559251472838179
9.913907284768213,0.5525410890412524
9.933774834437086,0.5501863465943265
9.95364238410596,0.548888713378087
9.973509933774835,0.5486660811481312
9.993377483443709,0.549525919841085
10.013245033112582,0.5514650699261576
10.033112582781456,0.55446986163304
10.052980132450331,0.5585165508470528
10.072847682119205,0.563572038313618
10.09271523178808,0.5695948201137511
10.112582781456952,0.5765361052683264
10.132450331125828,0.5843410316513896
10.152317880794701,0.5929499137238917
10.172185430463577,0.6022994635329909
10.192052980132452,0.6123239380053555
10.211920529801324,0.6229561787571019
10.2317880794702,0.6341285236823416
10.251655629139073,0.6457735811845525
10.271523178807948,0.6578248673335572
10.29139072847682,0.6702173131994102
10.311258278145695,0.6828876542249066
10.331125827814569,0.6957747160686338
10.350993377483444,0.7088196123016156
10.370860927152318,0.721965869110994
10.390728476821192,0.7351594911494262
10.410596026490065,0.7483489811966272
10.43046357615894,0.7614853246187067
10.450331125827816,0.7745219478989414
10.470198675496688,0.7874146588851537
10.490066225165563,0.8001215749218613
10.509933774834437,0.8126030437415043
10.529801324503312,0.8248215608866666
10.549668874172186,0.8367416865172569
10.56953642384106,0.8483299637067051
10.589403973509933,0.8595548397296251
10.609271523178808,0.8703865913685964
10.629139072847682,0.8807972548989353
10.649006622516556,0.8907605611292081
10.66887417218543,0.9002518756644521
