Frequency (Hz),Amplitude
0.0,9.204274717948095
0.019823788546255508,9.20546524877058
0.039647577092511016,9.209031300682241
0.059471365638766524,9.214956291376652
0.07929515418502203,9.223212714295084
0.09911894273127755,9.233762332525732
0.11894273127753305,9.2465564462644
0.13876651982378857,9.261536229975743
0.15859030837004406,9.278633134478097
0.17841409691629956,9.297769348390307
0.1982378854625551,9.318858312738733
0.2180616740088106,9.341805282040125
0.2378854625550661,9.366507924854103
0.25770925110132165,9.392856956638026
0.27753303964757714,9.420736797726862
0.29735682819383263,9.450026249395044
0.31718061674008813,9.480599181214417
0.3370044052863437,9.512325223291018
0.3568281938325991,9.54507045741746
0.37665198237885467,9.578698101702363
0.3964757709251102,9.613069183808257
0.41629955947136565,9.64804319852993
0.4361233480176212,9.683478746053929
0.4559471365638767,9.719234147845972
0.4757709251101322,9.755168037697707
0.49559471365638774,9.791139926021625
0.5154185022026433,9.827010736000235
0.5352422907488987,9.862643310669203
0.5550660792951543,9.89790289043898
0.5748898678414097,9.932657560933844
0.5947136563876653,9.966778671349662
0.6145374449339208,10.000141223805336
0.6343612334801763,10.032624234387603
0.6541850220264318,10.06411106676777
0.6740088105726874,10.094489739407779
0.6938325991189428,10.123653207472755
0.7136563876651982,10.15149962063247
0.7334801762114539,10.177932557971825
0.7533039647577093,10.202861241239155
0.7731277533039648,10.22620072765051
0.7929515418502204,10.247872083436265
0.8127753303964759,10.26780253927075
0.8325991189427313,10.285925628666096
0.8524229074889869,10.30218131034191
0.8722466960352424,10.316516075505401
0.8920704845814978,10.328883040891682
0.9118942731277534,10.339242028325993
0.931718061674009,10.347559631476559
0.9515418502202644,10.353809270372611
0.9713656387665199,10.357971234164571
0.9911894273127755,10.360032712505546
1.0110132158590308,10.359987815835193
1.0308370044052866,10.357837584746601
1.0506607929515421,10.353589988517992
1.0704845814977975,10.347259912791552
1.090308370044053,10.338869136281138
1.1101321585903086,10.328446296292535
1.1299559471365639,10.316026842739257
1.1497797356828194,10.301652980240174
1.1696035242290752,10.28537359778599
1.1894273127753305,10.267244185366854
1.209251101321586,10.247326736858923
1.2290748898678416,10.225689638376155
1.248898678414097,10.202407541207586
1.2687224669603525,10.177561218377663
1.288546255506608,10.151237403793044
1.3083700440528636,10.12352861287315
1.3281938325991192,10.094532943507065
1.3480176211453747,10.064353856138231
1.36784140969163,10.033099931754379
1.3876651982378856,10.000884606555129
1.4074889867841411,9.967825882089349
1.4273127753303965,9.934046009700124
1.4471365638766522,9.89967114819261
1.4669603524229078,9.864830993753229
1.4867841409691631,9.829658381299657
1.5066079295154187,9.794288856636433
1.5264317180616742,9.758860219031108
1.5462555066079295,9.723512034115464
1.5660792951541853,9.688385117356702
1.5859030837004409,9.653620988733072
1.6057268722466962,9.619361299690297
1.6255506607929517,9.585747233942065
1.6453744493392073,9.552918884208648
1.6651982378854626,9.521014607552873
1.6850220264317182,9.490170362564912
1.7048458149779737,9.460519032253199
1.7246696035242293,9.432189737104165
1.7444933920704848,9.40530714336425
1.7643171806167404,9.379990772151258
1.7841409691629957,9.356354315503923
1.8039647577092512,9.334504965903484
1.8237885462555068,9.314542766133153
1.8436123348017623,9.296559986557924
1.863436123348018,9.280640536993419
1.8832599118942732,9.266859420274196
1.9030837004405288,9.255282234416814
1.9229074889867843,9.245964729900242
1.9427312775330399,9.238952428051874
1.9625550660792954,9.234280305841132
1.982378854625551,9.231972551556083
2.002202643171806,9.23204239488934
2.0220264317180616,9.234492013912877
2.041850220264317,9.239312520304408
2.061674008810573,9.246484023031991
2.0814977973568287,9.255975769542578
2.1013215859030843,9.267746362365642
2.1211453744493394,9.281744047969486
2.140969162995595,9.297907073721722
2.1607929515418505,9.316164107934847
2.180616740088106,9.33643471724107
2.2004405286343616,9.358629894953326
2.220264317180617,9.382652633639674
2.2400881057268722,9.408398534869455
2.2599118942731278,9.435756448977488
2.2797356828193833,9.464609137729113
2.299559471365639,9.494833952942253
2.319383259911895,9.526303524414853
2.3392070484581504,9.558886450901078
2.3590308370044055,9.592447988354355
2.378854625550661,9.626850730193329
2.3986784140969166,9.661955274924079
2.418502202643172,9.697620877052884
2.4383259911894277,9.733706077830051
2.4581497797356833,9.77006931296152
2.4779735682819384,9.806569494999327
2.497797356828194,9.843066568663918
2.5176211453744495,9.879422037853676
2.537444933920705,9.915499463551967
2.5572687224669606,9.951164932250741
2.577092511013216,9.986287494864959
2.5969162995594717,10.020739576419013
2.6167400881057272,10.054397357042445
2.6365638766519828,10.087141125022821
2.6563876651982383,10.118855602828718
2.676211453744494,10.149430247141892
2.6960352422907494,10.178759524026814
2.715859030837005,10.206743160421968
2.73568281938326,10.233286373165853
2.7555066079295156,10.258300076773939
2.775330396475771,10.281701071164743
2.7951541850220267,10.303412210498541
2.8149779735682823,10.323362554241656
2.834801762114538,10.34148750150736
2.854625550660793,10.357728909652774
2.874449339207049,10.37203519803188
2.8942731277533045,10.384361437719818
2.91409691629956,10.394669427933687
2.9339207048458156,10.402927759782857
2.953744493392071,10.409111867885807
2.9735682819383262,10.413204070294702
2.993392070484582,10.41519359706982
3.0132158590308373,10.415076607748384
3.033039647577093,10.41285619785265
3.0528634361233484,10.408542394483135
3.072687224669604,10.402152140943462
3.092511013215859,10.393709270244516
3.1123348017621146,10.383244467235954
3.1321585903083706,10.37079521901583
3.151982378854626,10.356405753170591
3.1718061674008817,10.340126963301689
3.1916299559471373,10.322016321200442
3.2114537444933924,10.302137774940627
3.231277533039648,10.280561632069269
3.2511013215859035,10.257364426991947
3.270925110132159,10.23262877157075
3.2907488986784146,10.20644318788239
3.31057268722467,10.178901922022828
3.3303964757709252,10.150104737796688
3.350220264317181,10.120156689094594
3.3700440528634363,10.08916786974649
3.389867841409692,10.05725313964299
3.4096916299559474,10.024531825946411
3.4295154185022034,9.991127398271594
3.4493392070484585,9.957167116806136
3.469162995594714,9.9227816524668
3.4889867841409696,9.888104678355258
3.508810572687225,9.853272431986344
3.5286343612334807,9.818423248019032
3.5484581497797363,9.783697061525304
3.5682819383259914,9.749234882187427
3.588105726872247,9.71517824021958
3.6079295154185025,9.681668605262772
3.627753303964758,9.648846780000438
3.6475770925110136,9.616852270779379
3.667400881057269,9.585822638090086
3.6872246696035247,9.55589283035046
3.7070484581497802,9.527194505037082
3.726872246696036,9.499855341800897
3.7466960352422913,9.473998352776226
3.7665198237885464,9.449741195820575
3.7863436123348024,9.427195496893145
3.8061674008810575,9.406466188167338
3.8259911894273135,9.387650868761614
3.8458149779735686,9.370839195142581
3.8656387665198246,9.356112308290339
3.8854625550660797,9.343542304605785
3.905286343612335,9.333191757273637
3.925110132158591,9.325113294373015
3.9449339207048464,9.319349239448355
3.964757709251102,9.315931319529472
3.9845814977973575,9.314880444731473
4.004405286343612,9.316206562596237
4.024229074889869,9.319908589279065
4.044052863436123,9.325974418568197
4.06387665198238,9.334381008579742
4.083700440528634,9.345094544832506
4.103524229074891,9.35807067730384
4.123348017621146,9.373254828034284
4.143171806167401,9.390582564909757
4.162995594713657,9.40998003643017
4.182819383259912,9.431364461590755
4.2026431718061685,9.454644668469106
4.222466960352423,9.479721674734312
4.242290748898679,9.506489303074275
4.262114537444934,9.534834824470225
4.28193832599119,9.564639622322739
4.301762114537445,9.595779870637635
4.321585903083701,9.628127219798245
4.3414096916299565,9.661549483861803
4.361233480176212,9.69591132380383
4.381057268722468,9.731074921675058
4.400881057268723,9.76690064121195
4.420704845814979,9.803247671035232
4.440528634361234,9.839974647165702
4.46035242290749,9.876940252169256
4.4801762114537445,9.914003788800327
4.500000000000001,9.951025726537054
4.5198237885462555,9.987868219884138
4.539647577092512,10.024395597757344
4.559471365638767,10.060474823651377
4.579295154185023,10.095975926632498
4.599118942731278,10.130772403486764
4.618942731277533,10.164741592595966
4.63876651982379,10.19776502031089
4.658590308370044,10.229728720743973
4.678414096916301,10.260523530020176
4.6982378854625555,10.290045356104393
4.718061674008811,10.318195425373235
4.737885462555067,10.344880507121303
4.757709251101322,10.370013117190403
4.777533039647578,10.393511701889171
4.797356828193833,10.415300803331748
4.817180616740089,10.435311207273104
4.837004405286344,10.453480074453765
4.856828193832599,10.469751056395847
4.876651982378855,10.484074396510962
4.896475770925111,10.496407017296892
4.9162995594713665,10.506712594309253
4.936123348017622,10.51496161750294
4.955947136563877,10.521131440442646
4.975770925110133,10.525206317786013
4.995594713656388,10.527177431345303
5.015418502202644,10.527042904936058
5.035242290748899,10.524807808122075
5.055066079295155,10.52048414886868
5.07488986784141,10.51409085501664
5.094713656387666,10.505653744392214
5.114537444933921,10.495205483269611
5.134361233480177,10.482785532806496
5.154185022026432,10.468440082975954
5.174008810572688,10.452221973424612
5.193832599118943,10.434190600593752
5.213656387665199,10.41441181035106
5.2334801762114544,10.3929577752949
5.25330396475771,10.369906855813019
5.2731277533039655,10.345343443903467
5.292951541850221,10.319357788701119
5.312775330396477,10.292045802598278
5.332599118942731,10.263508846806515
5.352422907488988,10.233853495181693
5.372246696035242,10.2031912751273
5.392070484581499,10.171638384406691
5.4118942731277535,10.139315382736314
5.43171806167401,10.106346857102972
5.451541850220265,10.072861059851892
5.47136563876652,10.038989518733748
5.491189427312777,10.004866618280472
5.511013215859031,9.97062915210509
5.530837004405288,9.936415845991853
5.550660792951542,9.90236685196357
5.570484581497798,9.86862321388016
5.5903083700440535,9.83532630553929
5.610132158590309,9.802617242711605
5.6299559471365646,9.770636271046175
5.64977973568282,9.7395221323205
5.669603524229076,9.70941141207464
5.689427312775331,9.68043787225075
5.709251101321586,9.652731773043705
5.729074889867842,9.62641918874122
5.748898678414098,9.601621322875769
5.768722466960353,9.578453828506813
5.788546255506609,9.557026139882348
5.808370044052864,9.537440822073227
5.82819383259912,9.51979294541457
5.848017621145375,9.504169491708023
5.867841409691631,9.490648799124235
5.887665198237886,9.479300052583966
5.907488986784142,9.470182826083997
5.927312775330397,9.463346682969657
5.9471365638766525,9.458830839541404
5.966960352422908,9.456663896632092
5.986784140969164,9.456863642916177
6.00660792951542,9.459436932737102
6.026431718061675,9.464379640184866
6.04625550660793,9.471676690056192
6.066079295154186,9.481302165211275
6.085903083700441,9.49321948873702
6.105726872246697,9.50738167826937
6.125550660792952,9.523731668840856
6.145374449339208,9.542202699737082
6.1651982378854635,9.562718760078903
6.185022026431718,9.585195087221562
6.204845814977975,9.609538711580868
6.224669603524229,9.635649041168632
6.244493392070486,9.663418478943415
6.264317180616741,9.692733066051478
6.284140969162996,9.72347314413756
6.303964757709252,9.755514030131717
6.323788546255507,9.788726697249986
6.3436123348017635,9.822978456364604
6.363436123348018,9.858133632386798
6.3832599118942746,9.89405423083944
6.403083700440529,9.93060059036312
6.422907488986785,9.967632017477847
6.44273127753304,10.005007400500922
6.462555066079296,10.042585800083407
6.482378854625551,10.080227014365457
6.502202643171807,10.11779211725385
6.5220264317180625,10.155143968786893
6.541850220264318,10.192147696970435
6.561674008810574,10.228671150838123
6.581497797356829,10.264585324811891
6.601321585903085,10.29976475471257
6.62114537444934,10.334087885999569
6.640969162995596,10.367437415003266
6.6607929515418505,10.399700604057593
6.680616740088107,10.430769571548812
6.700440528634362,10.46054155796937
6.720264317180618,10.488919169110527
6.740088105726873,10.515810597545807
6.759911894273129,10.541129823553398
6.779735682819384,10.564796796602206
6.799559471365639,10.58673759848713
6.819383259911895,10.606884589147503
6.83920704845815,10.625176536137618
6.859030837004407,10.641558728648453
6.8788546255506615,10.655983076898572
6.898678414096917,10.668408197629795
6.918502202643173,10.678799486353821
6.938325991189428,10.687129176904628
6.958149779735684,10.693376388759063
6.977973568281939,10.697527162491294
6.997797356828195,10.699574483632402
7.01762114537445,10.6995182951083
7.037444933920705,10.697365498333067
7.0572687224669615,10.693129942937258
7.077092511013216,10.686832405013504
7.096916299559473,10.67850055366568
7.116740088105728,10.668168905551331
7.136563876651983,10.655878767012211
7.156387665198239,10.641678163293903
7.176211453744494,10.625621754264035
7.19603524229075,10.607770735948687
7.215859030837005,10.588192727121788
7.235682819383261,10.566961640100278
7.255506607929516,10.544157534823343
7.275330396475772,10.519866455226092
7.295154185022027,10.494180246859802
7.314977973568283,10.46719635466459
7.334801762114538,10.439017599767453
7.354625550660794,10.409751934163358
7.374449339207049,10.379512172141313
7.394273127753305,10.348415697344501
7.4140969162995605,10.316584144408207
7.433920704845816,10.284143054203122
7.453744493392072,10.251221501830429
7.473568281938327,10.217951696669761
7.493392070484583,10.184468553977942
7.513215859030838,10.150909237775037
7.533039647577093,10.117412675038617
7.552863436123348,10.084119041558715
7.572687224669605,10.051169220182318
7.59251101321586,10.018704232599504
7.612334801762115,9.986864646287616
7.6321585903083715,9.955789958731788
7.651982378854627,9.925617961572375
7.671806167400882,9.89648408788435
7.691629955947137,9.86852074635704
7.711453744493394,9.841856646704546
7.731277533039649,9.816616121180724
7.751101321585904,9.792918447580444
7.7709251101321595,9.770877179566128
7.790748898678416,9.750599490543223
7.81057268722467,9.73218553760525
7.830396475770926,9.715727852259782
7.850220264317182,9.70131076471655
7.870044052863436,9.689009868455397
7.889867841409693,9.678891531586036
7.909691629955948,9.671012461161185
7.929515418502204,9.665419326105795
7.9493392070484585,9.662148443790327
7.969162995594715,9.661225534509954
7.9889867841409705,9.662665547255616
8.008810572687224,9.666472559196022
8.02863436123348,9.672639750256932
8.048458149779737,9.681149453114488
8.068281938325994,9.691973277840988
8.088105726872246,9.70507230938602
8.107929515418503,9.720397375069933
8.12775330396476,9.737889378339425
8.147577092511014,9.75747969420749
8.167400881057269,9.779090621092635
8.187224669603525,9.802635883198409
8.207048458149782,9.828021177143068
8.226872246696036,9.855144756263373
8.246696035242293,9.88389804587572
8.266519823788547,9.914166282773078
8.286343612334802,9.945829172360712
8.306167400881058,9.978761557070031
8.325991189427315,10.012834090024572
8.345814977973568,10.047913908347097
8.365638766519824,10.083865300972926
8.38546255506608,10.120550366355094
8.405286343612337,10.157829655994181
8.42511013215859,10.195562800283307
8.444933920704846,10.233609113713808
8.464757709251103,10.271828177025865
8.484581497797357,10.310080394402302
8.504405286343614,10.348227524284091
8.524229074889869,10.386133182827027
8.544052863436125,10.42366331941708
8.56387665198238,10.460686664014762
8.583700440528636,10.497075146405123
8.60352422907489,10.532704287691642
8.623348017621145,10.567453564589071
8.643171806167402,10.601206747247064
8.662995594713658,10.633852211472409
8.682819383259913,10.665283226321082
8.702643171806168,10.695398218100035
8.722466960352424,10.724101011861631
8.74229074889868,10.751301051490014
8.762114537444935,10.776913599474192
8.78193832599119,10.800859917440187
8.801762114537446,10.823067428476055
8.821585903083701,10.843469862232363
8.841409691629957,10.862007383719424
8.861233480176212,10.87862670665192
8.881057268722468,10.893281192114992
8.900881057268723,10.905930933243488
8.92070484581498,10.91654282651966
8.940528634361234,10.925090630205355
8.960352422907489,10.931555010333433
8.980176211453745,10.935923574589086
9.000000000000002,10.938190894319114
9.019823788546258,10.938358514810302
9.039647577092511,10.936434953884932
9.059471365638768,10.93243568876468
9.079295154185024,10.926383131060048
9.099118942731279,10.918306589647893
9.118942731277533,10.908242221105803
9.13876651982379,10.89623296728015
9.158590308370046,10.882328479473971
9.1784140969163,10.866585028652352
9.198237885462555,10.849065400978711
9.218061674008812,10.829838777913785
9.237885462555067,10.808980600034225
9.257709251101323,10.78657241365835
9.27753303964758,10.762701699307158
9.297356828193834,10.737461680977361
9.317180616740089,10.710951115167187
9.337004405286345,10.683274058572028
9.356828193832602,10.65453961336334
9.376651982378855,10.624861648979566
9.396475770925111,10.594358499398432
9.416299559471367,10.563152634926842
9.436123348017622,10.53137030764282
9.455947136563877,10.499141169755204
9.475770925110133,10.466597864316109
9.49559471365639,10.433875587928872
9.515418502202644,10.401111625345314
9.5352422907489,10.368444856139536
9.555066079295155,10.33601523398364
9.57488986784141,10.303963239432019
9.594713656387666,10.272429307543844
9.614537444933923,10.24155323213382
9.634361233480178,10.211473548934494
9.654185022026432,10.182326900471613
9.674008810572689,10.154247385988086
9.693832599118945,10.127365900290547
9.713656387665198,10.101809465922473
9.733480176211454,10.077700563574503
9.75330396475771,10.05515646610894
9.773127753303967,10.03428858198693
9.792951541850222,10.015201814222777
9.812775330396477,9.997993941237828
9.832599118942733,9.982755026127029
9.852422907488988,9.969566860874917
9.872246696035244,9.958502451950809
9.892070484581499,9.94962555347185
9.911894273127754,9.942990253741483
9.93171806167401,9.938640620455207
9.951541850220266,9.936610409219861
9.971365638766521,9.936922839270785
9.991189427312776,9.939590439408803
10.011013215859032,9.944614966237783
10.030837004405289,9.951987395787013
10.050660792951543,9.961687988577781
10.070484581497798,9.973686427168069
10.090308370044054,9.98794202421113
10.11013215859031,10.004403998118578
10.129955947136565,10.023011812552504
10.14977973568282,10.043695575202992
10.169603524229077,10.066376490655516
10.189427312775331,10.090967361628465
10.209251101321588,10.11737313247211
10.229074889867842,10.145491468568895
10.248898678414099,10.175213365158399
10.268722466960353,10.206423779122998
10.28854625550661,10.239002277400338
10.308370044052865,10.272823695925208
10.32819383259912,10.307758803329389
10.348017621145376,10.343674964027812
10.367841409691632,10.38043679577629
10.387665198237887,10.417906817282782
10.407488986784141,10.455946081975307
10.427312775330398,10.494414794559761
10.447136563876654,10.533172907527852
10.466960352422909,10.572080695287289
10.486784140969164,10.610999304074031
10.50660792951542,10.649791276262304
10.526431718061675,10.688321048108431
10.546255506607931,10.726455420341736
10.566079295154186,10.764064001353521
10.585903083700442,10.801019623026566
10.605726872246697,10.837198729498864
10.625550660792953,10.872481739362785
10.645374449339208,10.90675338197095
10.665198237885463,10.939903008653028
10.685022026431719,10.971824879746096
10.704845814977975,11.002418428411014
10.724669603524232,11.031588502248733
10.744493392070485,11.059245583748341
10.764317180616741,11.085305990596504
