Frequency (Hz),Amplitude
0.0,4.62806805741951
0.020066889632107024,4.630092579482435
0.04013377926421405,4.636152897947309
0.060200668896321065,4.646209473403633
0.0802675585284281,4.660197078387221
0.10033444816053512,4.67802577846446
0.12040133779264213,4.6995822551147155
0.14046822742474915,4.724731423901832
0.1605351170568562,4.753318293540879
0.1806020066889632,4.785170006853842
0.20066889632107024,4.8200980032724585
0.22073578595317725,4.8579002442271495
0.24080267558528426,4.898363446990237
0.2608695652173913,4.941265278720943
0.2809364548494983,4.9863764699358555
0.3010033444816054,5.0334628147634195
0.3210702341137124,5.082287033565966
0.34113712374581934,5.132610481361581
0.3612040133779264,5.184194692607454
0.3812709030100334,5.23680275909158
0.4013377926421405,5.290200542808441
0.42140468227424743,5.344157729744041
0.4414715719063545,5.398448733515135
0.4615384615384615,5.452853459892101
0.4816053511705685,5.50715794450966
0.5016722408026756,5.561154876671102
0.5217391304347826,5.614644022216236
0.5418060200668896,5.667432558079183
0.5618729096989966,5.719335330523155
0.5819397993311036,5.770175048202614
0.6020066889632107,5.819782420248947
0.6220735785953176,5.867996248567112
0.6421404682274248,5.914663482516198
0.6622073578595318,5.95963924316132
0.6822742474916387,6.002786823352679
0.7023411371237458,6.043977669024901
0.7224080267558528,6.083091346324948
0.7424749163879598,6.120015498473215
0.7625418060200668,6.154645795639494
0.7826086956521738,6.1868858805701565
0.802675585284281,6.216647312230524
0.8227424749163879,6.243849509320744
0.8428093645484949,6.268419695178543
0.862876254180602,6.290292845290993
0.882943143812709,6.309411638393733
0.903010033444816,6.3257264119335765
0.923076923076923,6.339195122503299
0.9431438127090299,6.349783311720332
0.963210702341137,6.357464077908831
0.983277591973244,6.362218053852967
1.0033444816053512,6.364033390813697
1.0234113712374582,6.362905748938035
1.0434782608695652,6.358838294135252
1.0635451505016722,6.351841701445116
1.0836120401337792,6.341934164875531
1.1036789297658862,6.329141413638057
1.1237458193979932,6.313496734655741
1.1438127090301002,6.295041001155683
1.1638795986622072,6.273822707084588
1.1839464882943145,6.249898006995752
1.2040133779264215,6.223330760946246
1.2240802675585283,6.194192583808742
1.2441471571906353,6.162562898239027
1.2642140468227423,6.1285289903415965
1.2842809364548495,6.0921860668373276
1.3043478260869565,6.053637312251353
1.3244147157190636,6.012993944301072
1.3444816053511706,5.970375265265791
1.3645484949832773,5.925908706655703
1.3846153846153846,5.879729863961297
1.4046822742474916,5.831982517651744
1.4247491638795986,5.782818635897244
1.4448160535117056,5.732398353716459
1.4648829431438126,5.680889922398037
1.4849498327759196,5.628469622123422
1.5050167224080266,5.5753216297409915
1.5250836120401337,5.5216378326325595
1.5451505016722407,5.467617578606178
1.5652173913043477,5.41346735079054
1.5852842809364547,5.359400355657872
1.605351170568562,5.305636011641189
1.625418060200669,5.252399325433627
1.6454849498327757,5.199920143073559
1.6655518394648827,5.148432263455189
1.6856187290969897,5.098172403095655
1.705685618729097,5.049379002972318
1.725752508361204,5.002290871144152
1.745819397993311,4.957145658787519
1.765886287625418,4.914178172263721
1.7859531772575248,4.873618529880078
1.806020066889632,4.835690179006519
1.826086956521739,4.800607796956474
1.846153846153846,4.7685751072058595
1.866220735785953,4.739782650657833
1.8862876254180598,4.714405559209155
1.9063545150501673,4.692601385207982
1.926421404682274,4.674508044862873
1.9464882943143813,4.660241935664081
1.966555183946488,4.649896286927267
1.9866220735785953,4.6435397983801385
2.0066889632107023,4.641215614254449
2.026755852842809,4.642940669883246
2.0468227424749164,4.648705434891448
2.0668896321070234,4.658474062515206
2.0869565217391304,4.672184939374191
2.1070234113712374,4.6897516152062275
2.1270903010033444,4.711064078665818
2.1471571906354514,4.735990334147377
2.1672240802675584,4.764378226344015
2.1872909698996654,4.79605745423141
2.2073578595317724,4.830841714415304
2.2274247491638794,4.8685309150732925
2.2474916387959865,4.908913405616267
2.267558528428094,4.951768173110915
2.2876254180602005,4.996866963797246
2.3076923076923075,5.043976296065731
2.3277591973244145,5.092859339450989
2.3478260869565215,5.143277642075867
2.367892976588629,5.1949926961825525
2.3879598662207355,5.247767337677976
2.408026755852843,5.301366980872342
2.4280936454849495,5.355560693768816
2.4481605351170566,5.410122122408462
2.468227424749164,5.464830274976503
2.4882943143812706,5.519470177755068
2.508361204013378,5.573833415697606
2.5284280936454846,5.627718570537725
2.548494983277592,5.680931569058516
2.568561872909699,5.73328595355283
2.5886287625418056,5.7846030856995325
2.608695652173913,5.834712294147143
2.6287625418060196,5.883450975100133
2.648829431438127,5.930664654194047
2.668896321070234,5.97620701696098
2.688963210702341,6.019939914252004
2.709030100334448,6.061733348114798
2.7290969899665547,6.1014654428324775
2.749163879598662,6.139022405117659
2.769230769230769,6.174298476823961
2.789297658862876,6.207195882983133
2.809364548494983,6.2376247774949665
2.82943143812709,6.265503188383568
2.849498327759197,6.290756964180825
2.869565217391304,6.313319722700134
2.8896321070234112,6.3331328032131395
2.9096989966555182,6.3501452228344215
2.9297658862876252,6.3643136377468235
2.9498327759197323,6.375602309758657
2.9698996655518393,6.3839830785679545
2.9899665551839463,6.38943534001405
3.0100334448160533,6.391946030518114
3.0301003344481603,6.391509617848906
3.0501672240802673,6.388128098293058
3.0702341137123748,6.381811000258365
3.0903010033444813,6.372575394289502
3.1103678929765888,6.360445909425667
3.1304347826086953,6.345454755774977
3.1505016722408024,6.327641753118169
3.1705685618729094,6.307054365279993
3.1906354515050164,6.28374773991762
3.210702341137124,6.25778475326628
3.2307692307692304,6.229236059249985
3.250836120401338,6.198180142203326
3.270903010033445,6.164703372255069
3.2909698996655514,6.128900062188748
3.311036789297659,6.090872524314661
3.3311036789297654,6.050731125554446
3.351170568561873,6.008594338548092
3.3712374581939795,5.964588786136791
3.391304347826087,5.918849276048414
3.411371237458194,5.871518822009974
3.4314381270903005,5.822748646830686
3.451505016722408,5.772698162238707
3.471571906354515,5.721534919417898
3.491638795986622,5.6694345232847665
3.511705685618729,5.616580502585318
3.531772575250836,5.563164126898316
3.551839464882943,5.509384160638887
3.5719063545150496,5.455446543209291
3.591973244147157,5.401563983601538
3.612040133779264,5.347955457094481
3.632107023411371,5.2948455912986425
3.652173913043478,5.242463928793017
3.672240802675585,5.191044054092445
3.692307692307692,5.140822573813576
3.712374581939799,5.092037940805556
3.732441471571906,5.044929115802399
3.752508361204013,4.999734063937167
3.7725752508361197,4.956688088289839
3.7926421404682276,4.916022008514276
3.8127090301003346,4.877960199412478
3.832775919732441,4.8427185119012615
3.852842809364548,4.810502106835513
3.872909698996655,4.781503240184348
3.8929765886287626,4.755899045566752
3.9130434782608696,4.7338493665326595
3.933110367892976,4.715494695586519
3.953177257525083,4.700954279195596
3.9732441471571907,4.6903244474148424
3.9933110367892977,4.68367722299151
4.013377926421405,4.681059257827046
4.033444816053511,4.6824911346964
4.053511705685618,4.687967059667895
4.073578595317726,4.697454956493937
4.093645484949833,4.710896959300128
4.113712374581939,4.728210285214936
4.133779264214047,4.74928845515502
4.153846153846153,4.774002819677109
4.173913043478261,4.802204338270205
4.193979933110368,4.833725555062257
4.214046822742475,4.868382711733301
4.234113712374581,4.905977939275763
4.254180602006689,4.946301473717454
4.274247491638796,4.9891338464721064
4.294314381270903,5.034248006980736
4.314381270903009,5.08141134312554
4.334448160535117,5.13038757296125
4.354515050167224,5.180938489132744
4.374581939799331,5.232825544562331
4.394648829431437,5.285811274343108
4.414715719063545,5.339660554124407
4.434782608695651,5.394141699574829
4.454849498327759,5.449027414783785
4.474916387959866,5.50409559979481
4.494983277591973,5.559130028965496
4.5150501672240795,5.61392091265037
4.535117056856188,5.668265354936951
4.555183946488294,5.721967719959807
4.575250836120401,5.774839918787474
4.595317725752508,5.82670162812278
4.615384615384615,5.877380451162101
4.635451505016722,5.926712029989904
4.655518394648829,5.974540117894027
4.6755852842809364,6.020716619012615
4.695652173913043,6.065101601793293
4.71571906354515,6.1075632918767075
4.735785953177258,6.14797804922086
4.7558528428093645,6.186230333565039
4.775919732441471,6.2222126616929785
4.795986622073578,6.25582555939295
4.816053511705686,6.286977510522673
4.8361204013377925,6.315584905164921
4.856187290969899,6.341571988498701
4.8762541806020065,6.364870811704675
4.896321070234113,6.385421185966306
4.916387959866221,6.403170640412791
4.936454849498328,6.4180743846716295
4.956521739130435,6.430095276551172
4.976588628762541,6.439203795252204
4.996655518394649,6.445378020407973
5.016722408026756,6.448603617169118
5.036789297658863,6.448873827480716
5.056856187290969,6.446189467638475
5.076923076923077,6.440558932156972
5.096989966555184,6.431998203931418
5.117056856187291,6.420530870621878
5.137123745819398,6.406188147132513
5.157190635451505,6.389008903994219
5.177257525083611,6.369039701383849
5.197324414715719,6.346334828422989
5.217391304347826,6.320956347289928
5.237458193979933,6.29297414154593
5.257525083612039,6.262465967915909
5.277591973244148,6.229517510569532
5.297658862876254,6.194222436715625
5.317725752508361,6.156682452044989
5.337792642140468,6.1170073542281616
5.357859531772575,6.075315082289001
5.377926421404682,6.0317317592262185
5.397993311036789,5.986391724737567
5.418060200668896,5.939437554310775
5.438127090301003,5.891020060278303
5.458193979933109,5.8412982696891795
5.478260869565218,5.790439373033305
5.498327759197324,5.738618636969464
5.518394648829431,5.686019273271597
5.538461538461538,5.632832255240694
5.558528428093646,5.5792560718637185
5.578595317725752,5.525496409080142
5.598662207357859,5.471765746698112
5.618729096989966,5.418282858859271
5.638795986622073,5.365272205571956
5.65886287625418,5.312963202821796
5.678929765886288,5.261589359244366
5.698996655518394,5.211387268433538
5.719063545150501,5.162595447790236
5.739130434782608,5.115453017509497
5.759197324414716,5.070198216955614
5.7792642140468224,5.027066760341554
5.799331103678929,4.986290039306342
5.8193979933110365,4.948093186586769
5.839464882943144,4.912693022325587
5.8595317725752505,4.8802959123522
5.879598662207358,4.851095575607592
5.8996655518394645,4.825270885253019
5.919732441471571,4.802983714318858
5.9397993311036785,4.784376881402587
5.959866220735786,4.7695722543312
5.9799331103678925,4.758669069380724
5.999999999999999,4.751742520282945
6.020066889632107,4.748842664765701
6.040133779264214,4.749993686956736
6.060200668896321,4.755193542096404
6.080267558528428,4.764413996362698
6.100334448160535,4.777601060107266
6.120401337792642,4.794675798419376
6.1404682274247495,4.815535489648015
6.160535117056856,4.8400550911763025
6.180602006688963,4.86808896301094
6.200668896321069,4.899472794018435
6.2207357859531776,4.934025673028309
6.240802675585284,4.971552247388792
6.260869565217391,5.011844914543104
6.280936454849498,5.054685997281826
6.301003344481605,5.099849859924414
6.321070234113712,5.147104930182147
6.341137123745819,5.196215599288559
6.361204013377926,5.246943980668321
6.381270903010033,5.299051514572905
6.40133779264214,5.352300412476547
6.421404682274248,5.406454940441795
6.441471571906354,5.461282545067294
6.461538461538461,5.516554829033665
6.481605351170568,5.572048385733447
6.501672240802676,5.62754550411138
6.521739130434782,5.682834755774155
6.54180602006689,5.737711476782112
6.561872909698996,5.7919781564343875
6.581939799331103,5.845444744917166
6.60200668896321,5.897928891002676
6.622073578595318,5.94925612014822
6.642140468227424,5.9992599624188
6.662207357859531,6.047782038697119
6.682274247491639,6.0946721126917085
6.702341137123746,6.139788115336471
6.722408026755852,6.182996147312974
6.742474916387959,6.224170464632765
6.762541806020066,6.263193451496624
6.782608695652174,6.299955584003837
6.80267558528428,6.334355387715202
6.822742474916388,6.366299391575989
6.842809364548494,6.395702080273992
6.862876254180601,6.422485846737849
6.882943143812709,6.446580946165848
6.903010033444816,6.467925452709257
6.9230769230769225,6.4864652197108335
6.94314381270903,6.50215384421285
6.963210702341137,6.51495263629445
6.983277591973244,6.524830593669985
7.0033444816053505,6.531764381874032
7.023411371237458,6.535738320270383
7.0434782608695645,6.53674437404754
7.063545150501672,6.534782152298353
7.083612040133779,6.529858912222993
7.103678929765886,6.521989569438753
7.123745819397993,6.511196714324238
7.143812709030099,6.497510634265467
7.1638795986622075,6.4809693416044905
7.183946488294314,6.461618607012991
7.204013377926421,6.439511997921061
7.224080267558528,6.4147109215199904
7.2441471571906355,6.387284671724103
7.264214046822742,6.357310479314896
7.2842809364548495,6.324873564296681
7.304347826086956,6.290067189260668
7.324414715719063,6.252992712278914
7.34448160535117,6.213759637524281
7.364548494983278,6.172485661432079
7.384615384615384,6.129296711777711
7.404682274247491,6.084326976536641
7.424749163879598,6.03771891881503
7.444816053511706,5.989623273487766
7.464882943143812,5.940199020456433
7.48494983277592,5.889613328644799
7.505016722408026,5.838041463992771
7.525083612040134,5.785666653804441
7.545150501672239,5.732679898873994
7.565217391304348,5.679279723885678
7.585284280936455,5.625671855703442
7.605351170568561,5.572068818387637
7.625418060200669,5.518689433170371
7.645484949832775,5.4657582112728385
7.665551839464882,5.413504627457011
7.685618729096991,5.362162262682565
7.705685618729096,5.311967805308659
7.725752508361204,5.263159902061422
7.74581939799331,5.2159778525943095
7.765886287625418,5.170660144992207
7.785953177257525,5.127442834063105
7.806020066889631,5.086557769720063
7.826086956521739,5.048230689101285
7.846153846153847,5.012679193134972
7.866220735785952,4.980110635752266
7.88628762541806,4.950719961503435
7.906354515050166,4.92468753445973
7.926421404682274,4.902177007435791
7.946488294314381,4.883333285163634
7.966555183946488,4.8682806375337
7.986622073578595,4.85712101892504
8.006688963210701,4.849932646665568
8.02675585284281,4.846768885697586
8.046822742474916,4.847657477727929
8.066889632107022,4.85260014193039
8.08695652173913,4.861572561292883
8.107023411371236,4.874524754793503
8.127090301003344,4.891381821678507
8.147157190635452,4.912045031128824
8.167224080267557,4.936393219372268
8.187290969899665,4.9642844474767776
8.207357859531772,4.9955578670608425
8.227424749163879,5.030035738135396
8.247491638795987,5.067525543150866
8.267558528428093,5.107822143755614
8.2876254180602,5.150709931313824
8.307692307692307,5.195964928328556
8.327759197324415,5.243356804990424
8.347826086956522,5.292650782576314
8.367892976588628,5.343609402877466
8.387959866220736,5.395994149861184
8.408026755852843,5.449566916090016
8.42809364548495,5.5040913118636565
8.448160535117056,5.559333819533203
8.468227424749163,5.615064798958702
8.488294314381271,5.671059352691941
8.508361204013378,5.727098061256598
8.528428093645484,5.782967599979595
8.548494983277592,5.838461249321406
8.568561872909697,5.893379310678829
8.588628762541806,5.947529439302848
8.608695652173914,6.000726905385535
8.628762541806019,6.052794793608144
8.648829431438127,6.103564150577139
8.668896321070234,6.152874088661271
8.68896321070234,6.200571853823196
8.709030100334449,6.246512864144741
8.729096989966555,6.290560724897187
8.749163879598662,6.3325872252211015
8.769230769230768,6.372472320762
8.789297658862875,6.41010410596184
8.809364548494983,6.4453787791321515
8.82943143812709,6.4782006029295705
8.849498327759196,6.50848186241519
8.869565217391303,6.53614282249968
8.889632107023411,6.561111686251718
8.909698996655518,6.583324555271051
8.929765886287624,6.602725393095139
8.949832775919733,6.619265992412465
8.96989966555184,6.632905946692516
8.989966555183946,6.643612626706189
9.010033444816054,6.651361162296549
9.030100334448159,6.656134429664358
9.050167224080267,6.657923044351287
9.070234113712376,6.656725360032577
9.09030100334448,6.652547473166598
9.110367892976589,6.64540323348764
9.130434782608695,6.635314260267093
9.150501672240802,6.62230996420355
9.17056856187291,6.6064275747308985
9.190635451505017,6.587712172451294
9.210702341137123,6.5662167263038835
9.23076923076923,6.542002134965648
9.250836120401337,6.51513727184412
9.270903010033445,6.485699032857881
9.290969899665551,6.453772386005517
9.311036789297658,6.419450421491214
9.331103678929765,6.3828344009006726
9.351170568561873,6.344033803598501
9.37123745819398,6.303166368142631
9.391304347826086,6.260358126076741
9.411371237458194,6.215743424964195
9.4314381270903,6.169464936962249
9.451505016722408,6.12167364860172
9.471571906354516,6.072528826735038
9.49163879598662,6.022197954848515
9.511705685618729,5.970856633110845
9.531772575250837,5.918688434663677
9.551839464882942,5.865884709772628
9.57190635451505,5.8126443285795375
9.591973244147155,5.759173352369775
9.612040133779264,5.705684622546019
9.632107023411372,5.652397255949098
9.652173913043477,5.599536034867898
9.672240802675585,5.547330680129029
9.692307692307692,5.4960149961578155
9.712374581939798,5.445825877968991
9.732441471571907,5.397002171791056
9.752508361204013,5.349783383557842
9.77257525083612,5.304408232897656
9.792642140468226,5.261113054561698
9.812709030100335,5.220130054453453
9.832775919732441,5.181685433472545
9.852842809364548,5.145997399108587
9.872909698996656,5.113274091853903
9.89297658862876,5.083711460692402
9.91304347826087,5.057491128719107
9.933110367892976,5.03477829583831
9.953177257525082,5.015719729936585
9.97324414715719,5.0004419004091245
9.993311036789297,4.989049307993998
10.013377926421404,4.9816230622387145
10.033444816053512,4.978219752481335
10.053511705685617,4.978870650097805
10.073578595317725,4.983581269313256
10.093645484949834,4.99233130168444
10.113712374581938,5.005074926193219
10.133779264214047,5.021741483607118
10.153846153846153,5.042236491232823
10.17391304347826,5.066442963205927
10.193979933110368,5.094222992661251
10.214046822742475,5.125419545937246
10.234113712374581,5.159858415571631
10.254180602006688,5.197350278194466
10.274247491638796,5.237692805266109
10.294314381270903,5.280672778534097
10.31438127090301,5.326068167590712
10.334448160535118,5.37365013346447
10.354515050167223,5.423184929251819
10.37458193979933,5.474435675927334
10.394648829431437,5.527163998281724
10.414715719063544,5.581131512145048
10.434782608695652,5.636101159471463
10.454849498327757,5.691838392394653
10.474916387959865,5.748112210986061
10.494983277591974,5.804696062195573
10.515050167224079,5.861368609400695
10.535117056856187,5.917914383234142
10.555183946488295,5.974124325012742
10.5752508361204,6.029796234264251
10.595317725752508,6.0847351316508345
10.615384615384615,6.1387535481144315
10.635451505016722,6.191671750404275
10.65551839464883,6.243317912360508
10.675585284280936,6.2935282404762045
10.695652173913043,6.342147061388074
10.71571906354515,6.389026878085925
10.735785953177256,6.434028400806884
10.755852842809364,6.477020557807966
10.775919732441471,6.517880490499713
10.795986622073578,6.556493536779153
10.816053511705684,6.592753205823625
10.836120401337793,6.626561147096317
10.856187290969899,6.6578271158674145
10.876254180602006,6.686468937166032
10.896321070234114,6.712412469743582
10.916387959866219,6.735591571342766
10.936454849498327,6.755948066323257
10.956521739130435,6.7734317164890925
10.97658862876254,6.788000195789604
10.996655518394649,6.799619069419704
11.016722408026755,6.808261777722492
