Time (s),Filtered Signal
0.0,0.01506914809418492
0.033370535714285714,0.08939731449559919
0.06674107142857143,0.0961991198664269
0.10011160714285713,-0.007621630528843746
0.13348214285714285,-0.22662349061424578
0.16685267857142858,-0.5272433661940095
0.20022321428571427,-0.8512188288994323
0.23359375,-1.1351235706857865
0.2669642857142857,-1.3280346055369139
0.30033482142857143,-1.4019809625057758
0.33370535714285715,-1.3539609713322973
0.36707589285714287,-1.2015765578678683
0.40044642857142854,-0.9755718306641832
0.43381696428571426,-0.7120838240563634
0.4671875,-0.4462224657722082
0.5005580357142857,-0.2075236118973464
0.5339285714285714,-0.017158845684744996
0.5672991071428571,0.11349990346756975
0.6006696428571429,0.18333819951937874
0.6340401785714286,0.2010635055616347
0.6674107142857143,0.18357237748176744
0.70078125,0.15268745837375453
0.7341517857142857,0.13027444892548715
0.7675223214285715,0.13270665621671043
0.8008928571428571,0.1665558621918322
0.8342633928571428,0.2274707222518957
0.8676339285714285,0.3030491790843727
0.9010044642857142,0.378564457958229
0.934375,0.44283586364258926
0.9677455357142857,0.49144813144609545
1.0011160714285714,0.5260758824505426
1.0344866071428571,0.5508912335558103
1.0678571428571428,0.5685139902256338
1.1012276785714286,0.5778578973195824
1.1345982142857143,0.5747674222699344
1.16796875,0.5545701861373555
1.2013392857142857,0.5146836436667055
1.2347098214285714,0.4556866351481976
1.2680803571428572,0.3804713544499975
1.3014508928571429,0.29240678808938386
1.3348214285714286,0.19406659401944382
1.3681919642857143,0.08764252557744515
1.4015625,-0.02306584490099492
1.4349330357142858,-0.1304852060600719
1.4683035714285715,-0.2228516948306542
1.5016741071428572,-0.28679470909994287
1.535044642857143,-0.3125521401141021
1.5684151785714286,-0.2997183945348148
1.6017857142857141,-0.26055976257440683
1.6351562499999999,-0.21850068232791817
1.6685267857142856,-0.2012687994734701
1.7018973214285713,-0.23063289071045207
1.735267857142857,-0.31260285801390597
1.7686383928571427,-0.4324095015979078
1.8020089285714285,-0.557097278800461
1.8353794642857142,-0.6455565141241357
1.86875,-0.6625527594216362
1.9021205357142856,-0.5913699021418922
1.9354910714285714,-0.44011966389505514
1.968861607142857,-0.23941518032036188
2.002232142857143,-0.032626672858875744
2.0356026785714287,0.13736278898285886
2.0689732142857142,0.24018159373689738
2.10234375,0.265137972181497
2.1357142857142857,0.2220222226152999
2.169084821428571,0.13617930994203506
2.202455357142857,0.03998077433962074
2.2358258928571426,-0.03654917081852585
2.2691964285714286,-0.07335574803566168
2.302566964285714,-0.0643717902081585
2.3359375,-0.017185389027975145
2.3693080357142855,0.051164535039074546
2.4026785714285714,0.12069025427979004
2.436049107142857,0.17498676353665105
2.469419642857143,0.2055260305863933
2.5027901785714284,0.21232704444504702
2.5361607142857143,0.20120354598033147
2.56953125,0.1794220740119567
2.6029017857142858,0.15233989632062117
2.6362723214285713,0.12283175009657007
2.669642857142857,0.09335187446636994
2.7030133928571427,0.06851736046767852
2.7363839285714286,0.055538806193296604
2.769754464285714,0.06125015368302761
2.803125,0.08711509601282305
2.8364955357142856,0.12563635445680202
2.8698660714285715,0.16146102934248047
2.903236607142857,0.1779069624901682
2.936607142857143,0.16607159239828426
2.9699776785714285,0.13142401449786628
3.0033482142857144,0.09346947130547964
3.03671875,0.07755890338470672
3.070089285714286,0.10226637330234688
3.1034598214285714,0.16846748929624383
3.1368303571428573,0.2557765180969821
3.170200892857143,0.3286145061963831
3.2035714285714283,0.3496802218917839
3.2369419642857142,0.2951738241814021
3.2703124999999997,0.1652558082727599
3.3036830357142857,-0.014836246435618044
3.337053571428571,-0.20369752960779172
3.370424107142857,-0.35909481697261875
3.4037946428571426,-0.4532549294708739
3.4371651785714286,-0.48153149009274054
3.470535714285714,-0.4608590450101536
3.50390625,-0.41924481137742214
3.5372767857142855,-0.381918069220249
3.5706473214285714,-0.3613275207645887
3.604017857142857,-0.35592403303890335
3.637388392857143,-0.3575878008150824
3.6707589285714284,-0.3623406658051748
3.7041294642857143,-0.3766725109052887
3.7375,-0.4140886956798281
3.7708705357142858,-0.48249286187534857
3.8042410714285713,-0.5695189463003906
3.837611607142857,-0.635930692532146
3.8709821428571427,-0.6242942168173212
3.9043526785714286,-0.48215270206475735
3.937723214285714,-0.18998832778087493
3.97109375,0.22037963606835434
4.004464285714286,0.6683151273833519
4.0378348214285715,1.0494535757771655
4.0712053571428575,1.2735767943083476
4.1045758928571425,1.2985779032085507
4.1379464285714285,1.145234053056724
4.171316964285714,0.8864534298460839
4.2046875,0.61638623332741
4.238058035714285,0.4134110153769133
4.271428571428571,0.3126882955050296
4.304799107142857,0.29859883752495214
4.338169642857142,0.3181395817686677
4.371540178571428,0.30773643431614467
4.404910714285714,0.22147727814574505
4.43828125,0.04962970730583983
4.471651785714285,-0.17871933819084357
4.505022321428571,-0.4084994063153969
4.538392857142857,-0.5809505884132804
4.571763392857143,-0.6564028597358414
4.605133928571428,-0.6288952833923165
4.638504464285714,-0.5272745677690308
4.671875,-0.40257066699371563
4.705245535714286,-0.3067915221256961
4.738616071428571,-0.2718324731466814
4.771986607142857,-0.29735065292846047
4.805357142857143,-0.3528092417415519
4.838727678571429,-0.39274434019975896
4.872098214285714,-0.3783071550104926
4.90546875,-0.2951585288825107
4.938839285714286,-0.15947380128890756
4.972209821428572,-0.009551708659450183
5.005580357142857,0.11243803609559984
5.038950892857143,0.17929040126607343
5.072321428571429,0.18897971637068442
5.105691964285715,0.16188846151738406
5.1390625,0.12760496783126288
5.172433035714286,0.1090390197972499
5.2058035714285715,0.11233985122637323
5.2391741071428575,0.12723980788595338
5.2725446428571425,0.1364042626602775
5.3059151785714285,0.12761150931402604
5.339285714285714,0.10162482826019309
5.3726562499999995,0.07166884243662497
5.406026785714285,0.05546667062770658
5.439397321428571,0.06489127034981322
5.472767857142857,0.09925816784961007
5.506138392857142,0.14583244025304393
5.539508928571428,0.1868198971812287
5.572879464285714,0.20846694922294753
5.60625,0.20694872237862122
5.639620535714285,0.18793441613951817
5.672991071428571,0.16068617805692992
5.706361607142857,0.13084172272881592
5.739732142857143,0.09665914736226551
5.773102678571428,0.05113806501456739
5.806473214285714,-0.011403859747042876
5.83984375,-0.08862870002527085
5.873214285714286,-0.16788194203045348
5.906584821428571,-0.23023360228716078
5.939955357142857,-0.2589865036444387
5.973325892857143,-0.24805683891809344
6.006696428571429,-0.20556374781652226
6.040066964285714,-0.1505370542222043
6.0734375,-0.1043466954912453
6.106808035714286,-0.08120075965404393
6.140178571428572,-0.08241281828845316
6.173549107142857,-0.09703492259308882
6.206919642857143,-0.10812568637909924
6.240290178571429,-0.10117388231476453
6.273660714285715,-0.07042215573138276
6.30703125,-0.020312376432744358
6.340401785714286,0.037938372038769944
6.3737723214285715,0.0921332722689064
6.407142857142857,0.1339277678028187
6.4405133928571425,0.16050544520640145
6.4738839285714285,0.17316395200961704
6.507254464285714,0.17474529730743085
6.5406249999999995,0.16812516740051248
6.573995535714285,0.15657910577352133
6.607366071428571,0.1448906086913043
6.640736607142857,0.13912734959877085
6.674107142857142,0.14393236262188658
6.707477678571428,0.1583636727081094
6.740848214285714,0.173103810048376
6.77421875,0.17175304967312907
6.807589285714285,0.13675580334328644
6.840959821428571,0.0576361436979396
6.874330357142857,-0.0624696241446078
6.907700892857143,-0.20540210009537146
6.941071428571428,-0.34264233798805693
6.974441964285714,-0.4441764206726554
7.0078125,-0.4880160098126294
7.041183035714286,-0.46690572480889275
7.074553571428571,-0.39012640110169794
7.107924107142857,-0.28009974364821527
7.141294642857143,-0.16506561905431816
7.174665178571429,-0.07020534906602988
7.208035714285714,-0.01011437217763198
7.24140625,0.0147582248962749
7.274776785714286,0.016395630821673134
7.308147321428572,0.012985944591118001
7.341517857142857,0.020884586470760858
7.374888392857143,0.04823190002756681
7.408258928571429,0.09279292208829719
7.441629464285715,0.14449011974609122
7.475,0.19092157842180463
7.508370535714286,0.222990922514796
7.5417410714285715,0.23812296777636965
7.575111607142857,0.2401018832284129
7.6084821428571425,0.23641700220788517
7.6418526785714285,0.23505684389824472
7.675223214285714,0.24236185627583684
7.7085937499999995,0.26217174340720895
7.741964285714285,0.2952231546584856
7.775334821428571,0.3377098536847404
7.808705357142857,0.3792904610667945
7.842075892857142,0.4025111723651092
7.875446428571428,0.3859542133242458
7.908816964285714,0.3116055302524297
7.9421875,0.17385523178845458
7.975558035714285,-0.014613577932223114
8.008928571428571,-0.22413403135073298
8.042299107142856,-0.4171210576853471
8.075669642857143,-0.5610890899842711
8.109040178571428,-0.6394084087804435
8.142410714285715,-0.6547207500924668
8.17578125,-0.62392045520236
8.209151785714285,-0.5680038818483039
8.242522321428572,-0.5023606487107404
8.275892857142857,-0.43214771797428453
8.309263392857142,-0.35412144836391113
8.342633928571429,-0.26278912339104593
8.376004464285714,-0.15690958806755148
8.409375,-0.04288998384576194
8.442745535714286,0.06626465217850679
8.47611607142857,0.1555062949834478
8.509486607142858,0.2134855855690481
8.542857142857143,0.2369973642491198
8.576227678571428,0.2324105578190769
8.609598214285715,0.21360346061097157
8.64296875,0.1972155761076682
8.676339285714285,0.19696454292593893
8.709709821428572,0.21904242116413647
8.743080357142857,0.26012715675500225
8.776450892857143,0.308569236771941
8.809821428571428,0.34825754986189983
8.843191964285714,0.36387431863482433
8.8765625,0.3458725766185214
8.909933035714285,0.293591746134887
8.94330357142857,0.21547251352957197
8.976674107142857,0.12626082101760053
9.010044642857142,0.04214375894689693
9.04341517857143,-0.024459059301609676
9.076785714285714,-0.0685617193267172
9.11015625,-0.0934093396306043
9.143526785714286,-0.10817100778709725
9.176897321428571,-0.12349497930373794
9.210267857142856,-0.1467227730924305
9.243638392857143,-0.1786714186728839
9.277008928571428,-0.21324250909280612
9.310379464285715,-0.2399780324512043
9.34375,-0.24851566784468504
9.377120535714285,-0.23314240529732896
9.410491071428572,-0.19557576493907425
9.443861607142857,-0.14474961708891196
9.477232142857142,-0.09354175790642401
9.510602678571429,-0.053655386036248344
9.543973214285714,-0.030759951936797644
9.57734375,-0.022068654553745688
9.610714285714286,-0.017608687055948126
9.64408482142857,-0.0048122792673886625
9.677455357142858,0.02554108301368926
9.710825892857143,0.07471331865566608
9.744196428571428,0.13479482781346125
9.777566964285715,0.19132626968054844
9.8109375,0.2284425579343267
9.844308035714285,0.23427682411714038
9.877678571428572,0.2045896684250389
9.911049107142857,0.14367219959210087
9.944419642857143,0.06277433965365595
9.977790178571428,-0.023012931385843472
10.011160714285714,-0.09849240312961194
10.04453125,-0.15207164995889041
10.077901785714285,-0.17884327333978725
10.11127232142857,-0.18207535014679385
10.144642857142857,-0.17193522834013716
10.178013392857142,-0.16093997198588256
10.21138392857143,-0.15735081652077093
10.244754464285714,-0.15960718210301392
10.278125,-0.1554076539776977
10.311495535714286,-0.12722236279431756
10.344866071428571,-0.06244048218409165
10.378236607142856,0.03693184901356331
10.411607142857143,0.15082393328009577
10.444977678571428,0.24693710351015952
10.478348214285715,0.2939204356770539
10.51171875,0.27558379411047823
10.545089285714285,0.1987928382976869
10.578459821428572,0.09075732471048881
10.611830357142857,-0.013014324402570906
10.645200892857142,-0.08389744289652332
10.678571428571429,-0.11077473886219655
10.711941964285714,-0.10114212503093686
10.745312499999999,-0.0730944950478543
10.778683035714286,-0.04347919300334845
10.81205357142857,-0.019165771022689012
10.845424107142858,0.004019777567754282
10.878794642857143,0.03503173264183222
10.912165178571428,0.07869691833168685
10.945535714285715,0.13007612610510602
10.97890625,0.1755598285554593
11.012276785714285,0.19977594659371462
11.045647321428572,0.19387318053348507
11.079017857142857,0.16015573926002297
11.112388392857143,0.11048937832849749
11.145758928571428,0.05967872973715045
11.179129464285714,0.01783918652135517
11.2125,-0.013869019640764663
11.245870535714285,-0.041926112498408115
11.27924107142857,-0.07464193175270271
11.312611607142857,-0.11550325717134831
11.345982142857142,-0.15974385457580334
11.37935267857143,-0.1962357161594868
11.412723214285714,-0.2135906683730579
11.44609375,-0.2067972171068862
11.479464285714286,-0.18035432877941096
11.512834821428571,-0.1459558795150754
11.546205357142856,-0.1160734781494545
11.579575892857143,-0.09727282527457647
11.612946428571428,-0.08726072433681509
11.646316964285715,-0.07740105782519564
11.6796875,-0.059131123340851806
11.713058035714285,-0.03034611320544505
11.746428571428572,0.002196856153889711
11.779799107142857,0.026082691527612504
11.813169642857142,0.03040000110554548
11.846540178571429,0.012877089283777912
11.879910714285714,-0.017070522454176295
11.913281249999999,-0.041273276730732805
11.946651785714286,-0.04045663856140174
11.98002232142857,-0.0029526842837751094
12.013392857142858,0.0695792214459877
12.046763392857143,0.16186667385736098
12.080133928571428,0.2500617906697622
12.113504464285715,0.309856472680539
12.146875,0.3245463536523221
12.180245535714285,0.2902791183958114
12.213616071428572,0.21685120795430374
12.246986607142857,0.12386021179632577
12.280357142857143,0.03352778006489557
12.313727678571428,-0.037206888786897076
12.347098214285714,-0.08218155281362377
12.38046875,-0.1066866826850368
12.413839285714285,-0.12293794819890122
12.44720982142857,-0.142458555378216
12.480580357142857,-0.16914807004575902
12.513950892857142,-0.19662822671235783
12.54732142857143,-0.21137580146225302
12.580691964285714,-0.20018698284405825
12.6140625,-0.1581865288669841
12.647433035714286,-0.0931195782428801
12.680803571428571,-0.023349212322972934
12.714174107142856,0.029926432878201837
12.747544642857143,0.05269887618875813
12.780915178571428,0.045445611219227376
12.814285714285713,0.023742721897224397
12.84765625,0.011375298172054672
12.881026785714285,0.028911263135397797
12.914397321428572,0.08318618392428678
12.947767857142857,0.16294262483229718
12.981138392857142,0.2429673153334363
13.014508928571429,0.2949000240886911
13.047879464285714,0.29957598833050636
13.081249999999999,0.2550126405375288
13.114620535714286,0.17634890068692857
13.14799107142857,0.08806208075056612
13.181361607142858,0.01256094347316384
13.214732142857143,-0.039142870160739036
13.248102678571428,-0.07032630710185896
13.281473214285715,-0.09414741056383942
13.31484375,-0.12479952354039
13.348214285714285,-0.16907078774201925
13.381584821428572,-0.22250512906744532
13.414955357142857,-0.2716833245259682
13.448325892857143,-0.30101687285539047
13.481696428571428,-0.30044262172327996
13.515066964285714,-0.27029937785538416
13.5484375,-0.22125192278775405
13.581808035714285,-0.16950434996752808
13.61517857142857,-0.12960756777283863
13.648549107142857,-0.10806641408627059
13.681919642857142,-0.10042076594420263
13.71529017857143,-0.09289341105081252
13.748660714285714,-0.06785912719852372
13.78203125,-0.011061840299885007
13.815401785714286,0.08193771285675405
13.848772321428571,0.20224236919909072
13.882142857142856,0.32831659596726714
13.915513392857143,0.43105454830734635
13.948883928571428,0.4821074905760333
13.982254464285713,0.46317033803903085
14.015625,0.3731908921511566
14.048995535714285,0.23064527517397476
14.082366071428572,0.06936743801807793
14.115736607142857,-0.07132444685961273
14.149107142857142,-0.15910070276632188
14.182477678571429,-0.17918679548597752
14.215848214285714,-0.1388866646894303
14.249218749999999,-0.06413051482724207
14.282589285714286,0.01067538446476335
14.31595982142857,0.05542524823953843
14.349330357142858,0.0545984671424996
14.382700892857143,0.011171821292432334
14.416071428571428,-0.05679625380274052
14.449441964285715,-0.12471064727074538
14.4828125,-0.17106551188278074
14.516183035714285,-0.18430878267238585
14.549553571428572,-0.16495732289416407
14.582924107142857,-0.12327598681908561
14.616294642857143,-0.07440367398112474
14.649665178571428,-0.03315099083844939
14.683035714285714,-0.010067614036605709
14.71640625,-0.009398055670583872
14.749776785714285,-0.02874142435718187
14.78314732142857,-0.059868141257896544
14.816517857142857,-0.09025378607481196
14.849888392857142,-0.10529768443436908
14.88325892857143,-0.09153179829446939
14.916629464285714,-0.04094526076401045
14.95,0.04434241706128063
14.983370535714286,0.1490368152652626
15.016741071428571,0.2458216541561755
15.050111607142856,0.30233702256507816
15.083482142857143,0.2930175261111671
15.116852678571428,0.21165446810409647
15.150223214285713,0.0786679266334747
15.18359375,-0.06192673367613741
15.216964285714285,-0.15682273397214624
15.250334821428572,-0.1644884139249517
15.283705357142857,-0.07434422524895681
15.317075892857142,0.08499614055244703
15.350446428571429,0.25342363101491017
15.383816964285714,0.36108653818564895
15.417187499999999,0.3557711613532377
15.450558035714286,0.22448167007198025
15.48392857142857,-0.00010648122400439625
15.517299107142858,-0.25130991875455205
15.550669642857143,-0.45351297289316117
15.584040178571428,-0.5503585876809
15.617410714285715,-0.52467832436386
15.65078125,-0.40251530119496787
15.684151785714285,-0.24030943499359514
15.717522321428572,-0.10105569226115818
15.750892857142857,-0.02930827985585567
15.784263392857143,-0.034901438030458184
15.817633928571428,-0.09145429790792158
15.851004464285714,-0.14971739581937205
15.884375,-0.15989082279066463
15.917745535714285,-0.09345847372860708
15.95111607142857,0.044666692605072104
15.984486607142857,0.21871921945734019
16.017857142857142,0.3779132891739675
16.05122767857143,0.4780868492322905
16.084598214285712,0.4991525217400167
16.11796875,0.4506043342322241
16.151339285714286,0.36334946437759397
16.18470982142857,0.2728283669939813
16.218080357142856,0.20230674201471652
16.251450892857143,0.15448360460154809
16.28482142857143,0.1147846923658507
16.318191964285713,0.06354107607512208
16.3515625,-0.010126032448049422
16.384933035714287,-0.10035206701746192
16.41830357142857,-0.1866034894216145
16.451674107142857,-0.24430343874304739
16.485044642857144,-0.2579427729035242
16.518415178571427,-0.22946157489719876
16.551785714285714,-0.17750822985725484
16.58515625,-0.12827327496455274
16.618526785714284,-0.10303079445848111
16.65189732142857,-0.10889406523112495
16.685267857142858,-0.1370849494296518
16.71863839285714,-0.1687671335040625
16.752008928571428,-0.18472357380819257
16.785379464285715,-0.17381029289837077
16.81875,-0.1365266985192923
16.852120535714285,-0.08300748788885914
16.88549107142857,-0.027470094225518642
16.91886160714286,0.01766765430116652
16.95223214285714,0.045410996398640754
16.98560267857143,0.05469859479732212
17.018973214285715,0.048673323749189375
17.05234375,0.032409885687597596
17.085714285714285,0.01146389517648115
17.119084821428572,-0.008436738873954668
17.152455357142856,-0.021209488994584694
17.185825892857142,-0.020692552290151024
17.21919642857143,-0.0018712424737596933
17.252566964285712,0.03725188707603028
17.2859375,0.09404453345119784
17.319308035714286,0.1608362874986846
17.35267857142857,0.22617432769160528
17.386049107142856,0.2774806713595533
17.419419642857143,0.3042633899387867
17.45279017857143,0.3008338163485489
17.486160714285713,0.2676851475967102
17.51953125,0.2111369946495417
17.552901785714287,0.14136010848498873
17.58627232142857,0.06935373295715308
