Frequency (Hz),Amplitude
0.0,6.233433633165805
0.020066889632107024,6.231084487733919
0.04013377926421405,6.224041069623946
0.060200668896321065,6.2123154418193645
0.0802675585284281,6.195927737524347
0.10033444816053512,6.174906203015391
0.12040133779264213,6.14928725864927
0.14046822742474915,6.119115579059197
0.1605351170568562,6.084444193890548
0.1806020066889632,6.045334610763208
0.20066889632107024,6.001856962506193
0.22073578595317725,5.954090181092605
0.24080267558528426,5.902122201113865
0.2608695652173913,5.846050196072827
0.2809364548494983,5.78598085124695
0.3010033444816054,5.722030677374671
0.3210702341137124,5.654326369946154
0.34113712374581934,5.583005219426761
0.3612040133779264,5.508215578294223
0.3812709030100334,5.430117391307198
0.4013377926421405,5.348882795911807
0.42140468227424743,5.264696800084639
0.4414715719063545,5.1777580451386305
0.4615384615384615,5.0882796609828675
0.4816053511705685,4.996490220896194
0.5016722408026756,4.9026348018619395
0.5217391304347826,4.8069761546714895
0.5418060200668896,4.709795985009929
0.5618729096989966,4.611396342164008
0.5819397993311036,4.512101105301515
0.6020066889632107,4.412257547795597
0.6220735785953176,4.312237947012176
0.6421404682274248,4.21244118944385
0.6622073578595318,4.11329429811699
0.6822742474916387,4.015253779969277
0.7023411371237458,3.918806654863175
0.7224080267558528,3.8244709852315233
0.7424749163879598,3.7327956774465005
0.7625418060200668,3.6443592762273767
0.7826086956521738,3.559767427932264
0.802675585284281,3.4796486572125414
0.8227424749163879,3.4046480980799525
0.8428093645484949,3.3354188622893886
0.862876254180602,3.272610833727167
0.882943143812709,3.2168568626514498
0.903010033444816,3.168756603397086
0.923076923076923,3.128858580199171
0.9431438127090299,3.097641439230617
0.963210702341137,3.0754956851543156
0.983277591973244,3.0627074240062524
1.0033444816053512,3.0594456604341502
1.0234113712374582,3.065754476557303
1.0434782608695652,3.081550958352129
1.0635451505016722,3.106629104959435
1.0836120401337792,3.140669278317532
1.1036789297658862,3.1832521613585194
1.1237458193979932,3.2338758017537925
1.1438127090301002,3.2919741764900845
1.1638795986622072,3.3569358073886466
1.1839464882943145,3.4281212266811627
1.2040133779264215,3.5048784506188513
1.2240802675585283,3.5865559882303897
1.2441471571906353,3.6725132340426354
1.2642140468227423,3.7621283373999974
1.2842809364548495,3.85480380029247
1.3043478260869565,3.9499701396023017
1.3244147157190636,4.0470879754752485
1.3444816053511706,4.1456488937188825
1.3645484949832773,4.245175393118164
1.3846153846153846,4.345220180912128
1.4046822742474916,4.445365029993138
1.4247491638795986,4.5452193648806345
1.4448160535117056,4.6444187028509285
1.4648829431438126,4.74262304272255
1.4849498327759196,4.839515266602528
1.5050167224080266,4.934799598731589
1.5250836120401337,5.028200149527573
1.5451505016722407,5.119459561077469
1.5652173913043477,5.208337761798133
1.5852842809364547,5.2946108320179475
1.605351170568562,5.378069978200544
1.625418060200669,5.458520610936056
1.6454849498327757,5.535781520272333
1.6655518394648827,5.609684141149085
1.6856187290969897,5.680071901405722
1.705685618729097,5.746799644891702
1.725752508361204,5.809733122494965
1.745819397993311,5.868748544331863
1.765886287625418,5.923732186849104
1.7859531772575248,5.9745800491322605
1.806020066889632,6.021197553267913
1.826086956521739,6.063499284148062
1.846153846153846,6.101408764625958
1.866220735785953,6.134858262424858
1.8862876254180598,6.163788625662937
1.9063545150501673,6.188149144288833
1.926421404682274,6.207897435123813
1.9464882943143813,6.2229993485812765
1.966555183946488,6.233428895485296
1.9866220735785953,6.239168192740417
2.0066889632107023,6.240207426918991
2.026755852842809,6.236544835133912
2.0468227424749164,6.228186702857215
2.0668896321070234,6.2151473786332785
2.0869565217391304,6.197449305922434
2.1070234113712374,6.175123072601669
2.1270903010033444,6.148207478946568
2.1471571906354514,6.116749625227778
2.1672240802675584,6.080805020379217
2.1872909698996654,6.040437713538037
2.2073578595317724,5.995720450621827
2.2274247491638794,5.946734858499507
2.2474916387959865,5.893571659731945
2.267558528428094,5.836330921308235
2.2876254180602005,5.775122341283829
2.3076923076923075,5.710065577736128
2.3277591973244145,5.641290624986473
2.3478260869565215,5.568938242585367
2.367892976588629,5.493160443104925
2.3879598662207355,5.4141210453036
2.408026755852843,5.331996299686872
2.4280936454849495,5.246975593828704
2.4481605351170566,5.159262244965975
2.468227424749164,5.069074387222571
2.4882943143812706,4.976645960212914
2.508361204013378,4.882227804513443
2.5284280936454846,4.786088867304977
2.548494983277592,4.688517518022555
2.568561872909699,4.58982296864505
2.5886287625418056,4.490336785736133
2.608695652173913,4.390414470806841
2.6287625418060196,4.2904370711791575
2.648829431438127,4.19081276437364
2.668896321070234,4.091978334199954
2.688963210702341,3.9944004254299457
2.709030100334448,3.8985764258367515
2.7290969899665547,3.8050347799979374
2.749163879598662,3.7143344905393327
2.769230769230769,3.6270635136107066
2.789297658862876,3.54383571357343
2.809364548494983,3.46528601817152
2.82943143812709,3.392063424838055
2.849498327759197,3.324821569221333
2.869565217391304,3.2642066965599854
2.8896321070234112,3.2108430880549523
2.9096989966555182,3.1653162879915406
2.9297658862876252,3.1281548322041917
2.9498327759197323,3.0998115471605985
2.9698996655518393,3.080645799188304
2.9899665551839463,3.0709082406276518
3.0100334448160533,3.07072955073284
3.0301003344481603,3.0801143702382867
3.0501672240802673,3.0989411065208645
3.0702341137123748,3.126967630511604
3.0903010033444813,3.16384222654266
3.1103678929765888,3.2091186230350854
3.1304347826086953,3.2622736179278906
3.1505016722408024,3.3227257488474247
3.1705685618729094,3.389853613730878
3.1906354515050164,3.463012751341727
3.210702341137124,3.5415503582646055
3.2307692307692304,3.624817476068328
3.250836120401338,3.7121785803583345
3.270903010033445,3.8030187200524077
3.2909698996655514,3.89674848946485
3.311036789297659,3.992807179975431
3.3311036789297654,4.090664470094096
3.351170568561873,4.189820990662766
3.3712374581939795,4.289808060963544
3.391304347826087,4.390186842887921
3.411371237458194,4.490547111514801
3.4314381270903005,4.5905057957763065
3.451505016722408,4.6897054044276905
3.471571906354515,4.787812420856988
3.491638795986622,4.884515725072821
3.511705685618729,4.979525081743334
3.531772575250836,5.072569718512116
3.551839464882943,5.163397008068672
3.5719063545150496,5.251771259767658
3.591973244147157,5.337472621262088
3.612040133779264,5.420296087054863
3.632107023411371,5.500050608617263
3.652173913043478,5.576558299410853
3.672240802675585,5.649653727505205
3.692307692307692,5.719183288302724
3.712374581939799,5.785004650011119
3.732441471571906,5.846986264833559
3.752508361204013,5.905006939297121
3.7725752508361197,5.9589554576571775
3.7926421404682276,6.008730252859481
3.8127090301003346,6.054239120089111
3.832775919732441,6.095398968468745
3.852842809364548,6.132135606978646
3.872909698996655,6.164383561152442
3.8929765886287626,6.192085917553768
3.9130434782608696,6.215194193459995
3.933110367892976,6.233668229571534
3.953177257525083,6.247476103932412
3.9732441471571907,6.25659406559144
3.9933110367892977,6.2610064868589514
4.013377926421405,6.260705833323802
4.033444816053511,6.255692651094179
4.053511705685618,6.2459755710170315
4.073578595317726,6.231571329918797
4.093645484949833,6.212504809198676
4.113712374581939,6.188809091398508
4.133779264214047,6.160525535674781
4.153846153846153,6.127703873411878
4.173913043478261,6.090402325545738
4.193979933110368,6.048687743516664
4.214046822742475,6.002635776143275
4.234113712374581,5.952331065109015
4.254180602006689,5.897867472180847
4.274247491638796,5.839348341737963
4.294314381270903,5.776886802676077
4.314381270903009,5.710606114267391
4.334448160535117,5.640640061091163
4.354515050167224,5.567133402693325
4.374581939799331,5.490242384167644
4.394648829431437,5.410135314345398
4.414715719063545,5.326993218694654
4.434782608695651,5.241010574300458
4.454849498327759,5.152396134337789
4.474916387959866,5.061373849138331
4.494983277591973,4.968183890123801
4.5150501672240795,4.873083781310196
4.535117056856188,4.776349640481204
4.555183946488294,4.67827752809897
4.575250836120401,4.579184896072614
4.595317725752508,4.479412120023647
4.615384615384615,4.379324086932474
4.635451505016722,4.279311794168288
4.655518394648829,4.179793894980998
4.6755852842809364,4.081218098696487
4.695652173913043,3.984062300468891
4.71571906354515,3.8888352754239537
4.735785953177258,3.796076726319073
4.7558528428093645,3.7063564250720487
4.775919732441471,3.6202721417685817
4.795986622073578,3.538446018441259
4.816053511705686,3.4615190312723887
4.8361204013377925,3.3901432098655637
4.856187290969899,3.324971363974611
4.8762541806020065,3.2666442232393567
4.896321070234113,3.2157751332457996
4.916387959866221,3.1729327654451907
4.936454849498328,3.138622660038389
4.956521739130435,3.1132687742862584
4.976588628762541,3.0971964767715674
4.996655518394649,3.090618528597479
5.016722408026756,3.093625463386882
5.036789297658863,3.1061814042960094
5.056856187290969,3.1281257856140616
5.076923076923077,3.159180782990492
5.096989966555184,3.198963632215773
5.117056856187291,3.247002551976933
5.137123745819398,3.3027547540904685
5.157190635451505,3.3656250354144803
5.177257525083611,3.434983653541452
5.197324414715719,3.5101825161956866
5.217391304347826,3.5905690802210266
5.237458193979933,3.6754976945281923
5.257525083612039,3.764338392418991
5.277591973244148,3.856483327480456
5.297658862876254,3.95135115758023
5.317725752508361,4.0483897278083285
5.337792642140468,4.147077403558324
5.357859531772575,4.246923376436165
5.377926421404682,4.347467222170134
5.397993311036789,4.448277941106245
5.418060200668896,4.548952664568743
5.438127090301003,4.649115167887928
5.458193979933109,4.748414294797677
5.478260869565218,4.846522368460633
5.498327759197324,4.9431336411392595
5.518394648829431,5.037962816695652
5.538461538461538,5.130743666760598
5.558528428093646,5.221227751678687
5.578595317725752,5.309183250422587
5.598662207357859,5.394393898910582
5.618729096989966,5.476658033014673
5.638795986622073,5.5557877305847745
5.65886287625418,5.631608045705526
5.678929765886288,5.70395632789529
5.698996655518394,5.772681618864038
5.719063545150501,5.837644119629782
5.739130434782608,5.898714721152322
5.759197324414716,5.955774592106942
5.7792642140468224,6.008714817939417
5.799331103678929,6.057436085883225
5.8193979933110365,6.101848411158056
5.839464882943144,6.141870900090552
5.8595317725752505,6.177431546396353
5.879598662207358,6.208467057331821
5.8996655518394645,6.2349227068635225
5.919732441471571,6.256752213414223
5.9397993311036785,6.273917640127455
5.959866220735786,6.286389315951702
5.9799331103678925,6.294145776183097
5.999999999999999,6.2971737214256525
6.020066889632107,6.2954679942347465
6.040133779264214,6.289031573005972
6.060200668896321,6.277875582962263
6.080267558528428,6.262019324380488
6.100334448160535,6.241490318489407
6.120401337792642,6.21632437176666
6.1404682274247495,6.186565659668508
6.160535117056856,6.152266831145152
6.180602006688963,6.113489135631067
6.200668896321069,6.070302574556852
6.2207357859531776,6.022786079810521
6.240802675585284,5.971027721984151
6.260869565217391,5.915124951677984
6.280936454849498,5.855184877600146
6.301003344481605,5.791324585692882
6.321070234113712,5.723671504033268
6.341137123745819,5.652363818787625
6.361204013377926,5.57755094703148
6.381270903010033,5.499394072757307
6.40133779264214,5.418066752847209
6.421404682274248,5.3337556001377235
6.441471571906354,5.246661050877733
6.461538461538461,5.156998223780265
6.481605351170568,5.064997877357409
6.501672240802676,4.970907471119813
6.521739130434782,4.874992334271278
6.54180602006689,4.777536942408307
6.561872909698996,4.6788462980238705
6.581939799331103,4.579247403783532
6.60200668896321,4.479090807937274
6.622073578595318,4.378752188081608
6.642140468227424,4.278633921928989
6.662207357859531,4.179166570885543
6.682274247491639,4.080810173302101
6.702341137123746,3.984055208806455
6.722408026755852,3.889423053411358
6.742474916387959,3.7974656986219006
6.762541806020066,3.708764459964337
6.782608695652174,3.623927357380689
6.80267558528428,3.5435848213977463
6.822742474916388,3.468383378306059
6.842809364548494,3.398977011399181
6.862876254180601,3.33601600126677
6.882943143812709,3.280133230475463
6.903010033444816,3.231928200970775
6.9230769230769225,3.191949342605996
6.94314381270903,3.1606755505460566
6.963210702341137,3.1384982150186644
6.983277591973244,3.1257052196935784
7.0033444816053505,3.1224684086655015
7.023411371237458,3.1288358098258424
7.0434782608695645,3.144729460353423
7.063545150501672,3.1699490754216813
7.083612040133779,3.2041811488250147
7.103678929765886,3.2470125033809176
7.123745819397993,3.2979469242972073
7.143812709030099,3.356423361391606
7.1638795986622075,3.421834266313371
7.183946488294314,3.4935428814866647
7.204013377926421,3.570898638992516
7.224080267558528,3.6532501837436637
7.2441471571906355,3.739955849602982
7.264214046822742,3.830391658673386
7.2842809364548495,3.9239570747937798
7.304347826086956,4.020078829979182
7.324414715719063,4.118213172837176
7.34448160535117,4.217846878532352
7.364548494983278,4.318497326521794
7.384615384615384,4.419711907430937
7.404682274247491,4.521066972697777
7.424749163879598,4.622166495322178
7.444816053511706,4.722640570049196
7.464882943143812,4.82214384770068
7.48494983277592,4.92035397118372
7.505016722408026,5.016970059390496
7.525083612040134,5.111711268938514
7.545150501672239,5.204315451594046
7.565217391304348,5.294537916434577
7.585284280936455,5.382150299600027
7.605351170568561,5.466939540240373
7.625418060200669,5.548706958490189
7.645484949832775,5.6272674295963485
7.665551839464882,5.702448647390736
7.685618729096991,5.77409046990678
7.705685618729096,5.842044339916343
7.725752508361204,5.906172773386643
7.74581939799331,5.966348909235066
7.765886287625418,6.022456114228727
7.785953177257525,6.074387637390493
7.806020066889631,6.122046308803691
7.826086956521739,6.165344278233111
7.846153846153847,6.204202789488848
7.866220735785952,6.238551986943454
7.88628762541806,6.268330751069237
7.906354515050166,6.2934865602905665
7.926421404682274,6.313975376845428
7.946488294314381,6.3297615547251596
7.966555183946488,6.340817768112477
7.986622073578595,6.347124959069764
8.006688963210701,6.3486723035452455
8.02675585284281,6.345457195068739
8.046822742474916,6.337485245803271
8.066889632107022,6.324770304910063
8.08695652173913,6.307334494473989
8.107023411371236,6.285208263530139
8.127090301003344,6.258430461031997
8.147157190635452,6.227048428913304
8.167224080267557,6.191118116720863
8.187290969899665,6.15070421963992
8.207357859531772,6.105880342098618
8.227424749163879,6.056729189528397
8.247491638795987,6.003342791272799
8.267558528428093,5.9458227580821905
8.2876254180602,5.884280578102643
8.307692307692307,5.818837955763897
8.327759197324415,5.749627198485696
8.347826086956522,5.676791656643591
8.367892976588628,5.600486222747581
8.387959866220736,5.520877896260576
8.408026755852843,5.43814642088073
8.42809364548495,5.35248500137222
8.448160535117056,5.264101107073323
8.468227424749163,5.173217368923978
8.488294314381271,5.080072576084342
8.508361204013378,4.9849227767523505
8.528428093645484,4.888042485357534
8.548494983277592,4.7897259945518105
8.568561872909697,4.690288784878524
8.588628762541806,4.590069017109547
8.608695652173914,4.4894290813100985
8.628762541806019,4.388757161929587
8.648829431438127,4.288468758767402
8.668896321070234,4.189008078694331
8.68896321070234,4.090849181889182
8.709030100334449,3.994496728910798
8.729096989966555,3.900486131897126
8.749163879598662,3.8093828667599965
8.769230769230768,3.721780657814353
8.789297658862875,3.6382982091866802
8.809364548494983,3.5595741394734643
8.82943143812709,3.4862597919002876
8.849498327759196,3.419009658501014
8.869565217391303,3.358469289896108
8.889632107023411,3.305260772727841
8.909698996655518,3.2599661426376834
8.929765886287624,3.2231094397586255
8.949832775919733,3.195138459475011
8.96989966555184,3.1764075350788983
8.989966555183946,3.16716283279295
9.010033444816054,3.1675315777697395
9.030100334448159,3.1775163343348405
9.050167224080267,3.1969949631820107
9.070234113712376,3.2257262572268557
9.09030100334448,3.2633606367214782
9.110367892976589,3.3094547833609465
9.130434782608695,3.3634887972369762
9.150501672240802,3.424884397899971
9.17056856187291,3.4930228337601963
9.190635451505017,3.5672614470335176
9.210702341137123,3.6469481864041935
9.23076923076923,3.731433698039519
9.250836120401337,3.820080911032345
9.270903010033445,3.912272243681862
9.290969899665551,4.00741469014079
9.311036789297658,4.104943113428263
9.331103678929765,4.204322086871207
9.351170568561873,4.3050466084744015
9.37123745819398,4.406641975925861
9.391304347826086,4.508663064779553
9.411371237458194,4.6106932061541075
9.4314381270903,4.712342817428839
9.451505016722408,4.81324790210665
9.471571906354516,4.913068503981515
9.49163879598662,5.011487175839047
9.511705685618729,5.108207503505121
9.531772575250837,5.202952711314602
9.551839464882942,5.295464364148745
9.57190635451505,5.385501173296653
9.591973244147155,5.472837907850274
9.612040133779264,5.5572644095762085
9.632107023411372,5.6385847067658394
9.652173913043477,5.716616221090738
9.672240802675585,5.791189060708152
9.692307692307692,5.862145392564869
9.712374581939798,5.92933888688212
9.732441471571907,5.992634227056765
9.752508361204013,6.051906678603302
9.77257525083612,6.107041711228895
9.792642140468226,6.15793466864022
9.812709030100335,6.204490481198176
9.832775919732441,6.246623417047692
9.852842809364548,6.284256867842692
9.872909698996656,6.317323165655788
9.89297658862876,6.345763428104579
9.91304347826087,6.369527429141678
9.933110367892976,6.388573493344723
9.953177257525082,6.402868411907848
9.97324414715719,6.412387378879953
9.993311036789297,6.417113946521577
10.013377926421404,6.417039998964075
10.033444816053512,6.412165743656201
10.053511705685617,6.4024997203779765
10.073578595317725,6.388058827893131
10.093645484949834,6.368868368604179
10.113712374581938,6.344962111870939
10.133779264214047,6.316382376958977
10.153846153846153,6.283180136901784
10.17391304347826,6.245415144893829
10.193979933110368,6.203156085183591
10.214046822742475,6.156480750809842
10.234113712374581,6.105476250923129
10.254180602006688,6.050239250858754
10.274247491638796,5.990876248578486
10.294314381270903,5.9275038915734735
10.31438127090301,5.860249338816003
10.334448160535118,5.789250672854318
10.354515050167223,5.714657367648355
10.37458193979933,5.636630818222475
10.394648829431437,5.555344938631005
10.414715719063544,5.470986835045619
10.434782608695652,5.383757560911721
10.454849498327757,5.293872960988847
10.474916387959865,5.201564610557986
10.494983277591974,5.107080854969444
10.515050167224079,5.010687952784843
10.535117056856187,4.912671322728816
10.555183946488295,4.813336890115049
10.5752508361204,4.71301252185159
10.595317725752508,4.6120495299544295
10.615384615384615,4.510824210991299
10.635451505016722,4.40973937224014
10.65551839464883,4.30922577375805
10.675585284280936,4.209743388295811
10.695652173913043,4.1117823476477335
10.71571906354515,4.015863404822714
10.735785953177256,3.922537697695055
10.755852842809364,3.8323855546110317
10.775919732441471,3.7460140413103535
10.795986622073578,3.6640529201176477
10.816053511705684,3.5871486887887665
10.836120401337793,3.5159564028027956
10.856187290969899,3.451129077618529
10.876254180602006,3.393304630269879
10.896321070234114,3.3430905581322277
10.916387959866219,3.3010468568463667
10.936454849498327,3.267668017810023
10.956521739130435,3.2433652636202557
