Frequency (Hz),Amplitude
0.0,1.9789526808302078
0.019867549668874173,1.9787220315368315
0.039735099337748346,1.9780308435639147
0.059602649006622516,1.9768813956221216
0.07947019867549669,1.975277482180278
0.09933774834437085,1.973224408348353
0.11920529801324503,1.9707289826260503
0.13907284768211922,1.9677995074298373
0.15894039735099338,1.9644457672851112
0.17880794701986755,1.960679014545794
0.1986754966887417,1.956511952477362
0.2185430463576159,1.9519587155152462
0.23841059602649006,1.9470348464837501
0.2582781456953642,1.9417572705381225
0.27814569536423844,1.9361442655666758
0.2980132450331126,1.9302154287687414
0.31788079470198677,1.9239916391023852
0.33774834437086093,1.917495015277571
0.3576158940397351,1.9107488689550545
0.3774834437086093,1.9037776527990955
0.3973509933774834,1.8966069030255552
0.4172185430463576,1.8892631760860594
0.4370860927152318,1.8817739791345731
0.45695364238410596,1.8741676939379646
0.4768211920529801,1.8664734939156151
0.49668874172185434,1.8587212540288975
0.5165562913907285,1.8509414532887587
0.5364238410596026,1.8431650697107924
0.5562913907284769,1.8354234676229182
0.5761589403973509,1.827748277322135
0.5960264900662252,1.8201712671834294
0.6158940397350993,1.812724208446948
0.6357615894039735,1.805438733047035
0.6556291390728477,1.7983461849988651
0.6754966887417219,1.7914774660212998
0.695364238410596,1.7848628762475323
0.7152317880794702,1.7785319510525326
0.7350993377483444,1.7725132952043654
0.7549668874172186,1.766834415720397
0.7748344370860927,1.7615215549718708
0.7947019867549668,1.7565995257261566
0.8145695364238411,1.7520915499374985
0.8344370860927152,1.7480191031882526
0.8543046357615894,1.7444017667370013
0.8741721854304636,1.7412570891419432
0.8940397350993378,1.738600459394015
0.9139072847682119,1.7364449934106634
0.9337748344370861,1.7348014356086454
0.9536423841059603,1.7336780770918994
0.9735099337748344,1.7330806917639545
0.9933774834437087,1.7330124914070333
1.0132450331125828,1.7334741004705467
1.033112582781457,1.734463550988413
1.0529801324503312,1.7359762977079045
1.0728476821192052,1.7380052531734882
1.0927152317880795,1.74054084217803
1.1125827814569538,1.743571074681788
1.1324503311258278,1.7470816360160608
1.1523178807947019,1.751055992941369
1.1721854304635762,1.7554755139262335
1.1920529801324504,1.760319601856025
1.2119205298013245,1.7655658372741312
1.2317880794701985,1.7711901302005468
1.2516556291390728,1.7771668785629595
1.271523178807947,1.7834691313104543
1.2913907284768211,1.790068754353569
1.3112582781456954,1.7969365975823266
1.3311258278145695,1.804042661348602
1.3509933774834437,1.8113562609536678
1.370860927152318,1.8188461878515718
1.390728476821192,1.8264808664543286
1.410596026490066,1.8342285056038987
1.4304635761589404,1.8420572439502683
1.4503311258278146,1.8499352886435254
1.4701986754966887,1.8578310469041992
1.4900662251655628,1.8657132501814657
1.5099337748344372,1.8735510707378824
1.5298013245033113,1.8813142306139257
1.5496688741721854,1.88897310302405
1.5695364238410596,1.8964988063189139
1.5894039735099337,1.9038632907163149
1.609271523178808,1.9110394180572847
1.6291390728476822,1.918001034884709
1.6490066225165563,1.9247230391714272
1.6688741721854303,1.9311814410432133
1.6887417218543048,1.937353417852866
1.7086092715231789,1.9432173639632475
1.728476821192053,1.948752935593455
1.7483443708609272,1.9539410910727626
1.7682119205298013,1.9587641268330747
1.7880794701986755,1.9632057094536848
1.8079470198675496,1.9672509040522566
1.8278145695364238,1.9708861992938096
1.847682119205298,1.974099529267023
1.8675496688741722,1.9768802924520619
1.8874172185430464,1.979219367980239
1.9072847682119205,1.98110912935966
1.9271523178807946,1.982543455816644
1.9470198675496688,1.9835177413764342
1.9668874172185429,1.9840289017820352
1.9867549668874174,1.9840753793243868
2.0066225165562916,1.983657145631769
2.0264900662251657,1.9827757024416692
2.0463576158940397,1.9814340803526798
2.066225165562914,1.9796368355289093
2.086092715231788,1.9773900443043506
2.1059602649006623,1.97470129560877
2.1258278145695364,1.9715796811113564
2.1456953642384105,1.9680357829525732
2.165562913907285,1.9640816589082968
2.185430463576159,1.9597308248050527
2.205298013245033,1.9549982339785086
2.2251655629139075,1.9499002535421859
2.2450331125827816,1.944454637208186
2.2649006622516556,1.9386804943772304
2.2847682119205297,1.9325982551931624
2.3046357615894038,1.9262296312353135
2.324503311258278,1.9195975715047626
2.3443708609271523,1.9127262133450957
2.364238410596027,1.9056408279282646
2.384105960264901,1.8983677599307232
2.403973509933775,1.8909343610273839
2.423841059602649,1.8833689168394263
2.443708609271523,1.8757005669918567
2.463576158940397,1.8679592179654134
2.4834437086092715,1.8601754484692208
2.5033112582781456,1.8523804071155665
2.52317880794702,1.8446057022476228
2.543046357615894,1.8368832838560654
2.562913907284768,1.8292453176222503
2.5827814569536423,1.8217240512433843
2.6026490066225163,1.8143516733293086
2.622516556291391,1.8071601653104918
2.642384105960265,1.8001811469596147
2.662251655629139,1.793445716303852
2.6821192052980134,1.7869842848867563
2.7019867549668874,1.7808264095244273
2.7218543046357615,1.775000621884222
2.741721854304636,1.7695342573906614
2.76158940397351,1.7644532851245711
2.781456953642384,1.759782140522685
2.801324503311258,1.7555435627971372
2.821192052980132,1.7517584390716419
2.8410596026490067,1.7484456572676195
2.8609271523178808,1.7456219697638666
2.8807947019867552,1.7433018697930094
2.9006622516556293,1.7414974824268634
2.9205298013245033,1.7402184718397185
2.9403973509933774,1.7394719663256102
2.9602649006622515,1.739262502289188
2.9801324503311255,1.7395919881343023
3.0,1.7404596886502066
3.0198675496688745,1.741862230151691
3.0397350993377485,1.743793626277534
3.0596026490066226,1.7462453240030955
3.0794701986754967,1.7492062690892558
3.0993377483443707,1.7526629898807953
3.119205298013245,1.7565996980934129
3.1390728476821192,1.7609984049960379
3.1589403973509933,1.7658390512105255
3.1788079470198674,1.771099648216621
3.198675496688742,1.7767564295680078
3.218543046357616,1.7827840097937855
3.23841059602649,1.789155548976373
3.2582781456953644,1.7958429210562379
3.2781456953642385,1.8028168840115681
3.2980132450331126,1.8100472501893214
3.3178807947019866,1.8175030552163036
3.3377483443708607,1.8251527240891439
3.3576158940397347,1.8329642332216505
3.3774834437086096,1.8409052674123265
3.3973509933774837,1.848943370878105
3.4172185430463577,1.8570460916770828
3.437086092715232,1.8651811190105645
3.456953642384106,1.8733164130495
3.47682119205298,1.8814203270704835
3.4966887417218544,1.8894617218111556
3.5165562913907285,1.8974100720624845
3.5364238410596025,1.9052355656075044
3.556291390728477,1.9129091946917236
3.576158940397351,1.920402840271389
3.596026490066225,1.9276893493328668
3.615894039735099,1.9347426056109116
3.6357615894039736,1.941537594056922
3.6556291390728477,1.948050459421654
3.6754966887417218,1.9542585593221766
3.695364238410596,1.9601405121606141
3.7152317880794703,1.9656762402543524
3.7350993377483444,1.9708470085248408
3.754966887417219,1.9756354590750898
3.774834437086093,1.9800256419669386
3.794701986754967,1.9840030424870292
3.814569536423841,1.9875546051671669
3.834437086092715,1.9906687547999848
3.854304635761589,1.9933354146659195
3.8741721854304636,1.9955460221611476
3.8940397350993377,1.9972935419908853
3.9139072847682117,1.9985724770656863
3.9337748344370858,1.999378877212993
3.9536423841059607,1.999710345789801
3.9735099337748347,1.9995660442567222
3.993377483443709,1.9989466947476668
4.013245033112583,1.9978545806437449
4.033112582781457,1.9962935451338113
4.052980132450331,1.9942689877184039
4.072847682119205,1.9917878585870599
4.0927152317880795,1.9888586507730952
4.112582781456953,1.9854913899625901
4.132450331125828,1.9816976218077427
4.152317880794702,1.9774903965671238
4.172185430463576,1.972884250868189
4.19205298013245,1.9678951863599898
4.211920529801325,1.9625406449968095
4.231788079470199,1.9568394806670926
4.251655629139073,1.9508119268563722
4.271523178807947,1.9444795600091076
4.291390728476821,1.93786525823238
4.311258278145695,1.9309931549657917
4.33112582781457,1.923888587226826
4.3509933774834435,1.9165780380312154
4.370860927152318,1.9090890725838647
4.390728476821192,1.901450267839835
4.410596026490066,1.8936911350473127
4.43046357615894,1.8858420349077072
4.450331125827815,1.8779340850231048
4.470198675496689,1.869999059349695
4.490066225165563,1.8620692794396625
4.509933774834438,1.854177497333437
4.529801324503311,1.8463567700616177
4.549668874172186,1.8386403258304493
4.569536423841059,1.831061422097729
4.589403973509934,1.8236531958962574
4.6092715231788075,1.8164485069283427
4.629139072847682,1.8094797741351494
4.649006622516556,1.8027788066362411
4.66887417218543,1.7963766301325057
4.688741721854305,1.7903033100656764
4.708609271523179,1.784587773023251
4.728476821192054,1.7792576280620869
4.748344370860927,1.7743389897900883
4.768211920529802,1.769856305185449
4.788079470198675,1.765832186238938
4.80794701986755,1.762287250570196
4.827814569536423,1.759239972186946
4.847682119205298,1.7567065445219467
4.867549668874172,1.7547007577931635
4.887417218543046,1.753233892586956
4.9072847682119205,1.7523146313629467
4.927152317880794,1.7519489893275224
4.947019867549669,1.7521402658252527
4.966887417218543,1.752889017063726
4.986754966887418,1.75419305062684
5.006622516556291,1.7560474418564562
5.026490066225166,1.7584445718046628
5.04635761589404,1.7613741860918652
5.066225165562914,1.764823473660441
5.086092715231788,1.768777164102206
5.105960264900662,1.7732176419674177
5.125827814569536,1.7781250762428165
5.14569536423841,1.7834775630190125
5.1655629139072845,1.7892512792566764
5.185430463576159,1.7954206455055444
5.205298013245033,1.801958495428578
5.225165562913908,1.8088362500302793
5.245033112582782,1.8160240945785922
5.264900662251656,1.8234911563361325
5.28476821192053,1.8312056813717983
5.304635761589404,1.8391352089003339
5.324503311258278,1.8472467417876126
5.344370860927152,1.8555069120560428
5.364238410596027,1.863882140422289
5.3841059602649,1.8723387890913865
5.403973509933775,1.8808433072148902
5.4238410596026485,1.8893623685904848
5.443708609271523,1.8978630013360749
5.463576158940397,1.9063127094092094
5.483443708609272,1.9146795859635992
5.503311258278146,1.92293241863721
5.52317880794702,1.9310407869523738
5.543046357615895,1.9389751520771696
5.562913907284768,1.9467069392514995
5.582781456953643,1.9542086132213128
5.602649006622516,1.9614537470517321
5.622516556291391,1.9684170847069509
5.642384105960264,1.975074597791642
5.662251655629139,1.9814035368483287
5.682119205298013,1.9873824775976205
5.701986754966887,1.9929913624959366
5.7218543046357615,1.998211537968002
5.741721854304636,2.0030257876516826
5.7615894039735105,2.007418361969658
5.781456953642384,2.0113750043178875
5.801324503311259,2.0148829741353556
5.821192052980132,2.017931067092496
5.841059602649007,2.0205096326091034
5.860927152317881,2.0226105888848025
5.880794701986755,2.024227435598143
5.900662251655629,2.025355264402939
5.920529801324503,2.025990767323351
5.940397350993377,2.026132243122117
5.960264900662251,2.0257796016893423
5.980132450331126,2.0249343664724
6.0,2.0235996749400784
6.0198675496688745,2.0217802770475037
6.039735099337749,2.019482531640031
6.059602649006623,2.0167144007074738
6.079470198675497,2.0134854413708627
6.099337748344371,2.00980679545602
6.119205298013245,2.0056911764787904
6.139072847682119,2.0011528538372927
6.158940397350993,1.9962076339770312
6.178807947019867,1.990872838264759
6.198675496688741,1.985167277277413
6.218543046357616,1.979111221183287
6.23841059602649,1.972726365864942
6.258278145695365,1.9660357944067006
6.2781456953642385,1.9590639335458013
6.298013245033113,1.9518365046660895
6.317880794701987,1.9443804688966686
6.337748344370861,1.9367239658677007
6.357615894039735,1.9288962456722993
6.377483443708609,1.9209275935887629
6.397350993377484,1.912849247132646
6.417218543046357,1.904693305036181
6.437086092715232,1.896492627793634
6.456953642384105,1.8882807294683306
6.47682119205298,1.8800916605309765
6.496688741721854,1.871959881591986
6.516556291390729,1.8639201280026987
6.5364238410596025,1.8560072654331463
6.556291390728477,1.8482561366869923
6.5761589403973515,1.8407014001866884
6.596026490066225,1.833377360751895
6.6158940397351,1.8263177934994592
6.635761589403973,1.8195557619092702
6.655629139072848,1.813123431322928
6.675496688741721,1.8070518793643904
6.695364238410596,1.8013709049866928
6.715231788079469,1.7961088380489685
6.735099337748344,1.791292351503949
6.754966887417219,1.786946278419143
6.774834437086093,1.7830934361574085
6.794701986754967,1.7797544600951176
6.814569536423841,1.776947649253329
6.8344370860927155,1.7746888261541705
6.854304635761589,1.772991213087526
6.874172185430464,1.7718653267833058
6.894039735099337,1.7713188932339994
6.913907284768212,1.7713567841068492
6.933774834437086,1.7719809758325304
6.95364238410596,1.7731905320700803
6.973509933774834,1.7749816098357671
6.993377483443709,1.7773474891641678
7.013245033112583,1.7802786257533116
7.033112582781457,1.7837627256503843
7.052980132450331,1.7877848406694286
7.072847682119205,1.7923274829125568
7.0927152317880795,1.7973707564971921
7.112582781456954,1.8028925043832227
7.132450331125828,1.8088684680463136
7.152317880794702,1.8152724576605563
7.172185430463576,1.822076530430608
7.19205298013245,1.829251174748358
7.211920529801324,1.8367654979346189
7.231788079470198,1.8445874154551398
7.251655629139073,1.8526838396643683
7.271523178807947,1.8610208663207695
7.291390728476822,1.8695639573253255
7.311258278145695,1.8782781183529635
7.33112582781457,1.887128070265919
7.3509933774834435,1.8960784134141517
7.370860927152318,1.9050937841338473
7.390728476821192,1.9141390029475767
7.410596026490066,1.9231792141454263
7.430463576158941,1.9321800165837297
7.450331125827814,1.9411075856752134
7.470198675496689,1.9499287866622
7.490066225165562,1.9586112793619208
7.509933774834438,1.967123614652673
7.52980132450331,1.9754353230312347
7.549668874172186,1.9835169956179801
7.569536423841059,1.9913403580182936
7.589403973509934,1.9988783374681949
7.6092715231788075,2.006105123701162
7.629139072847682,2.0129962239730506
7.649006622516557,2.019528512674396
7.66887417218543,2.0256802759458497
7.6887417218543055,2.031431251694116
7.708609271523178,2.0367626653839466
7.728476821192054,2.041657261956405
7.748344370860927,2.0460993341975904
7.768211920529802,2.0500747478532415
7.788079470198675,2.053570963756267
7.80794701986755,2.0565770572046196
7.827814569536423,2.0590837347976265
7.847682119205298,2.0610833489093827
7.8675496688741715,2.0625699099486834
7.887417218543046,2.0635390965258877
7.907284768211921,2.06398826361816
7.927152317880795,2.063916448796189
7.9470198675496695,2.06332437654635
7.966887417218543,2.0622144606941815
7.986754966887418,2.060590804905786
8.006622516556291,2.05845920121483
8.026490066225167,2.05582712649323
8.046357615894038,2.052703736753489
8.066225165562914,2.049099859139952
8.086092715231787,2.0450279814349264
8.105960264900663,2.0405022388733838
8.125827814569536,2.0355383980274198
8.14569536423841,2.0301538374883825
8.165562913907285,2.024367525041147
8.185430463576159,2.018199990991389
8.205298013245034,2.0116732972739406
8.225165562913906,2.004811001938334
8.245033112582782,1.9976381185772858
8.264900662251655,1.9901810702366651
8.28476821192053,1.9824676373217571
8.304635761589404,1.9745268989957503
8.324503311258278,1.9663891675548075
8.344370860927151,1.9580859152596708
8.364238410596027,1.9496496931104443
8.3841059602649,1.94111404106914
8.403973509933774,1.9325133892674118
8.42384105960265,1.9238829497852883
8.443708609271523,1.9152585986544173
8.463576158940398,1.9066767478265083
8.483443708609272,1.898174206957712
8.503311258278146,1.8897880349921494
8.52317880794702,1.8815553816850896
8.543046357615895,1.8735133193863083
8.562913907284768,1.8656986656076582
8.582781456953642,1.858147797122087
8.602649006622515,1.8508964565817068
8.62251655629139,1.8439795528945775
8.642384105960264,1.8374309568575509
8.66225165562914,1.8312832937979941
8.682119205298013,1.8255677352217967
8.701986754966887,1.820313791688633
8.721854304635762,1.8155491093277643
8.741721854304636,1.8112992725582489
8.76158940397351,1.8075876156761217
8.781456953642383,1.8044350460091305
8.801324503311259,1.8018598813094877
8.821192052980132,1.799877703952745
8.841059602649008,1.7985012343334046
8.86092715231788,1.7977402255975587
8.880794701986755,1.7976013815338658
8.90066225165563,1.798088299065542
8.920529801324504,1.7992014363577034
8.940397350993377,1.800938107092856
8.960264900662251,1.8032925009853695
8.980132450331126,1.806255730123511
9.0,1.8098159002594139
9.019867549668875,1.8139582057316688
9.039735099337747,1.8186650463143015
9.059602649006623,1.8239161639539354
9.079470198675496,1.8296887970903826
9.099337748344372,1.8359578500622773
9.119205298013245,1.8426960749796155
9.139072847682119,1.8498742633974687
9.158940397350994,1.8574614451474105
9.178807947019868,1.8654250917656372
9.198675496688743,1.8737313220940492
9.218543046357615,1.8823451078103954
9.23841059602649,1.8912304768568848
9.258278145695364,1.900350712973091
9.27814569536424,1.9096685497879813
9.298013245033111,1.919146358179256
9.317880794701987,1.928746325857321
9.33774834437086,1.9384306283707813
9.357615894039736,1.9481615909533128
9.37748344370861,1.9579018408368918
9.397350993377483,1.9676144498383383
9.417218543046358,1.9772630671866265
9.437086092715232,1.9868120426940008
9.456953642384107,1.9962265404877562
9.47682119205298,2.0054726436110295
9.496688741721854,2.0145174498720446
9.516556291390728,2.023329159373946
9.536423841059603,2.0318771541940053
9.556291390728477,2.0401320707026427
9.57615894039735,2.0480658650222225
9.596026490066224,2.0556518721253276
9.6158940397351,2.0628648590627914
9.635761589403973,2.069681072795566
9.655629139072847,2.0760782830837243
9.675496688741722,2.082035820859899
9.695364238410596,2.0875346124865652
9.715231788079471,2.0925572102658943
9.735099337748345,2.0970878195394462
9.754966887417218,2.1011123226824147
9.774834437086092,2.1046183002643652
9.794701986754967,2.1075950496161493
9.814569536423841,2.1100336010097958
9.834437086092716,2.1119267316264274
9.854304635761588,2.1132689774558298
9.874172185430464,2.1140566432395196
9.894039735099337,2.114287810538752
9.913907284768213,2.113962343977947
9.933774834437086,2.1130818956833326
9.95364238410596,2.111649907905391
9.973509933774835,2.1096716137834073
9.993377483443709,2.1071540361776147
10.013245033112582,2.104105984462943
10.033112582781456,2.1005380491446153
10.052980132450331,2.0964625941221113
10.072847682119205,2.091893746392443
10.09271523178808,2.08684738294755
10.112582781456952,2.0813411145837213
10.132450331125828,2.075394266301886
10.152317880794701,2.0690278539398506
10.172185430463577,2.06226455663782
10.192052980132452,2.055128684699708
10.211920529801324,2.0476461423753247
10.2317880794702,2.0398443850518984
10.251655629139073,2.031752370310537
10.271523178807948,2.0234005022742085
10.29139072847682,2.0148205686507943
10.311258278145695,2.0060456698592684
10.331125827814569,1.9971101396212378
10.350993377483444,1.988049456406598
10.370860927152318,1.9789001451427413
10.390728476821192,1.9696996686347625
10.410596026490065,1.960486308202042
10.43046357615894,1.9512990331167201
10.450331125827816,1.9421773585350877
10.470198675496688,1.9331611917450597
10.490066225165563,1.924290666713457
10.509933774834437,1.9156059671072008
10.529801324503312,1.9071471381808967
10.549668874172186,1.8989538881701615
10.56953642384106,1.8910653800999724
10.589403973509933,1.88352001520812
10.609271523178808,1.8763552094869165
10.629139072847682,1.8696071651549993
10.649006622516556,1.8633106391742877
10.66887417218543,1.85749871121437
10.688741721854305,1.852202553724498
10.70860927152318,1.8474512069899485
10.728476821192054,1.8432713622101802
