Time (s),Filtered Signal
0.0,-0.0321457242835438
0.033370165745856356,-0.04696479971382871
0.06674033149171271,-0.047473674454477165
0.10011049723756907,-0.02323959125697678
0.13348066298342542,0.03154552676044393
0.16685082872928178,0.11584512221729681
0.20022099447513814,0.22103865756551153
0.2335911602209945,0.3326902780894159
0.26696132596685085,0.4345319073127092
0.30033149171270723,0.5128363899394078
0.33370165745856356,0.5589124369666678
0.3670718232044199,0.5686966394918491
0.4004419889502763,0.5405902006857449
0.43381215469613266,0.47411217553355045
0.467182320441989,0.37132463861403064
0.5005524861878453,0.2405560653366771
0.5339226519337017,0.09943983511886016
0.5672928176795581,-0.026302628556866037
0.6006629834254145,-0.10981524196011715
0.6340331491712707,-0.13363907944940573
0.6674033149171271,-0.09877772470429101
0.7007734806629835,-0.027082562321193226
0.7341436464088398,0.04535796302647905
0.7675138121546962,0.08168579681734944
0.8008839779005525,0.05889304906437636
0.8342541436464089,-0.02286401540347302
0.8676243093922653,-0.14033698837020228
0.9009944751381216,-0.2565362300903889
0.934364640883978,-0.3353284093864858
0.9677348066298344,-0.3552702548042491
1.0011049723756906,-0.3172505474144268
1.0344751381215471,-0.24318181443696466
1.0678453038674034,-0.16658388819354597
1.1012154696132597,-0.11907366378777509
1.1345856353591162,-0.11835205783279922
1.1679558011049724,-0.1626219620971788
1.201325966850829,-0.23363600555942962
1.2346961325966852,-0.306775670114851
1.2680662983425415,-0.363299665666025
1.301436464088398,-0.3987299278878061
1.3348066298342542,-0.4230487075617135
1.3681767955801105,-0.45243032818118417
1.401546961325967,-0.4968080228459331
1.4349171270718233,-0.5502895108530063
1.4682872928176796,-0.5905202177694794
1.501657458563536,-0.5885270510596622
1.5350276243093923,-0.5244363493939038
1.5683977900552488,-0.40013106338052695
1.601767955801105,-0.24033135638191316
1.6351381215469614,-0.07936981184696626
1.6685082872928179,0.06046541174946898
1.7018784530386741,0.18653150106321714
1.7352486187845306,0.3367955951688
1.768618784530387,0.5594008113953932
1.8019889502762432,0.8785330263098936
1.8353591160220997,1.2645725043352127
1.868729281767956,1.6278282202118706
1.9020994475138122,1.8450309401235179
1.9354696132596687,1.810438396039631
1.968839779005525,1.4882509966651047
2.0022099447513813,0.9393349038384268
2.0355801104972375,0.3062918093914226
2.0689502762430942,-0.23861752948263687
2.1023204419889505,-0.559411255724369
2.135690607734807,-0.6060896103762359
2.169060773480663,-0.4265260517355952
2.2024309392265193,-0.13767661449365323
2.235801104972376,0.1279931739998565
2.2691712707182323,0.2753263676026638
2.3025414364640886,0.2761501125797614
2.335911602209945,0.1664211078338442
2.369281767955801,0.017097156513658292
2.402651933701658,-0.10424191450284878
2.436022099447514,-0.16243253225053023
2.4693922651933704,-0.1630022955377446
2.5027624309392267,-0.1397215693087131
2.536132596685083,-0.13135454566581037
2.5695027624309392,-0.16141310515685495
2.602872928176796,-0.2314237710277176
2.636243093922652,-0.32991560598343705
2.6696132596685085,-0.45023002063218825
2.7029834254143648,-0.604749049343312
2.736353591160221,-0.8241444116502764
2.7697237569060777,-1.1379258581618943
2.803093922651934,-1.54381628588398
2.8364640883977903,-1.9826850630314186
2.8698342541436466,-2.3371147197280657
2.903204419889503,-2.4624736606412125
2.936574585635359,-2.242638809110378
2.969944751381216,-1.646677217386224
3.003314917127072,-0.7576130712628887
3.0366850828729284,0.24511948292995153
3.0700552486187846,1.1457832356202724
3.103425414364641,1.7691884685762524
3.1367955801104976,2.0393005399697666
3.170165745856354,1.9939578095667558
3.20353591160221,1.7525329550109665
3.2369060773480665,1.4560929056228435
3.2702762430939227,1.2103450131089206
3.3036464088397794,1.0559624849858371
3.3370165745856357,0.9737841216272978
3.370386740331492,0.9143537347404896
3.4037569060773483,0.8317640905266542
3.4371270718232045,0.7043280776831232
3.4704972375690613,0.535812618545907
3.5038674033149175,0.3433151723668628
3.537237569060774,0.14428099117069312
3.57060773480663,-0.047200168589423115
3.6039779005524863,-0.21338744762373543
3.6373480662983426,-0.32292052443928104
3.6707182320441993,-0.3294493656404215
3.7040883977900556,-0.18628868378952568
3.737458563535912,0.12552655369641072
3.770828729281768,0.5688137419984275
3.8041988950276244,1.0390126328180664
3.837569060773481,1.3827959885989312
3.8709392265193374,1.4459335226194252
3.9043093922651937,1.1341485297290883
3.93767955801105,0.4607054653097577
3.9710497237569062,-0.4435012713795146
4.0044198895027625,-1.366734163206593
4.037790055248619,-2.0880001657229648
4.071160220994475,-2.4540711848014336
4.104530386740332,-2.428966750203054
4.1379005524861885,-2.09551051863165
4.171270718232044,-1.6109328888850667
4.204640883977901,-1.1389711487456278
4.238011049723757,-0.7893890158715932
4.271381215469614,-0.5891554276729604
4.30475138121547,-0.49249632113778713
4.338121546961326,-0.4189781293636295
4.371491712707183,-0.2982446559350422
4.404861878453039,-0.10074454388640766
4.438232044198895,0.1563327607633958
4.471602209944752,0.42561687031056467
4.504972375690608,0.65649466684832
4.538342541436465,0.8176892086830113
4.5717127071823205,0.9054186858830028
4.605082872928177,0.9358392686571759
4.638453038674034,0.9286700107417662
4.67182320441989,0.8926470570282765
4.7051933701657465,0.8213401193646251
4.738563535911602,0.7013914392159036
4.771933701657459,0.527946985270723
4.805303867403316,0.3177328095905676
4.8386740331491715,0.11110198041426866
4.872044198895028,-0.039957508862663485
4.905414364640884,-0.09323279726550555
4.938784530386741,-0.036840352198095803
4.972154696132597,0.10188344205028216
5.005524861878453,0.26474112926295595
5.03889502762431,0.385339335257444
5.072265193370166,0.4157359710944582
5.105635359116023,0.3445705235114337
5.1390055248618784,0.19847153189161215
5.172375690607735,0.02694131700741602
5.205745856353592,-0.12113592802012701
5.239116022099448,-0.21781762891871354
5.272486187845304,-0.26423279646656794
5.30585635359116,-0.284129491188211
5.339226519337017,-0.3075491629156349
5.372596685082874,-0.3534728628090154
5.4059668508287295,-0.41987211644986727
5.439337016574586,-0.4853346509236181
5.472707182320442,-0.5206383520657534
5.506077348066299,-0.5040370865922302
5.5394475138121555,-0.43256367895684333
5.572817679558011,-0.3238293609575316
5.606187845303868,-0.20748686805154457
5.639558011049724,-0.1105236098009604
5.672928176795581,-0.04355198836337896
5.706298342541437,0.005105506222043721
5.739668508287293,0.06427808251283032
5.77303867403315,0.1655447121631617
5.806408839779006,0.3256157803187248
5.839779005524862,0.5331862125978577
5.873149171270718,0.7463945465780853
5.906519337016575,0.9030180535951094
5.939889502762432,0.9406225999899589
5.9732596685082875,0.8197762278003181
6.006629834254144,0.5415847427166217
6.04,0.15213914863928038
6.073370165745857,-0.2690347233222714
6.1067403314917135,-0.6331372496684186
6.140110497237569,-0.8699966273996675
6.173480662983426,-0.9489189666484428
6.206850828729282,-0.8845732545980917
6.240220994475139,-0.7264309242820358
6.273591160220995,-0.5371315948461451
6.306961325966851,-0.36920427916612936
6.340331491712708,-0.24927078950431883
6.373701657458564,-0.17483058614096036
6.40707182320442,-0.12312932583952654
6.440441988950277,-0.06689340858439126
6.473812154696133,0.010424436286326035
6.50718232044199,0.10630782367319522
6.5405524861878455,0.20082626729096759
6.573922651933702,0.2670363567745282
6.607292817679559,0.2852648366754524
6.640662983425415,0.2547778660105768
6.674033149171271,0.19731816133192956
6.707403314917127,0.15025635810134233
6.740773480662984,0.15150481563837825
6.774143646408841,0.22220200003281662
6.8075138121546965,0.3548008560020376
6.840883977900553,0.5125618260013691
6.874254143646409,0.6418461782317283
6.907624309392266,0.6928172249958852
6.9409944751381225,0.6398742387531204
6.974364640883978,0.4926449995609573
7.007734806629835,0.29219444593121974
7.041104972375691,0.09363554540321457
7.074475138121548,-0.057467630276872315
7.107845303867403,-0.1445090451029525
7.14121546961326,-0.18623126135120857
7.174585635359117,-0.22675454931097877
7.207955801104973,-0.313025130689527
7.241325966850829,-0.46924932051052615
7.274696132596685,-0.6798148769500975
7.308066298342542,-0.8892263126000318
7.341436464088399,-1.0206398919721476
7.3748066298342545,-1.0064319742314698
7.408176795580111,-0.8184235733255665
7.441546961325967,-0.48469674508072014
7.474917127071824,-0.08496650027609513
7.5082872928176805,0.27483615807235257
7.541657458563536,0.4995443960499747
7.575027624309393,0.5392936746390193
7.608397790055249,0.4084440277625776
7.641767955801106,0.1815032607760646
7.675138121546962,-0.03302773715522038
7.708508287292818,-0.1320888624404166
7.741878453038675,-0.056956030166288446
7.775248618784531,0.1828173957228324
7.808618784530387,0.5104071849770145
7.841988950276244,0.808956261572883
7.8753591160221,0.9658750016032472
7.908729281767957,0.9170028698204193
7.9420994475138125,0.6720259321002781
7.975469613259669,0.30957466927423943
8.008839779005525,-0.056424900750280976
8.042209944751383,-0.32426528805208327
8.075580110497238,-0.4442561871966605
8.108950276243094,-0.4329592659852931
8.14232044198895,-0.3565933658103563
8.175690607734808,-0.29334909730514064
8.209060773480664,-0.2940024107594979
8.24243093922652,-0.35976724773733626
8.275801104972377,-0.44656967534730774
8.309171270718233,-0.49139680151450205
8.342541436464089,-0.44605450117738943
8.375911602209946,-0.3013289321162986
8.409281767955802,-0.09065058965625797
8.442651933701658,0.12675147681011312
8.476022099447514,0.2932512164075537
8.509392265193371,0.3766459211232208
8.542762430939227,0.3794856918559861
8.576132596685083,0.33134899110626637
8.60950276243094,0.27019542553254733
8.642872928176796,0.22346133433655327
8.676243093922652,0.19810769948797344
8.709613259668508,0.18292568624564154
8.742983425414366,0.15971648049759635
8.776353591160222,0.11602289528165327
8.809723756906077,0.05246629264549771
8.843093922651935,-0.01843357064622069
8.87646408839779,-0.08021797780098099
8.909834254143647,-0.12210660532227893
8.943204419889504,-0.14471727804597698
8.97657458563536,-0.15881283337947746
9.009944751381216,-0.17800310417888943
9.043314917127072,-0.20974967125631258
9.07668508287293,-0.25002110720080506
9.110055248618785,-0.28493465876976387
9.143425414364641,-0.29875203195229927
9.176795580110499,-0.2838571384807233
9.210165745856354,-0.24693189378607724
9.24353591160221,-0.2072900436458204
9.276906077348068,-0.18735256434943412
9.310276243093924,-0.1995083882931862
9.34364640883978,-0.235984337992806
9.377016574585635,-0.2676431645625853
9.410386740331493,-0.2539947947744711
9.443756906077349,-0.16154393400771702
9.477127071823205,0.01695955823536145
9.510497237569062,0.25162415623482876
9.543867403314918,0.4799228506123485
9.577237569060774,0.6276662985347456
9.610607734806631,0.6398319105066115
9.643977900552487,0.5086555394701939
9.677348066298343,0.2853715629884757
9.710718232044199,0.06734079806900908
9.744088397790057,-0.03750363265088015
9.777458563535912,0.043875626412077116
9.810828729281768,0.31335377099150996
9.844198895027626,0.6918624298551371
9.877569060773482,1.043150477050811
9.910939226519337,1.2234388360273099
9.944309392265193,1.136868979167047
9.97767955801105,0.7729307319637977
10.011049723756907,0.20973774880773
10.044419889502763,-0.41715632843364236
10.07779005524862,-0.9647971843450981
10.111160220994476,-1.3286510021106388
10.144530386740332,-1.4659112301490542
10.17790055248619,-1.3915892528484655
10.211270718232045,-1.1566390427493842
10.244640883977901,-0.8237219780575945
10.278011049723757,-0.4524884525566831
10.311381215469615,-0.09643150338540758
10.34475138121547,0.1953230212502181
10.378121546961326,0.37999032543594846
10.411491712707184,0.43052527725955014
10.44486187845304,0.34824023204020876
10.478232044198895,0.1695533413208513
10.511602209944753,-0.04064252655165601
10.544972375690609,-0.2093615108371292
10.578342541436465,-0.28178549409268544
10.61171270718232,-0.24127229653007246
10.645082872928178,-0.11334782206837683
10.678453038674034,0.04831285962150995
10.71182320441989,0.18698414795318077
10.745193370165747,0.26684564283495515
10.778563535911603,0.2846387610872482
10.811933701657459,0.26456182497819775
10.845303867403315,0.24058651988584862
10.878674033149172,0.23639560633488468
10.912044198895028,0.25350518477942746
10.945414364640884,0.2729516494315349
10.978784530386742,0.2682858816323039
11.012154696132598,0.22179865504075896
11.045524861878453,0.13491945197350977
11.078895027624311,0.027714455869094646
11.112265193370167,-0.07127728170293836
11.145635359116023,-0.1386555210074816
11.179005524861878,-0.1658833346815362
11.212375690607736,-0.1606225173312984
11.245745856353592,-0.1399616991730669
11.279116022099448,-0.11987659724104066
11.312486187845305,-0.1067175772614358
11.345856353591161,-0.09500816818010564
11.379226519337017,-0.07236204851447578
11.412596685082875,-0.02863427705533079
11.44596685082873,0.03574180765990383
11.479337016574586,0.10689103966748643
11.512707182320442,0.16200235996828746
11.5460773480663,0.17934170792121218
11.579447513812156,0.14906969824728658
11.612817679558011,0.07966272104798199
11.646187845303869,-0.003265102260713086
11.679558011049725,-0.06555579243089357
11.71292817679558,-0.07721765436568118
11.746298342541436,-0.0243929633610324
11.779668508287294,0.08388369533624478
11.81303867403315,0.2166846894296351
11.846408839779006,0.3298548840403781
11.879779005524863,0.3796948842965505
11.91314917127072,0.3372265283779256
11.946519337016575,0.19818335082807492
11.979889502762433,-0.014827899101877071
12.013259668508288,-0.25875504785613124
12.046629834254144,-0.48264567162087274
12.08,-0.6416718060428964
12.113370165745858,-0.7079501554436667
12.146740331491714,-0.6753841907585751
12.18011049723757,-0.5583515929278037
12.213480662983427,-0.38593324762158354
12.246850828729283,-0.19395524829076363
12.280220994475139,-0.016813127691647386
12.313591160220996,0.11939247225744043
12.346961325966852,0.20115177890491398
12.380331491712708,0.22838841170513544
12.413701657458564,0.2117913139497832
12.447071823204421,0.16777317187571134
12.480441988950277,0.11315009978112386
12.513812154696133,0.06167436043404582
12.54718232044199,0.023452590771998655
12.580552486187846,0.006553949096190109
12.613922651933702,0.018755670453798782
12.64729281767956,0.06727178654783415
12.680662983425416,0.1556238833513032
12.714033149171271,0.2788174502079504
12.747403314917127,0.4195236729714648
12.780773480662985,0.5481500678905223
12.81414364640884,0.6283523669976914
12.847513812154697,0.6272259157995534
12.880883977900554,0.5270468269968778
12.91425414364641,0.3340319094371053
12.947624309392266,0.07995713548730836
12.980994475138122,-0.18517496261733735
13.01436464088398,-0.40761024624337566
13.047734806629835,-0.5463271994261638
13.081104972375691,-0.58511052352173
13.114475138121549,-0.5354549078229321
13.147845303867404,-0.42951978050033235
13.18121546961326,-0.3066854012971443
13.214585635359118,-0.19972103684535986
13.247955801104974,-0.1260100172427405
13.28132596685083,-0.08624905435159279
13.314696132596685,-0.06941450808984544
13.348066298342543,-0.060521410375763765
13.381436464088399,-0.047656656501441304
13.414806629834255,-0.02633867706033184
13.448176795580112,-0.0009852333209549248
13.481546961325968,0.01601926150272482
13.514917127071824,0.007558334942212386
13.548287292817681,-0.042251896591148176
13.581657458563537,-0.1394665856466166
13.615027624309393,-0.2711282611726135
13.648397790055249,-0.3999115510472527
13.681767955801106,-0.46787347151615866
13.715138121546962,-0.412275789088681
13.748508287292818,-0.190953711410736
13.781878453038676,0.19173700391154608
13.815248618784532,0.6710588888030908
13.848618784530387,1.1305607732004401
13.881988950276245,1.4351215385597937
13.9153591160221,1.4784959189045457
13.948729281767957,1.2264731972710525
13.982099447513813,0.7358733307134042
14.01546961325967,0.13858663386242553
14.048839779005526,-0.4048081213695132
14.082209944751382,-0.7630384987880143
14.11558011049724,-0.8791337622156175
14.148950276243095,-0.783701178576677
14.182320441988951,-0.5724569785047829
14.215690607734807,-0.36005945710059123
14.249060773480664,-0.23191193969117582
14.28243093922652,-0.21461731134923676
14.315801104972376,-0.27550315431330513
14.349171270718234,-0.34772024845665506
14.38254143646409,-0.3665888194259518
14.415911602209945,-0.2996864698030462
14.449281767955803,-0.15819064484738843
14.482651933701659,0.01300464810540865
14.516022099447515,0.15897968254128642
14.54939226519337,0.23957787274408607
14.582762430939228,0.24381910223346998
14.616132596685084,0.1889084084633831
14.64950276243094,0.10680785285341922
14.682872928176797,0.026868120780840485
14.716243093922653,-0.036307512792955854
14.749613259668509,-0.08451407923130547
14.782983425414367,-0.1278926930379612
14.816353591160222,-0.17287837310124177
14.849723756906078,-0.21335776798862016
14.883093922651934,-0.2299826207337681
14.916464088397792,-0.19806913906603582
14.949834254143648,-0.10015575730271369
14.983204419889503,0.06288462931439365
15.016574585635361,0.2675168590300192
15.049944751381217,0.47225615060848686
15.083314917127073,0.6297785997262036
15.116685082872928,0.7017302619842696
15.150055248618786,0.6705238080734239
15.183425414364642,0.5437995922850842
15.216795580110498,0.3503754626106703
15.250165745856355,0.12999072575631196
15.283535911602211,-0.07862740990610521
15.316906077348067,-0.2468372101717021
15.350276243093925,-0.3597640663260841
15.38364640883978,-0.41485617936647323
15.417016574585636,-0.4176496318768378
15.450386740331492,-0.377502938849037
15.48375690607735,-0.30500341053178537
15.517127071823205,-0.21118899998292529
15.550497237569061,-0.10769533983392363
15.583867403314919,-0.006824127749456902
15.617237569060775,0.0789830410329132
15.65060773480663,0.13827062373902596
15.683977900552488,0.16209083567991397
15.717348066298344,0.14572840507387094
15.7507182320442,0.09040761407684282
15.784088397790056,0.004554868185922631
15.817458563535913,-0.09609161093816279
15.85082872928177,-0.1903218704705031
15.884198895027625,-0.25566028954701153
15.917569060773483,-0.2744136349087281
15.950939226519338,-0.23982139975022476
15.984309392265194,-0.15975601489279573
16.01767955801105,-0.05575174148101458
16.051049723756908,0.0431635548287542
16.084419889502765,0.10997252409025272
16.11779005524862,0.1288621388537958
16.151160220994477,0.10036517028574843
16.18453038674033,0.04042307436300455
16.21790055248619,-0.02605017254221744
16.251270718232046,-0.07435818123271225
16.2846408839779,-0.08841619327006774
16.318011049723758,-0.06545577527985662
16.351381215469615,-0.015724456996453622
16.38475138121547,0.04234691914787097
16.418121546961327,0.08957644336477816
16.451491712707185,0.11332985048472952
16.48486187845304,0.11202216070616411
16.518232044198896,0.09515980105460527
16.551602209944754,0.07895527563697635
16.584972375690608,0.07933914631734702
16.618342541436466,0.10532275149332598
16.651712707182323,0.15555864795193522
16.685082872928177,0.21953640300142402
16.718453038674035,0.2826781686568655
16.751823204419892,0.33264699145475707
16.785193370165747,0.3634801340572407
16.818563535911604,0.37524986160762075
16.851933701657458,0.36946702039188417
16.885303867403316,0.34310892713988983
16.918674033149173,0.28539962463288165
16.952044198895027,0.1803708441322979
16.985414364640885,0.015185219779070364
17.018784530386743,-0.20920699850612873
17.052154696132597,-0.47042805027080764
17.085524861878454,-0.7247612227421041
17.118895027624312,-0.9166968586558116
17.152265193370166,-0.9956165672401682
17.185635359116024,-0.9338710391898616
17.21900552486188,-0.7391471129855501
17.252375690607735,-0.4554616229057395
17.285745856353593,-0.1511055127108589
