Frequency (Hz),Amplitude
0.0,0.05808962106639548
0.019823788546255508,0.1454025135170717
0.039647577092511016,0.2727154066651889
0.059471365638766524,0.40355683069323345
0.07929515418502203,0.5350170731830568
0.09911894273127755,0.6663621122675852
0.11894273127753305,0.7972553972769497
0.13876651982378857,0.9274774875077244
0.15859030837004406,1.0568539210304333
0.17841409691629956,1.1852309194427888
0.1982378854625551,1.312465669996955
0.2180616740088106,1.438421955402869
0.2378854625550661,1.562968023692192
0.25770925110132165,1.6859754951620507
0.27753303964757714,1.8073187885071256
0.29735682819383263,1.9268748236340032
0.31718061674008813,2.044522879562136
0.3370044052863437,2.1601445428669064
0.3568281938325991,2.273623710705843
0.37665198237885467,2.384846627538655
0.3964757709251102,2.4937019429524576
0.41629955947136565,2.600080782752105
0.4361233480176212,2.703876828285634
0.4559471365638767,2.8049864006869067
0.4757709251101322,2.9033085477897775
0.49559471365638774,2.9987451321550602
0.5154185022026433,3.0912009191025955
0.5352422907488987,3.180583663941859
0.5550660792951543,3.2668041978004565
0.5748898678414097,3.349776511592348
0.5947136563876653,3.429417837768904
0.6145374449339208,3.505648729568279
0.6343612334801763,3.57839313753188
0.6541850220264318,3.6475784830962206
0.6740088105726874,3.713135729098564
0.6938325991189428,3.7749994470581103
0.7136563876651982,3.8331078811124883
0.7334801762114539,3.887403008504785
0.7533039647577093,3.937830596527852
0.7731277533039648,3.9843402558434025
0.7929515418502204,4.026885490102099
0.8127753303964759,4.06542374179863
0.8325991189427313,4.099916434302787
0.8524229074889869,4.130329010013993
0.8722466960352424,4.156630964592476
0.8920704845814978,4.178795877226175
0.9118942731277534,4.196801436897477
0.931718061674009,4.210629464619097
0.9515418502202644,4.220265931613579
0.9713656387665199,4.2257009734154
0.9911894273127755,4.226928899879721
1.0110132158590308,4.22394820108642
1.0308370044052866,4.216761549132815
1.0506607929515421,4.2053757958129765
1.0704845814977975,4.189801966186548
1.090308370044053,4.170055248044289
1.1101321585903086,4.146154977282623
1.1299559471365639,4.11812461920408
1.1497797356828194,4.08599174576555
1.1696035242290752,4.049788008801104
1.1894273127753305,4.009549109251499
1.209251101321586,3.9653147624376848
1.2290748898678416,3.9171286594214
1.248898678414097,3.865038424501819
1.2687224669603525,3.809095568903751
1.288546255506608,3.749355440719966
1.3083700440528636,3.685877171177955
1.3281938325991192,3.6187236173105983
1.3480176211453747,3.547961301120138
1.36784140969163,3.4736603453376156
1.3876651982378856,3.3958944058941243
1.4074889867841411,3.314740601238822
1.4273127753303965,3.2302794386614258
1.4471365638766522,3.1425947378062555
1.4669603524229078,3.0517735516037523
1.4867841409691631,2.957906084896475
1.5066079295154187,2.8610856111063656
1.5264317180616742,2.761408387386653
1.5462555066079295,2.658973568836317
1.5660792951541853,2.553883122548374
1.5859030837004409,2.4462417425432257
1.6057268722466962,2.3361567670536463
1.6255506607929517,2.223738100253896
1.6453744493392073,2.109098141491605
1.6651982378854626,1.9923517266043196
1.6850220264317182,1.8736160883672401
1.7048458149779737,1.7530108472195944
1.7246696035242293,1.6306580504578723
1.7444933920704848,1.5066822906105024
1.7643171806167404,1.381210956918532
1.7841409691629957,1.2543747189197625
1.8039647577092512,1.1263084336112061
1.8237885462555068,0.9971528702146979
1.8436123348017623,0.8670581267437785
1.863436123348018,0.7361908682373912
1.8832599118942732,0.604751239115943
1.9030837004405288,0.4730183502478976
1.9229074889867843,0.3415012773908347
1.9427312775330399,0.21164855595949894
1.9625550660792954,0.09253554469427508
1.982378854625551,0.0899181700792749
2.002202643171806,0.20827699090948879
2.0220264317180616,0.33811164100793617
2.041850220264317,0.46972179800771596
2.061674008810573,0.6016049634787576
2.0814977973568287,0.7332408456383018
2.1013215859030843,0.8643466171813324
2.1211453744493394,0.9947203837786067
2.140969162995595,1.1241943617781893
2.1607929515418505,1.2526175489079496
2.180616740088106,1.3798483313140633
2.2004405286343616,1.5057510021382239
2.220264317180617,1.630194007139143
2.2400881057268722,1.7530490232649776
2.2599118942731278,1.87419046808345
2.2797356828193833,1.9934952450288763
2.299559471365639,2.110842623777025
2.319383259911895,2.2261142009712374
2.3392070484581504,2.3391939101339903
2.3590308370044055,2.4499680623253206
2.378854625550661,2.5583254062561185
2.3986784140969166,2.6641572007231726
2.418502202643172,2.76735729473003
2.4383259911894277,2.8678222122003283
2.4581497797356833,2.965451239167447
2.4779735682819384,3.060146511957778
2.497797356828194,3.151813105304136
2.5176211453744495,3.240359119609094
2.537444933920705,3.3256957667724905
2.5572687224669606,3.4077374541340104
2.577092511013216,3.486401866178213
2.5969162995594717,3.5616100437201297
2.6167400881057272,3.633286460341041
2.6365638766519828,3.701359095882802
2.6563876651982383,3.765759506838796
2.676211453744494,3.826422893502528
2.6960352422907494,3.883288163753252
2.715859030837005,3.9362979933725324
2.73568281938326,3.9853988827982385
2.7555066079295156,4.030541210232569
2.775330396475771,4.071679281029677
2.7951541850220267,4.108771373296437
2.8149779735682823,4.141779779646794
2.834801762114538,4.170670845056758
2.854625550660793,4.195415000773199
2.874449339207049,4.215986794234886
2.8942731277533045,4.232364914970127
2.91409691629956,4.244532216440288
2.9339207048458156,4.252475733803469
2.953744493392071,4.256186697578012
2.9735682819383262,4.25566054318984
2.993392070484582,4.250896916393015
3.0132158590308373,4.241899674557402
3.033039647577093,4.228676883822427
3.0528634361233484,4.211240812120623
3.072687224669604,4.189607918079731
3.092511013215859,4.163798835817135
3.1123348017621146,4.133838355645589
3.1321585903083706,4.099755400714322
3.151982378854626,4.061582999615432
3.1718061674008817,4.019358254991104
3.1916299559471373,3.973122308183196
3.2114537444933924,3.922920299973589
3.231277533039648,3.8688013274705964
3.2511013215859035,3.810818397204983
3.270925110132159,3.749028374507648
3.2907488986784146,3.683491929251678
3.31057268722467,3.614273478053185
3.3303964757709252,3.541441123039777
3.350220264317181,3.4650665873126685
3.3700440528634363,3.3852251472503045
3.389867841409692,3.3019955618281998
3.4096916299559474,3.2154599991650223
3.4295154185022034,3.1257039605505272
3.4493392070484585,3.0328162022720604
3.469162995594714,2.936888655638733
3.4889867841409696,2.8380163457154692
3.508810572687225,2.736297309437584
3.5286343612334807,2.631832514000241
3.5484581497797363,2.5247257767409677
3.5682819383259914,2.4150836882076803
3.588105726872247,2.3030155408143584
3.6079295154185025,2.188633266568822
3.627753303964758,2.072051389043954
3.6475770925110136,1.9533869974570321
3.667400881057269,1.8327597551360166
3.6872246696035247,1.710291962104175
3.7070484581497802,1.5861087045190227
3.726872246696036,1.4603381472720451
3.7466960352422913,1.3331120706655142
3.7665198237885464,1.2045668408821886
3.7863436123348024,1.0748451915400188
3.8061674008810575,0.9440996190702394
3.8259911894273135,0.8124992472968364
3.8458149779735686,0.680244921327853
3.8656387665198246,0.5476065272708462
3.8854625550660797,0.4150321714944421
3.905286343612335,0.2835615416078677
3.925110132158591,0.1572731393338293
3.9449339207048464,0.074072363203789
3.964757709251102,0.1508971860809399
3.9845814977973575,0.2766704082025239
4.004405286343612,0.40820721747767724
4.024229074889869,0.5410194399936618
4.044052863436123,0.6740045466884322
4.06387665198238,0.8066974669204762
4.083700440528634,0.9388217502380161
4.103524229074891,1.0701731269339987
4.123348017621146,1.2005801491945884
4.143171806167401,1.329888393818704
4.162995594713657,1.457953317484834
4.182819383259912,1.584636737561691
4.2026431718061685,1.7098049916367077
4.222466960352423,1.8333279376811595
4.242290748898679,1.9550784025379366
4.262114537444934,2.0749318821178666
4.28193832599119,2.1927663890104476
4.301762114537445,2.3084623894555265
4.321585903083701,2.4219027959923385
4.3414096916299565,2.5329729955191658
4.361233480176212,2.64156090017003
4.381057268722468,2.7475570129524534
4.400881057268723,2.850854502854323
4.420704845814979,2.951349285856752
4.440528634361234,3.0489401093979027
4.46035242290749,3.1435286385578163
4.4801762114537445,3.23501954271895
4.500000000000001,3.3233205817871685
4.5198237885462555,3.408342691286012
4.539647577092512,3.4900000657982297
4.559471365638767,3.568210240343409
4.579295154185023,3.642894169364458
4.599118942731278,3.713976303057286
4.618942731277533,3.781384660824594
4.63876651982379,3.8450509016698247
4.658590308370044,3.9049103913751773
4.678414096916301,3.9609022663288447
4.6982378854625555,4.012969493884463
4.718061674008811,4.061058929149999
4.737885462555067,4.105121368115332
4.757709251101322,4.145111597038047
4.777533039647578,4.1809884380160725
4.797356828193833,4.212714790683599
4.817180616740089,4.24025766997414
4.837004405286344,4.263588239901022
4.856828193832599,4.282681843312174
4.876651982378855,4.2975180275816065
4.896475770925111,4.308080566205894
4.9162995594713665,4.314357476279392
4.936123348017622,4.316341031827378
4.955947136563877,4.314027772981414
4.975770925110133,4.307418510986665
4.995594713656388,4.296518329036367
5.015418502202644,4.281336578933301
5.035242290748899,4.261886873584548
5.055066079295155,4.238187075340329
5.07488986784141,4.210259280194132
5.094713656387666,4.178129797866968
5.114537444933921,4.141829127804818
5.134361233480177,4.101391931125231
5.154185022026432,4.0568569985558
5.174008810572688,4.008267214415232
5.193832599118943,3.955669516696516
5.213656387665199,3.8991148533210405
5.2334801762114544,3.8386581346439277
5.25330396475771,3.774358182303678
5.2731277533039655,3.7062776745248613
5.292951541850221,3.634483088000661
5.312775330396477,3.559044636505756
5.332599118942731,3.4800362064178034
5.352422907488988,3.397535289362898
5.372246696035242,3.3116229122467513
5.392070484581499,3.222383564995454
5.4118942731277535,3.1299051264110305
5.43171806167401,3.0342787886580473
5.451541850220265,2.9355989810485923
5.47136563876652,2.833963294003091
5.491189427312777,2.729472404361228
5.511013215859031,2.622230003641233
5.530837004405288,2.512342731464352
5.550660792951542,2.399920117276588
5.570484581497798,2.28507453488246
5.5903083700440535,2.167921176435732
5.610132158590309,2.048578055889722
5.6299559471365646,1.927166057334942
5.64977973568282,1.8038090526626411
5.669603524229076,1.6786341284319917
5.689427312775331,1.551771989216583
5.709251101321586,1.4233576553122889
5.729074889867842,1.2935316705924662
5.748898678414098,1.162442236212059
5.768722466960353,1.0302491210831466
5.788546255506609,0.8971312236128788
5.808370044052864,0.7633023069587734
5.82819383259912,0.6290471583073648
5.848017621145375,0.49481686581205164
5.867841409691631,0.36153468984326836
5.887665198237886,0.23193169137881423
5.907488986784142,0.12021728315449046
5.927312775330397,0.11354006008589865
5.9471365638766525,0.22172956984622497
5.966960352422908,0.3509614685453597
5.986784140969164,0.48443243289976046
6.00660792951542,0.6190886278054633
6.026431718061675,0.7539350968138633
6.04625550660793,0.8884973024836145
6.066079295154186,1.0224802837026596
6.085903083700441,1.1556646204255194
6.105726872246697,1.2878674854413608
6.125550660792952,1.4189258603929118
6.145374449339208,1.5486885289874979
6.1651982378854635,1.6770119598943325
6.185022026431718,1.803758070609444
6.204845814977975,1.9287929665911676
6.224669603524229,2.0519862156475384
6.244493392070486,2.1732104302175013
6.264317180616741,2.2923410338250245
6.284140969162996,2.409256141333623
6.303964757709252,2.523836511407972
6.323788546255507,2.6359655457555218
6.3436123348017635,2.7455293191313945
6.363436123348018,2.8524166297406235
6.3832599118942746,2.9565190631617293
6.403083700440529,3.0577310651257075
6.422907488986785,3.1559500199155424
6.44273127753304,3.2510763320979215
6.462555066079296,3.343013509936551
6.482378854625551,3.4316682492738186
6.502202643171807,3.5169505169726016
6.5220264317180625,3.5987736332256253
6.541850220264318,3.677054352195465
6.561674008810574,3.751712940560887
6.581497797356829,3.822673253629541
6.601321585903085,3.8898628087391818
6.62114537444934,3.953212855718165
6.640969162995596,4.012658444212452
6.6607929515418505,4.068138487715407
6.680616740088107,4.119595824160511
6.700440528634362,4.166977272954865
6.720264317180618,4.2102336883481755
6.740088105726873,4.249320009044112
6.759911894273129,4.284195303972672
6.779735682819384,4.3148228141519285
6.799559471365639,4.341169990576469
6.819383259911895,4.363208528077458
6.83920704845815,4.3809143951073075
6.859030837004407,4.39426785940789
6.8788546255506615,4.403253509528789
6.898678414096917,4.407860272167689
6.918502202643173,4.408081425311475
6.938325991189428,4.403914607162768
6.958149779735684,4.395361820842397
6.977973568281939,4.3824294348647115
6.997797356828195,4.365128179388835
7.01762114537445,4.3434731382552085
7.037444933920705,4.317483736823377
7.0572687224669615,4.287183725634445
7.077092511013216,4.252601159928398
7.096916299559473,4.21376837505526
7.116740088105728,4.170721957827257
7.136563876651983,4.123502713869257
7.156387665198239,4.07215563103608
7.176211453744494,4.016729838977175
7.19603524229075,3.957278564944778
7.215859030837005,3.8938590859587716
7.235682819383261,3.826532677462466
7.255506607929516,3.755364558629595
7.275330396475772,3.680423834514506
7.295154185022027,3.601783435278027
7.314977973568283,3.519520052773125
7.334801762114538,3.433714074840453
7.354625550660794,3.3444495177522606
7.374449339207049,3.2518139573585136
7.394273127753305,3.1558984596460893
7.4140969162995605,3.0567975116346062
7.433920704845816,2.9546089538284703
7.453744493392072,2.84943391585671
7.473568281938327,2.7413767575214703
7.493392070484583,2.630545018324341
7.513215859030838,2.5170493797870863
7.533039647577093,2.4010036467469464
7.552863436123348,2.282524756646933
7.572687224669605,2.1617328302632117
7.59251101321586,2.0387512843554823
7.612334801762115,1.9137070382458825
7.6321585903083715,1.7867308657194818
7.651982378854627,1.6579579773556672
7.671806167400882,1.5275289792368736
7.691629955947137,1.3955914685191715
7.711453744493394,1.262302752831182
7.731277533039649,1.1278346548706806
7.751101321585904,0.9923824277996761
7.7709251101321595,0.856182401383599
7.790748898678416,0.7195499895059918
7.81057268722467,0.5829712924384264
7.830396475770926,0.44736068127344386
7.850220264317182,0.3149644603948024
7.870044052863436,0.1937453632969504
7.889867841409693,0.12429206927925335
7.909691629955948,0.1819127776790675
7.929515418502204,0.30077647989780987
7.9493392070484585,0.4329101094848979
7.969162995594715,0.5688660846359924
7.9889867841409705,0.7061053030359018
8.008810572687224,0.8436293095673528
8.02863436123348,0.9809201253729455
8.048458149779737,1.1176472232762846
8.068281938325994,1.2535654875880122
8.088105726872246,1.3884735065496505
8.107929515418503,1.5221944242804712
8.12775330396476,1.6545663501338603
8.147577092511014,1.7854372258699902
8.167400881057269,1.914661937074307
8.187224669603525,2.0421006267668345
8.207048458149782,2.167617686915937
8.226872246696036,2.29108114900111
8.246696035242293,2.412362318141293
8.266519823788547,2.5313355604974412
8.286343612334802,2.6478781896250156
8.306167400881058,2.7618704180528724
8.325991189427315,2.873195352561919
8.345814977973568,2.9817390190731006
8.365638766519824,3.0873904077074816
8.38546255506608,3.1900415315633346
8.405286343612337,3.2895874947073347
8.42511013215859,3.3859265661803657
8.444933920704846,3.478960257703375
8.464757709251103,3.568593403381924
8.484581497797357,3.6547342401360723
8.504405286343614,3.737294487889622
8.524229074889869,3.8161894287723848
8.544052863436125,3.8913379847516714
8.56387665198238,3.96266279322819
8.583700440528636,4.0300902802224154
8.60352422907489,4.093550730845243
8.623348017621145,4.152978356800042
8.643171806167402,4.20831136070416
8.662995594713658,4.259491997051029
8.682819383259913,4.306466629659874
8.702643171806168,4.349185785482229
8.722466960352424,4.3876042046516295
8.74229074889868,4.421680886678766
8.762114537444935,4.451379132706612
8.78193832599119,4.476666583752427
8.801762114537446,4.497515254872677
8.821585903083701,4.51390156519735
8.841409691629957,4.5258063637876065
8.861233480176212,4.533214951279766
8.881057268722468,4.536117097285826
8.900881057268723,4.5345070535282455
8.92070484581498,4.528383562694608
8.940528634361234,4.517749863004671
8.960352422907489,4.502613688490391
8.980176211453745,4.482987264996917
9.000000000000002,4.458887301921133
9.019823788546258,4.4303349797126845
9.039647577092511,4.397355933172051
9.059471365638768,4.359980230590436
9.079295154185024,4.318242348787356
9.099118942731279,4.272181144115444
9.118942731277533,4.221839819515674
9.13876651982379,4.167265887724467
9.158590308370046,4.108511130753717
9.1784140969163,4.045631555789384
9.198237885462555,3.978687347684047
9.218061674008812,3.9077428182551
9.237885462555067,3.832866352646039
9.257709251101323,3.7541303530660066
9.27753303964758,3.671611180296494
9.297356828193834,3.5853890934499413
9.317180616740089,3.49554818859043
9.337004405286345,3.402176336992978
9.356828193832602,3.305365124041218
9.376651982378855,3.2052097900663665
9.396475770925111,3.1018091748475194
9.416299559471367,2.995265668073641
9.436123348017622,2.885685168887937
9.455947136563877,2.773177058810148
9.475770925110133,2.657854194042149
9.49559471365639,2.53983292569297
9.515418502202644,2.4192331602734574
9.5352422907489,2.296178478675662
9.555066079295155,2.1707963410692357
9.57488986784141,2.0432184199893197
9.594713656387666,1.9135811284416968
9.614537444933923,1.7820264517095161
9.634361233480178,1.6487032653845448
9.654185022026432,1.5137694575455545
9.674008810572689,1.377395432594278
9.693832599118945,1.2397700983244477
9.713656387665198,1.1011115619992264
9.733480176211454,0.9616873536921525
9.75330396475771,0.8218555212461726
9.773127753303967,0.6821562478500134
9.792951541850222,0.5435425002816268
9.812775330396477,0.4080633607472544
9.832599118942733,0.2813757400655917
9.852422907488988,0.1839758167930253
9.872246696035244,0.1755346553219121
9.892070484581499,0.26490135925396463
9.911894273127754,0.38969734815898127
9.93171806167401,0.525027407617488
9.951541850220266,0.6641849659331323
9.971365638766521,0.8048359471571191
9.991189427312776,0.9459282388653945
10.011013215859032,1.086879309973837
10.030837004405289,1.227309499990834
10.050660792951543,1.366938235501179
10.070484581497798,1.5055381965187369
10.090308370044054,1.6429130317321046
10.11013215859031,1.7788856848951868
10.129955947136565,1.9132919117499314
10.14977973568282,2.0459765110060286
10.169603524229077,2.176791054897382
10.189427312775331,2.305592487496693
10.209251101321588,2.432242245243648
10.229074889867842,2.556605702424689
10.248898678414099,2.6785518247202513
10.268722466960353,2.7979529592602614
10.28854625550661,2.9146847160906137
10.308370044052865,3.0286259118829406
10.32819383259912,3.139658556576886
10.348017621145376,3.2476678698940673
10.367841409691632,3.352542318715261
10.387665198237887,3.4541736689938882
10.407488986784141,3.5524570476850763
10.427312775330398,3.647291011408747
10.447136563876654,3.738577619427085
10.466960352422909,3.826222509126374
10.486784140969164,3.910134972629624
10.50660792951542,3.990228033483341
10.526431718061675,4.066418522594389
10.546255506607931,4.13862715276635
10.566079295154186,4.206778591315006
10.585903083700442,4.270801530341568
10.605726872246697,4.330628754319332
10.625550660792953,4.386197204708372
10.645374449339208,4.437448041360806
10.665198237885463,4.484326700515975
10.685022026431719,4.52678294921632
10.704845814977975,4.56477093599929
10.724669603524232,4.598249237742101
