Frequency (Hz),Amplitude
0.0,0.8537351787499972
0.04,0.8537669949553953
0.08,0.8538625420276261
0.12,0.8540221138994124
0.16,0.8542461956850269
0.19999999999999998,0.8545354565584322
0.24,0.8548907398598234
0.27999999999999997,0.8553130505073976
0.32,0.8558035398130682
0.36,0.8563634878221918
0.39999999999999997,0.8569942833185401
0.44,0.857697401656387
0.48,0.8584743806015577
0.52,0.8593267943824491
0.5599999999999999,0.8602562261701384
0.6,0.861264239223454
0.64,0.8623523469502483
0.6799999999999999,0.8635219821494082
0.72,0.8647744657095431
0.76,0.8661109750491828
0.7999999999999999,0.8675325125896552
0.84,0.8690398745551882
0.88,0.8706336203951263
0.9199999999999999,0.8723140431203674
0.96,0.874081140839772
1.0,0.875934589772831
1.04,0.8778737190019846
1.0799999999999998,0.8798974872118391
1.1199999999999999,0.882004461643446
1.1600000000000001,0.8841927994698455
1.2,0.8864602317747629
1.24,0.8888040502898754
1.28,0.8912210970180436
1.3199999999999998,0.893707756840672
1.3599999999999999,0.8962599531774569
1.4,0.8988731467368872
1.44,0.9015423373660907
1.48,0.9042620689799925
1.52,0.9070264375222293
1.5599999999999998,0.9098291018846103
1.5999999999999999,0.9126632976884097
1.64,0.915521853809462
1.68,0.9183972115107837
1.72,0.9212814460304797
1.76,0.924166290460172
1.7999999999999998,0.9270431617391921
1.8399999999999999,0.929903188582942
1.88,0.9327372411595711
1.92,0.9355359623278766
1.9599999999999997,0.9382898002499557
2.0,0.9409890421957275
2.0399999999999996,0.9436238493613723
2.08,0.9461842925307902
2.12,0.9486603884174933
2.1599999999999997,0.9510421365339355
2.2,0.9533195564456625
2.2399999999999998,0.9554827252788475
2.28,0.9575218153611377
2.3200000000000003,0.9594271318876466
2.36,0.9611891505153078
2.4,0.9627985548006025
2.44,0.9642462734065533
2.48,0.9655235170156744
2.5199999999999996,0.966621814895522
2.56,0.967533051072997
2.6,0.9682495000818282
2.6399999999999997,0.9687638622557834
2.68,0.9690692985464967
2.7199999999999998,0.9691594648510583
2.76,0.9690285458390067
2.8,0.9686712882721691
2.84,0.968083033813481
2.88,0.9672597513220503
2.92,0.9661980686320751
2.96,0.9648953038116582
2.9999999999999996,0.9633494958949383
3.04,0.961559435076534
3.08,0.9595246923508941
3.1199999999999997,0.9572456485713099
3.16,0.9547235228927571
3.1999999999999997,0.9519604005502158
3.2399999999999998,0.9489592599086605
3.28,0.9457239987026965
3.32,0.9422594593623148
3.36,0.9385714532960837
3.4,0.9346667839742288
3.44,0.9305532686208322
3.4799999999999995,0.9262397582866422
3.52,0.9217361560315656
3.5599999999999996,0.9170534328983888
3.5999999999999996,0.9122036413067599
3.64,0.9071999254388685
3.6799999999999997,0.9020565281260929
3.7199999999999998,0.8967887936792831
3.76,0.891413166035661
3.7999999999999994,0.885947181523541
3.84,0.8804094554741165
3.88,0.8748196618398467
3.9199999999999995,0.8691985049148525
3.96,0.863567682197491
4.0,0.8579498373944876
4.04,0.8523685025443872
4.079999999999999,0.8468480282424432
4.12,0.8414135009861358
4.16,0.8360906467376977
4.199999999999999,0.8309057199245765
4.24,0.825885377277892
4.28,0.8210565361480302
4.319999999999999,0.8164462172401091
4.36,0.8120813720808443
4.4,0.807988695960246
4.4399999999999995,0.8041944275797379
4.4799999999999995,0.8007241371702124
4.5200000000000005,0.7976025054017887
4.56,0.7948530959680333
4.6,0.7924981252625651
4.640000000000001,0.7905582330432539
4.68,0.7890522583642149
4.72,0.7879970253150864
4.76,0.7874071432110483
4.8,0.787294825802157
4.84,0.7876697338041676
4.88,0.7885388445933615
4.92,0.789906352267591
4.96,0.7917736004802977
5.0,0.7941390495413927
5.039999999999999,0.7969982782960492
5.08,0.8003440202918283
5.12,0.8041662327807307
5.159999999999999,0.808452196224944
5.2,0.8131866412275723
5.24,0.8183518992226385
5.279999999999999,0.8239280728531051
5.319999999999999,0.8298932217465489
5.36,0.836223559359384
5.3999999999999995,0.8428936566853811
5.4399999999999995,0.849876648887431
5.48,0.8571444412830241
5.52,0.8646679115624479
5.56,0.8724171056117557
5.6,0.8803614248222063
5.64,0.8884698032693782
5.68,0.89671087361812
5.72,0.905053121040884
5.76,0.9134650248156844
5.8,0.9219151875928605
5.84,0.9303724525841153
5.879999999999999,0.9388060091365932
5.92,0.9471854873112736
5.96,0.9554810421958773
5.999999999999999,0.9636634287522982
6.04,0.9717040680353282
6.08,0.9795751056280279
6.119999999999999,0.9872494631264892
6.16,0.9947008834775674
6.2,1.0019039709323627
6.239999999999999,1.008834226329763
6.279999999999999,1.0154680783712067
6.32,1.0217829114929864
6.359999999999999,1.0277570908875329
6.3999999999999995,1.0333699851721014
6.44,1.0386019871528753
6.4799999999999995,1.0434345330858907
6.52,1.0478501207934499
6.56,1.0518323269564065
6.6,1.0553658238688084
6.64,1.0584363959119802
6.68,1.061030955979748
6.72,1.063137562065628
6.76,1.0647454342054465
6.8,1.0658449719552412
6.84,1.0664277725740516
6.88,1.066486650074006
6.92,1.0660156552956181
6.959999999999999,1.0650100971642846
7.0,1.0634665652842252
7.04,1.061382954027997
7.08,1.0587584882835304
7.119999999999999,1.0555937510250215
7.16,1.0518907128794666
7.199999999999999,1.0476527638658832
7.239999999999999,1.0428847474891576
7.28,1.0375929973738616
7.32,1.0317853766244298
7.359999999999999,1.0254713200956673
7.3999999999999995,1.0186618797500284
7.4399999999999995,1.011369773263325
7.4799999999999995,1.0036094360171017
7.52,0.9953970765794681
7.5600000000000005,0.9867507357249706
7.599999999999999,0.9776903489724571
7.64,0.9682378125236002
7.68,0.9584170523573806
7.719999999999999,0.9482540960709811
7.76,0.9377771468458398
7.800000000000001,0.9270166586518338
7.839999999999999,0.9160054114707137
7.88,0.904778584913803
7.92,0.8933738281159012
7.959999999999999,0.8818313232009071
8.0,0.8701938389256239
8.040000000000001,0.858506770317429
8.08,0.8468181592322359
8.12,0.835178689790468
8.159999999999998,0.823641651631411
8.2,0.8122628629144368
8.24,0.8011005440678501
8.28,0.7902151325514984
8.32,0.7796690285010933
8.36,0.769526261234747
8.399999999999999,0.7598520674250057
8.44,0.7507123734825913
8.48,0.7421731775524587
8.52,0.734299830627059
8.56,0.7271562216707584
8.6,0.7208038782046808
8.639999999999999,0.715301001204007
8.68,0.7107014608656949
8.72,0.707053787053334
8.76,0.704400194103313
8.8,0.7027756832272551
8.84,0.7022072661366419
8.879999999999999,0.7027133502082683
8.92,0.7043033184194788
8.959999999999999,0.7069773268591181
9.0,0.7107263298324313
9.040000000000001,0.715532328778153
9.079999999999998,0.7213688279234286
9.12,0.7282014682400105
9.16,0.7359888029278693
9.2,0.7446831729463996
9.24,0.7542316401121654
9.280000000000001,0.7645769375834711
9.32,0.7756584024166033
9.36,0.7874128614002593
9.399999999999999,0.7997754486438751
9.44,0.8126803406249741
9.48,0.8260614009961738
9.52,0.8398527330383951
9.559999999999999,0.8539891420474843
9.6,0.8684065131428499
9.639999999999999,0.8830421120876402
9.68,0.8978348178753274
9.72,0.9127252962583763
9.76,0.9276561232627398
9.8,0.9425718672182251
9.84,0.9574191370841284
9.879999999999999,0.9721466039749771
9.92,0.9867050018774396
9.959999999999999,1.0010471126549667
10.0,1.0151277395997853
10.04,1.0289036730340737
10.079999999999998,1.0423336507941714
10.12,1.0553783158541006
10.16,1.0680001728558712
10.2,1.0801635449048013
10.24,1.0918345316523728
10.280000000000001,1.1029809694159314
10.319999999999999,1.113572393866284
10.36,1.123580005641831
10.4,1.13297663911427
10.44,1.1417367344290845
10.48,1.149836312868629
10.52,1.1572529555315163
10.559999999999999,1.1639657852855723
10.6,1.1699554519288216
10.639999999999999,1.1752041204820654
10.68,1.1796954625346057
10.72,1.1834146505703405
10.76,1.186348355213296
10.799999999999999,1.1884847453489507
10.84,1.1898134910992777
10.879999999999999,1.1903257696555334
10.92,1.1900142740023307
10.96,1.1888732246003573
11.0,1.1868983841322602
11.04,1.184087075458241
11.08,1.1804382029734068
11.12,1.1759522776103917
11.16,1.1706314457870073
11.2,1.164479522661466
11.24,1.157502030127345
11.28,1.1497062400580478
11.319999999999999,1.1411012233964763
11.36,1.1316979057816734
11.4,1.121509130510215
11.44,1.1105497297478173
11.48,1.0988366050355345
11.52,1.0863888182762405
11.559999999999999,1.0732276945388357
11.6,1.059376938179382
11.64,1.0448627639460004
11.68,1.0297140449026059
11.72,1.0139624791663389
11.759999999999998,0.9976427775915594
11.799999999999999,0.9807928746282076
11.84,0.963454164606755
11.879999999999999,0.9456717656118065
11.92,0.9274948128462724
11.96,0.9089767828760449
11.999999999999998,0.8901758492763182
12.04,0.8711552688324088
12.08,0.8519837954002019
12.12,0.8327361155769929
12.16,0.8134932962025652
12.200000000000001,0.794343228099001
12.239999999999998,0.7753810430561882
12.28,0.7567094716219183
12.32,0.7384390976561032
12.36,0.7206884520658545
12.4,0.7035838733973304
12.44,0.6872590485936164
12.479999999999999,0.6718541359387256
12.52,0.6575143680461274
12.559999999999999,0.6443880410514384
12.6,0.63262382294494
12.64,0.6223673644955997
12.68,0.6137572726534238
12.719999999999999,0.6069206048470254
12.76,0.6019681509185524
12.799999999999999,0.5989898663991104
12.84,0.5980508797637241
12.88,0.5991884925973796
12.92,0.6024105124947801
12.959999999999999,0.6076951109284102
12.999999999999998,0.6149922100000047
13.04,0.6242262139626678
13.08,0.6352997543805552
13.12,0.6480980388113426
13.16,0.6624933882174763
13.2,0.6783496049701707
13.239999999999998,0.6955259070361836
13.28,0.7138802687619856
13.32,0.7332721041498926
13.36,0.7535643028370299
13.4,0.7746246784771744
13.44,0.7963269159545002
13.479999999999999,0.8185511128273751
13.52,0.8411840073197114
13.559999999999999,0.864118975119768
13.6,0.8872558640745323
13.64,0.9105007221753344
13.68,0.933765461540177
13.719999999999999,0.9569674901519978
13.76,0.98002933413528
13.799999999999999,1.0028782662730227
13.84,1.025445951057176
13.88,1.0476681125498455
13.919999999999998,1.0694842284302746
13.959999999999999,1.09083725156482
14.0,1.111673359051525
14.04,1.1319417277883663
14.08,1.1515943350606195
14.120000000000001,1.1705857823368466
14.16,1.1888731403284611
14.2,1.2064158133485348
14.239999999999998,1.2231754210615042
14.28,1.239115695817286
14.32,1.2542023938915228
14.36,1.268403219094139
14.399999999999999,1.281687757351999
14.44,1.2940274210124403
14.479999999999999,1.3053954017491287
14.52,1.315766631078145
14.56,1.325117747609559
14.6,1.3334270702678461
14.64,1.3406745768138157
14.68,1.3468418870918366
14.719999999999999,1.3519122505099204
14.76,1.3558705373376947
14.799999999999999,1.3587032334795317
14.84,1.3603984384482701
14.879999999999999,1.3609458663299494
14.919999999999998,1.3603368495932995
14.959999999999999,1.3585643456604568
15.0,1.3556229462188123
15.04,1.3515088893196372
15.079999999999998,1.3462200743784223
15.120000000000001,1.3397560802671504
15.159999999999998,1.3321181867711542
15.199999999999998,1.3233093997762586
15.24,1.3133344806574587
15.28,1.3021999804627584
15.319999999999999,1.2899142796285143
15.36,1.2764876341313707
15.399999999999999,1.2619322291825315
15.439999999999998,1.2462622418109313
15.48,1.2294939139721721
15.52,1.2116456381724483
15.559999999999999,1.1927380580258113
15.600000000000001,1.1727941866884737
15.639999999999999,1.1518395467587919
15.679999999999998,1.1299023360261868
15.72,1.1070136244333864
15.76,1.083207588830608
15.799999999999999,1.0585217936043285
15.84,1.0329975271271914
15.879999999999999,1.0066802062827038
15.919999999999998,0.9796198641671736
15.96,0.9518717395703437
16.0,0.9234969910995279
16.04,0.8945635639353778
16.080000000000002,0.8651472432376106
16.12,0.8353329350733902
16.16,0.8052162230861176
16.200000000000003,0.7749052561366295
16.24,0.7445230271391632
16.279999999999998,0.7142101030729421
16.319999999999997,0.6841278549557089
16.36,0.6544622047268414
16.4,0.6254278379740068
16.439999999999998,0.5972727040797143
16.48,0.5702824077280096
16.52,0.5447837544348915
16.56,0.5211462301803774
16.6,0.4997796105227185
16.64,0.4811253737673493
16.68,0.46563950531373605
16.72,0.45376519445597086
16.759999999999998,0.44589635900121316
16.799999999999997,0.44233676325003496
16.84,0.44326332258276285
16.88,0.44870353624205145
16.919999999999998,0.4585339671183474
16.96,0.4725000613806072
17.0,0.4902508585276222
17.04,0.5113788442635172
17.080000000000002,0.5354562681483237
17.12,0.5620629102990784
17.16,0.5908040797895106
17.2,0.621320115908634
17.24,0.6532896596774584
17.279999999999998,0.686428947909385
17.32,0.7204889106935384
17.36,0.7552512962632235
17.4,0.7905245771472663
17.44,0.8261400537575023
17.48,0.861948352958547
17.52,0.8978163890329748
17.56,0.9336247832756913
17.6,0.9692657037010299
17.64,1.0046410727171646
17.68,1.0396610884485253
17.72,1.0742430088894834
17.759999999999998,1.1083101539613418
17.799999999999997,1.1417910870472519
17.84,1.1746189438071708
17.88,1.20673088163829
17.919999999999998,1.2380676279238139
17.96,1.26857310921746
18.0,1.2981941468166556
18.04,1.3268802068808545
18.080000000000002,1.354583195448184
18.12,1.3812572904834306
18.159999999999997,1.4068588045298396
18.2,1.4313460727007805
18.24,1.454679361688855
18.279999999999998,1.4768207962328455
18.32,1.4977343001017112
18.36,1.5173855491586292
18.4,1.535741934478611
18.44,1.5527725338292042
18.48,1.5684480900992723
18.52,1.5827409954877
18.560000000000002,1.5956252804510633
18.6,1.6070766065643878
18.64,1.6170722625784477
18.679999999999996,1.625591163064493
18.72,1.6326138491278852
18.759999999999998,1.6381224907482683
18.799999999999997,1.6421008903684007
18.84,1.6445344874086485
18.88,1.6454103634316324
18.919999999999998,1.644717247722113
18.96,1.6424455230831023
19.0,1.6385872316808605
19.04,1.6331360807999318
19.080000000000002,1.626087448395553
19.119999999999997,1.6174383883552208
19.159999999999997,1.6071876354049597
19.2,1.5953356096191507
19.24,1.5818844205168585
19.279999999999998,1.5668378707529333
19.32,1.5502014594401194
19.36,1.531982385169542
19.4,1.5121895488334605
19.44,1.4908335563973298
19.48,1.467926721820475
19.52,1.4434830703897936
19.560000000000002,1.4175183428119076
19.6,1.3900500005130965
19.639999999999997,1.3610972327300042
19.68,1.3306809661485104
19.72,1.2988238780788124
19.759999999999998,1.26555041446224
19.8,1.230886814420788
19.84,1.1948611436277017
19.88,1.1575033395615344
19.919999999999998,1.1188452728035891
19.96,1.078920830095673
20.0,1.0377660271148788
20.04,0.9954191621951206
20.08,0.9519210270866527
20.119999999999997,0.9073151981973808
20.159999999999997,0.8616484430998487
20.2,0.8149712949563939
20.24,0.7673388763422134
20.279999999999998,0.7188121016785071
20.32,0.669459468830249
20.36,0.6193597935546933
20.4,0.5686065014929215
20.44,0.5173145877145672
20.48,0.46563233654184194
20.52,0.4137619424538218
20.560000000000002,0.36199767472125594
20.599999999999998,0.3108006742653981
20.639999999999997,0.2609548126446093
20.68,0.21390948894823417
20.72,0.1725372485172692
20.759999999999998,0.14248857612233518
20.8,0.1323091982688455
20.84,0.14662856485755368
20.88,0.17995387874186114
20.92,0.22411681277560572
20.96,0.27400896749147835
21.0,0.3270484246004869
21.04,0.381916543403741
21.08,0.43788702846135613
21.119999999999997,0.49452311477985184
21.159999999999997,0.5515387623585826
21.2,0.6087313836937002
21.24,0.6659472017433733
21.279999999999998,0.723062384000462
21.32,0.7799722506258654
21.36,0.8365848341197996
21.4,0.8928168943366918
21.44,0.9485913760284482
21.48,1.0038357445704624
21.52,1.058480873367028
21.56,1.112460287608628
21.599999999999998,1.1657096439833015
21.639999999999997,1.2181663701139938
21.68,1.2697694142787683
21.72,1.3204590726351944
21.759999999999998,1.370176871780395
21.8,1.4188654913789283
21.84,1.4664687161653471
21.88,1.512931409715559
21.92,1.5581995044986963
21.96,1.6022200041957964
22.0,1.6449409953126324
22.04,1.6863116658592339
22.08,1.7262823294077283
22.119999999999997,1.7648044532357863
22.16,1.801830689555584
22.2,1.8373149090475474
22.24,1.8712122360840442
22.28,1.9034790851552883
22.32,1.9340731981075636
22.36,1.9629536818810784
22.4,1.9900810464949985
22.44,2.01541724307668
22.48,2.038925701771576
22.519999999999996,2.0605713694037555
22.56,2.080320746785242
22.599999999999998,2.0981419255970244
22.639999999999997,2.1140046247871407
22.68,2.127880226451658
22.72,2.1397418111847712
22.759999999999998,2.1495641929038625
22.8,2.1573239531762876
22.84,2.1629994750964276
22.88,2.16657097678562
22.92,2.168020544614261
22.96,2.1673321662760836
23.0,2.164491763879958
23.04,2.1594872272656525
23.08,2.15230844779966
23.119999999999997,2.142947352965417
23.16,2.1313979421333036
23.2,2.117656323981833
23.24,2.1017207561466007
23.28,2.083591687803025
23.32,2.0632718060495354
23.36,2.0407660871575417
23.400000000000002,2.0160818540054244
23.44,1.9892288413302077
23.479999999999997,1.9602192708324029
23.519999999999996,1.9290679386833065
23.56,1.8957923186455707
23.599999999999998,1.8604126848753961
23.639999999999997,1.8229522595945487
23.68,1.7834373922949194
23.72,1.7418977790944457
23.759999999999998,1.6983667334813815
23.8,1.6528815232188099
23.84,1.6054837929993808
23.88,1.5562200990711907
23.92,1.5051425912762986
23.96,1.4523098909031047
23.999999999999996,1.3977882311725431
24.04,1.3416529536610153
24.08,1.2839904924932761
24.119999999999997,1.2249010348734017
24.16,1.1645021310576293
24.2,1.1029336542514823
24.24,1.0403647047413676
24.28,0.9770033495904191
24.32,0.9131105452079602
24.36,0.8490202845363249
24.400000000000002,0.7851690395561364
24.439999999999998,0.7221389906015198
24.479999999999997,0.6607211516093877
24.52,0.6020051984953203
24.56,0.5474987678837088
24.599999999999998,0.49926007017667584
24.64,0.45997470521392575
24.68,0.43281083561426253
24.72,0.42083060168422204
24.759999999999998,0.4259772573597537
24.8,0.44824786313081255
24.84,0.48579521117838176
24.88,0.5358366833211312
24.92,0.5955751294046426
24.959999999999997,0.6626712163792343
24.999999999999996,0.7353348997449073
25.04,0.8122460838594188
25.08,0.892438586544509
25.119999999999997,0.9751989774727398
25.16,1.0599909700484105
25.2,1.1464022199751094
25.24,1.2341077102451434
25.28,1.3228446527271356
25.32,1.4123951968945834
25.36,1.502574402616179
25.4,1.5932217764048031
25.439999999999998,1.6841952412046575
25.479999999999997,1.7753667868007175
25.52,1.8666192952266991
25.56,1.9578441980869856
25.599999999999998,2.0489397302827084
25.64,2.139809616513159
25.68,2.230362075478612
25.72,2.3205090598884994
25.76,2.4101656733139287
25.8,2.4992497209613576
25.84,2.587681362785906
25.880000000000003,2.6753828454701485
25.919999999999998,2.7622782956511376
25.959999999999997,2.848293561051276
25.999999999999996,2.933356089316322
26.04,3.0173948367035335
26.08,3.100340200517277
26.119999999999997,3.182123970516113
26.16,3.2626792955261963
26.2,3.3419406622724646
26.24,3.419843884039457
26.28,3.496326097241818
26.32,3.571325764351564
26.36,3.644782681919044
26.4,3.7166379926550763
26.439999999999998,3.786834200726142
26.479999999999997,3.8553151895628326
26.52,3.922026241602477
26.56,3.9869140594846937
26.599999999999998,4.049926788299654
26.64,4.111014038555629
26.68,4.170126909588039
26.72,4.227218013179346
26.76,4.2822414971987754
26.8,4.335153069105331
26.84,4.385910019186932
26.88,4.434471243434781
26.919999999999998,4.480797265975045
26.959999999999997,4.524850261001043
27.0,4.566594074168082
27.04,4.605994243431076
27.08,4.64301801932183
27.119999999999997,4.6776343846792265
27.16,4.709814073861331
27.2,4.739529591484262
27.24,4.7667552307485295
27.28,4.791467091429988
27.32,4.81364309762913
27.36,4.833263015390456
27.4,4.850308470322119
27.439999999999998,4.864762965366332
27.479999999999997,4.876611898892312
27.52,4.885842583307376
27.56,4.892444264407028
27.599999999999998,4.89640814171348
27.64,4.897727390082873
27.68,4.896397182896227
27.72,4.892414717187623
27.76,4.8857792411063174
27.8,4.876492084157918
27.839999999999996,4.864556690724171
27.88,4.84997865742282
27.919999999999998,4.832765774938485
27.959999999999997,4.812928075034982
28.0,4.790477883549605
28.04,4.765429880272818
