Time (s),Filtered Signal
0.0,-0.026718554244062685
0.0334075723830735,-0.06492999314604483
0.066815144766147,-0.09958069049180623
0.1002227171492205,-0.1288091424752591
0.133630289532294,-0.1514541507579699
0.1670378619153675,-0.1668988186248028
0.200445434298441,-0.17460742786485928
0.23385300668151449,-0.17365604685019545
0.267260579064588,-0.16270175104603452
0.3006681514476615,-0.14072357517741554
0.334075723830735,-0.10844978211254976
0.3674832962138085,-0.06981715571115042
0.400890868596882,-0.032428244781505064
0.4342984409799555,-0.006128992628486344
0.46770601336302897,0.0003718959608454692
0.5011135857461025,-0.016222486870149624
0.534521158129176,-0.050554100082600674
0.5679287305122495,-0.08829121604395894
0.601336302895323,-0.10953254914556113
0.6347438752783965,-0.09505221178771048
0.66815144766147,-0.03312770500847443
0.7015590200445435,0.07563010725037357
0.734966592427617,0.21717992484650178
0.7683741648106905,0.36695723544978304
0.801781737193764,0.4957566098440515
0.8351893095768375,0.576882619668311
0.868596881959911,0.5927544815528523
0.9020044543429845,0.5393203241553741
0.9354120267260579,0.4269827777358965
0.9688195991091315,0.27744066340221796
1.002227171492205,0.11705794203409935
1.0356347438752784,-0.031199764047751665
1.069042316258352,-0.15429489543492284
1.1024498886414256,-0.25145671184176155
1.135857461024499,-0.3313695850878243
1.1692650334075725,-0.4056282454677146
1.202672605790646,-0.4816458117490548
1.2360801781737194,-0.5582773768461832
1.269487750556793,-0.6257309240111305
1.3028953229398665,-0.6689829469942761
1.33630289532294,-0.6724592525578829
1.3697104677060135,-0.6240405488377955
1.403118040089087,-0.5179787603895256
1.4365256124721606,-0.357538561917094
1.469933184855234,-0.15782379842543023
1.5033407572383075,0.05258570262973581
1.536748329621381,0.2342556812564842
1.5701559020044544,0.3463820591821057
1.603563474387528,0.36234020425269114
1.6369710467706016,0.2855973032170569
1.670378619153675,0.15705049296340914
1.7037861915367485,0.0463158318762974
1.737193763919822,0.026338050273634346
1.7706013363028954,0.1401341811832862
1.804008908685969,0.37524728703348925
1.8374164810690425,0.660692424081927
1.8708240534521159,0.8916490478034642
1.9042316258351895,0.9729732794317281
1.937639198218263,0.8614851139206642
1.9710467706013366,0.5859248546489837
2.00445434298441,0.23412305142898981
2.0378619153674835,-0.08613569599681324
2.071269487750557,-0.2925360076874188
2.1046770601336307,-0.35772426303665184
2.138084632516704,-0.3107589820239088
2.1714922048997773,-0.21416620712648374
2.204899777282851,-0.1319713702382414
2.2383073496659245,-0.10552146988167906
2.271714922048998,-0.1459163043760056
2.3051224944320716,-0.24089491219918305
2.338530066815145,-0.3671774478213929
2.3719376391982183,-0.49967731667667514
2.405345211581292,-0.6145705797580984
2.4387527839643655,-0.6889555145757067
2.472160356347439,-0.7017318331664838
2.5055679287305126,-0.6378676062627784
2.538975501113586,-0.49414930456381934
2.5723830734966593,-0.28233308123985457
2.605790645879733,-0.026911389768120332
2.6391982182628064,0.2417969323695716
2.67260579064588,0.4956395205763776
2.7060133630289536,0.713852746662976
2.739420935412027,0.8838417927279744
2.7728285077951007,0.9985823198882938
2.806236080178174,1.053134162621033
2.8396436525612474,1.0424042015895953
2.873051224944321,0.9610399090274353
2.9064587973273945,0.8052915194731588
2.939866369710468,0.5762150966527158
2.9732739420935417,0.28330825520785186
3.006681514476615,-0.052811838076699716
3.0400890868596884,-0.40050796928989396
3.073496659242762,-0.7214576399858595
3.1069042316258355,-0.9790824413082824
3.140311804008909,-1.1485930700112776
3.1737193763919826,-1.2244412120545771
3.207126948775056,-1.221224481239794
3.2405345211581293,-1.1667101801815787
3.273942093541203,-1.0895043612969815
3.3073496659242765,-1.0068596315014424
3.34075723830735,-0.9183616354898806
3.3741648106904236,-0.8084895784031889
3.407572383073497,-0.6567805002618602
3.4409799554565703,-0.4507296255921262
3.474387527839644,-0.19522212070524358
3.5077951002227175,0.0863702818480879
3.541202672605791,0.36079427367189726
3.5746102449888646,0.6000282958213462
3.608017817371938,0.795792602735904
3.6414253897550113,0.965205373055577
3.674832962138085,1.1425084203021225
3.7082405345211584,1.3586618325570452
3.7416481069042318,1.6178806168176192
3.7750556792873056,1.8834351972378836
3.808463251670379,2.0816946019024276
3.8418708240534527,2.1248462813451163
3.875278396436526,1.9436607404595116
3.9086859688195994,1.516955547233951
3.942093541202673,0.8860197821694222
3.9755011135857465,0.14852574172179714
4.00890868596882,-0.5660959696926854
4.042316258351893,-1.1320736260419262
4.075723830734967,-1.4628199870718002
4.109131403118041,-1.535728961036648
4.142538975501114,-1.397879736544997
4.1759465478841875,-1.149459297900633
4.209354120267261,-0.9090978489680954
4.242761692650334,-0.7727638947489893
4.276169265033408,-0.7817698936349035
4.309576837416482,-0.9127704734446633
4.342984409799555,-1.0935427015282642
4.3763919821826285,-1.2368646665337968
4.409799554565702,-1.276782503713949
4.443207126948775,-1.1911476419423146
4.476614699331849,-1.0016854903157142
4.510022271714923,-0.7542209837806225
4.543429844097996,-0.49128698369556784
4.5768374164810695,-0.232342453251923
4.610244988864143,0.028266599944359837
4.643652561247216,0.3059226528292885
4.67706013363029,0.6033526261108886
4.710467706013364,0.8957621165239866
4.743875278396437,1.133690097531249
4.77728285077951,1.2634347569022477
4.810690423162584,1.2544087590670931
4.844097995545657,1.1182004135634578
4.877505567928731,0.9081488388603505
4.910913140311805,0.6986507977122353
4.944320712694878,0.5542905031204513
4.977728285077951,0.5040621811322055
5.011135857461025,0.5326798922917825
5.044543429844098,0.5915063793696392
5.077951002227172,0.6217526304924443
5.111358574610246,0.5778414709894204
5.144766146993319,0.4410955149006844
5.178173719376392,0.22071663186186308
5.211581291759466,-0.05431664344873375
5.244988864142539,-0.3459201115438016
5.278396436525613,-0.615101845496089
5.311804008908687,-0.8263774443655184
5.34521158129176,-0.9502120256453438
5.378619153674833,-0.9660481388646482
5.412026726057907,-0.8669435572334342
5.445434298440981,-0.6644273721635802
5.478841870824054,-0.3905404685490487
5.512249443207128,-0.09418596079083111
5.545657015590201,0.16907855985651535
5.579064587973274,0.3516706998287488
5.612472160356348,0.42825679982851916
5.645879732739422,0.40394068207980427
5.679287305122495,0.312119821030115
5.712694877505569,0.20144495223190353
5.746102449888642,0.11595972903926845
5.779510022271715,0.07617846553244505
5.812917594654789,0.06968924045947798
5.846325167037863,0.05683374737593133
5.879732739420936,-0.009297791377818795
5.91314031180401,-0.15651639192656033
5.946547884187083,-0.3733424105482736
5.979955456570156,-0.6063359014990384
6.01336302895323,-0.7788525153116325
6.046770601336304,-0.8243225622133648
6.080178173719377,-0.7185912947993948
6.1135857461024505,-0.49474541588072657
6.146993318485524,-0.23162446167532835
6.180400890868597,-0.020223974890004763
6.213808463251671,0.07643825529038616
6.247216035634745,0.05084297628236436
6.280623608017818,-0.047174628952549
6.3140311804008915,-0.13480709769968754
6.347438752783965,-0.13507494217211227
6.380846325167038,-0.011964299494462684
6.414253897550112,0.21373034914569156
6.447661469933186,0.474142715263369
6.481069042316259,0.6844455199115413
6.5144766146993325,0.7795877592872527
6.547884187082406,0.7415595657682371
6.581291759465479,0.6054811893604694
6.614699331848553,0.442049512629739
6.648106904231627,0.32429877080786457
6.6815144766147,0.29389043029197676
6.7149220489977735,0.342766280169972
6.748329621380847,0.41915227053372167
6.78173719376392,0.4553328201008918
6.815144766146994,0.4037529896603232
6.848552338530068,0.2633742002157749
6.881959910913141,0.08248834497746331
6.915367483296214,-0.06437710853113998
6.948775055679288,-0.11474834709332887
6.982182628062361,-0.052780592316822514
7.015590200445435,0.07778512287468169
7.048997772828509,0.19015808384283633
7.082405345211582,0.1940618178240826
7.115812917594655,0.04024005078136567
7.149220489977729,-0.2512755137402449
7.182628062360802,-0.5932902678056865
7.216035634743876,-0.8643708515489851
7.24944320712695,-0.9590361103574698
7.282850779510023,-0.833897182332813
7.316258351893096,-0.5300321701909828
7.34966592427617,-0.16182858140934048
7.383073496659243,0.1237083733005513
7.416481069042317,0.20146408823723308
7.449888641425391,0.015803778564080745
7.4832962138084635,-0.39625098538876885
7.516703786191537,-0.9141744089381807
7.550111358574611,-1.3715827768817925
7.583518930957685,-1.6089806518193728
7.616926503340758,-1.5237999214599425
7.650334075723832,-1.10162760458014
7.683741648106905,-0.4194391665330889
7.717149220489978,0.37866790643244747
7.750556792873052,1.1237747757386776
7.783964365256126,1.6680154962649816
7.817371937639199,1.9200720367760553
7.850779510022273,1.861386530265642
7.884187082405346,1.5411509931985579
7.917594654788419,1.0544319781374691
7.951002227171493,0.5119610689981305
7.984409799554567,0.011625163431576787
8.01781737193764,-0.3797732890095656
8.051224944320714,-0.6303268225212104
8.084632516703786,-0.7344587341593575
8.118040089086861,-0.699427732170153
8.151447661469934,-0.535903688219767
8.184855233853007,-0.25806538620870284
8.218262806236082,0.10817312070915258
8.251670378619155,0.5162121000336217
8.285077951002227,0.8978643419282344
8.318485523385302,1.175057950487986
8.351893095768375,1.28140587925133
8.385300668151448,1.1847828947289194
8.418708240534523,0.9004796578432811
8.452115812917596,0.48824064021136504
8.485523385300668,0.03358352534397527
8.518930957683743,-0.3792238750892748
8.552338530066816,-0.6915814613121883
8.585746102449889,-0.8828987094299179
8.619153674832964,-0.9671638032482387
8.652561247216036,-0.9773063579372752
8.68596881959911,-0.9461372902621189
8.719376391982184,-0.893288703573782
8.752783964365257,-0.823415305501404
8.78619153674833,-0.7342469626815623
8.819599109131405,-0.6275839300183084
8.853006681514477,-0.5150969130646387
8.88641425389755,-0.41453820426419763
8.919821826280625,-0.3384808036514162
8.953229398663698,-0.2830462362706906
8.98663697104677,-0.22489753013308053
9.020044543429846,-0.13034362569075475
9.053452115812918,0.02681567729440627
9.086859688195991,0.2478478047116819
9.120267260579066,0.5020069248952349
9.153674832962139,0.7348827508428638
9.187082405345212,0.8891276100612835
9.220489977728286,0.9275871574169156
9.25389755011136,0.8471621927773264
9.287305122494432,0.6765713033638462
9.320712694877507,0.4600903550812749
9.35412026726058,0.2371483356360535
9.387527839643653,0.029534961412399273
9.420935412026727,-0.15737370195022865
9.4543429844098,-0.32224189867648095
9.487750556792873,-0.45441733575438786
9.521158129175948,-0.5303249770871433
9.55456570155902,-0.5236913729902826
9.587973273942094,-0.4239369505492097
9.621380846325168,-0.2505077260481244
9.654788418708241,-0.052033955357205015
9.688195991091314,0.11218390672472092
9.721603563474389,0.19975820118592835
9.755011135857462,0.2065823769389224
9.788418708240535,0.16897526646077887
9.82182628062361,0.1439822709181042
9.855233853006682,0.17780983665797132
9.888641425389755,0.27966927894816923
9.92204899777283,0.4157646930263448
9.955456570155903,0.5270136314935969
9.988864142538976,0.5607170959610146
10.02227171492205,0.4985496998372684
10.055679287305123,0.3654229822952569
10.089086859688196,0.21461358570079558
10.12249443207127,0.09776687070018684
10.155902004454344,0.036604669121471534
10.189309576837417,0.012059706723137395
10.222717149220491,-0.023017543716638604
10.256124721603564,-0.1142484898828403
10.289532293986637,-0.2752282174633376
10.322939866369712,-0.4732098148938175
10.356347438752785,-0.6401249752096299
10.389755011135858,-0.7049821935362779
10.423162583518932,-0.6319037057582126
10.456570155902005,-0.44384158662975665
10.489977728285078,-0.21810345801742528
10.523385300668153,-0.05371790213655492
10.556792873051226,-0.025446308235504082
10.590200445434299,-0.14697574961761042
10.623608017817373,-0.36200866919912233
10.657015590200446,-0.5683059210696372
10.69042316258352,-0.663376429707114
10.723830734966594,-0.5900008933542761
10.757238307349667,-0.36034506817933615
10.790645879732741,-0.048293197785244914
10.824053452115814,0.2450858563588417
10.857461024498887,0.4359218459296426
10.890868596881962,0.4912599001286449
10.924276169265035,0.43769971186363216
10.957683741648108,0.3428099687918375
10.991091314031182,0.2796130872076847
11.024498886414255,0.2913794562195242
11.057906458797328,0.37261749585161563
11.091314031180403,0.473722033852293
11.124721603563476,0.5256566995960269
11.158129175946549,0.47253032836351644
11.191536748329623,0.297501675960604
11.224944320712696,0.031511350985282974
11.25835189309577,-0.25757578663946834
11.291759465478844,-0.48960075084379495
11.325167037861917,-0.5997685692917387
11.35857461024499,-0.5586312701810685
11.391982182628064,-0.3780755028630752
11.425389755011137,-0.10329910258326105
11.45879732739421,0.20397284593784604
11.492204899777285,0.48363704717734585
11.525612472160358,0.690651119133542
11.55902004454343,0.8011718659465983
11.592427616926505,0.8123751701368433
11.625835189309578,0.7388452270137653
11.659242761692651,0.6080186505462729
11.692650334075726,0.45520230346495183
11.726057906458799,0.3168945303018694
11.759465478841872,0.22124827319179086
11.792873051224946,0.17695972734243992
11.82628062360802,0.165163813349334
11.859688195991092,0.14038058365527095
11.893095768374167,0.0441534613969676
11.92650334075724,-0.1709027036062083
11.959910913140313,-0.5154297260815317
11.993318485523387,-0.9479684823751628
12.02672605790646,-1.3791416176020723
12.060133630289533,-1.6966367260594142
12.093541202672608,-1.8026900722346346
12.12694877505568,-1.6494445373812483
12.160356347438753,-1.2578087049916844
12.193763919821828,-0.7122726733894534
12.227171492204901,-0.134209882190099
12.260579064587974,0.35529858225981165
12.293986636971049,0.6689083330269986
12.327394209354122,0.7716147632118371
12.360801781737194,0.6806944207494252
12.39420935412027,0.4508872726306301
12.427616926503342,0.15343980796680642
12.461024498886415,-0.14222939555768246
12.49443207126949,-0.37917659214264304
12.527839643652563,-0.5159768385518222
12.561247216035635,-0.5260871685644414
12.59465478841871,-0.39812481517536724
12.628062360801783,-0.13908308715921777
12.661469933184856,0.2215465208850931
12.69487750556793,0.631564666500388
12.728285077951004,1.0239522860918688
12.761692650334076,1.332890676171952
12.795100222717151,1.512567437535878
12.828507795100224,1.5502614973236393
12.861915367483297,1.4667303135567318
12.895322939866372,1.30291698405768
12.928730512249444,1.099355974337345
12.962138084632517,0.8790194804912792
12.995545657015592,0.6426889085200848
13.028953229398665,0.37870655949454185
13.062360801781738,0.0802651735167354
13.095768374164813,-0.24128826882574217
13.129175946547885,-0.55603115206476
13.162583518930958,-0.8282569452990398
13.195991091314033,-1.0337566956389779
13.229398663697106,-1.1694059817109634
13.262806236080179,-1.2476785544280589
13.296213808463254,-1.2790994092306418
13.329621380846326,-1.2550018189451722
13.3630289532294,-1.1447055859740738
13.396436525612474,-0.9132347556838576
13.429844097995547,-0.5521380139377506
13.46325167037862,-0.10530361457790327
13.496659242761694,0.32870670430857574
13.530066815144767,0.6249951587439495
13.56347438752784,0.6815576829925704
13.596881959910915,0.46670953961573663
13.630289532293988,0.040733476969154095
13.66369710467706,-0.46080897020162265
13.697104677060135,-0.8764067525941885
13.730512249443208,-1.0791045104203623
13.763919821826281,-1.021326150342988
13.797327394209356,-0.7447504526733704
13.830734966592429,-0.3527419352991208
13.864142538975502,0.03954521213895116
13.897550111358576,0.35259288517983584
13.93095768374165,0.5656705600648672
13.964365256124722,0.7076675416971668
13.997772828507797,0.8245004326127741
14.03118040089087,0.9430904177622763
14.064587973273943,1.0517469330505023
14.097995545657017,1.1063113030424896
14.13140311804009,1.0568895463384753
14.164810690423163,0.8792907829594871
14.198218262806238,0.593636502127165
14.23162583518931,0.26024919098059685
14.265033407572384,-0.04464960988402301
14.298440979955458,-0.2604166015084601
14.331848552338531,-0.36448952603537876
14.365256124721604,-0.37533388862597905
14.398663697104679,-0.33616323697416056
14.432071269487752,-0.2898209531746573
14.465478841870825,-0.2588870722369006
14.4988864142539,-0.2406833678446045
14.532293986636972,-0.21746635486154153
14.565701559020045,-0.1735405258854778
14.59910913140312,-0.10819002987462355
14.632516703786193,-0.03726567781483624
14.665924276169266,0.016126406376452122
14.69933184855234,0.03503305581086998
14.732739420935413,0.017805618145390553
14.766146993318486,-0.021867342615298022
14.79955456570156,-0.06309337007404006
14.832962138084634,-0.08863250206554314
14.866369710467707,-0.09222368273362953
14.899777282850781,-0.0789466250046507
14.933184855233854,-0.05956891322789497
14.966592427616927,-0.04311956704577197
15.0,-0.032393252418863636
