Time (s),Filtered Signal
0.0,-0.07314990787506258
0.03337004405286344,-0.11011209529759883
0.06674008810572687,-0.14164207957061448
0.10011013215859031,-0.16365917330658916
0.13348017621145375,-0.1732693887587529
0.16685022026431717,-0.17112531814925763
0.20022026431718062,-0.16347729386636967
0.23359030837004408,-0.16172876577598264
0.2669603524229075,-0.1783856483874718
0.3003303964757709,-0.220584939252174
0.33370044052863435,-0.2844518007727931
0.3670704845814978,-0.35386756345991216
0.40044052863436125,-0.4053294555926446
0.43381057268722467,-0.41736802541255696
0.46718061674008815,-0.38029234522752503
0.5005506607929515,-0.30146691150517696
0.533920704845815,-0.2032881932987102
0.5672907488986785,-0.11449777756017734
0.6006607929515418,-0.05862950001342025
0.6340308370044053,-0.044671426394805924
0.6674008810572687,-0.06390339950124432
0.7007709251101322,-0.09401718271394963
0.7341409691629956,-0.10844072340814861
0.767511013215859,-0.08667908245983136
0.8008810572687225,-0.02128688642454511
0.834251101321586,0.08119001759410607
0.8676211453744493,0.20510255400209454
0.9009911894273128,0.3335140084034645
0.9343612334801763,0.4548235016044082
0.9677312775330397,0.565018199314429
1.001101321585903,0.6650098176842693
1.0344713656387665,0.7553341225912804
1.06784140969163,0.8317847315018149
1.1012114537444935,0.8845285887773017
1.134581497797357,0.9006977708923356
1.1679515418502202,0.8682485009657708
1.2013215859030837,0.7786077413946852
1.2346916299559472,0.627340269970218
1.2680616740088106,0.41421147933128183
1.3014317180616741,0.14466376298089645
1.3348017621145374,-0.16685083233377065
1.3681718061674009,-0.49386352287171165
1.4015418502202643,-0.7988386084317383
1.4349118942731278,-1.0404343906990676
1.4682819383259913,-1.1858216013746004
1.5016519823788548,-1.2230446459549622
1.535022026431718,-1.1670060724926499
1.5683920704845815,-1.0548024430353105
1.601762114537445,-0.9309825107784656
1.6351321585903085,-0.8284440980475256
1.668502202643172,-0.7535165874863821
1.7018722466960352,-0.6827271828332814
1.7352422907488987,-0.5739824328828671
1.7686123348017622,-0.3882649261776944
1.8019823788546256,-0.11238771088576185
1.8353524229074891,0.22822102058370689
1.8687224669603526,0.573903590372285
1.9020925110132159,0.8515918236175292
1.9354625550660793,1.0031140262515985
1.9688325991189428,1.0080281004342122
2.002202643171806,0.8905562830420012
2.0355726872246698,0.7079604965628846
2.068942731277533,0.5264451682479446
2.1023127753303967,0.39585722316818805
2.13568281938326,0.33382943300693557
2.1690528634361232,0.32461866083814944
2.202422907488987,0.3310057916733466
2.23579295154185,0.3126871863650886
2.269162995594714,0.24339046282765417
2.302533039647577,0.1210369913938782
2.3359030837004404,-0.03127582272012255
2.369273127753304,-0.1727538494933102
2.4026431718061674,-0.2583383110709727
2.436013215859031,-0.25445883003773284
2.4693832599118943,-0.15249921038875466
2.5027533039647576,0.025026582905403605
2.5361233480176213,0.22918415804284306
2.5694933920704845,0.3999238272066656
2.6028634361233483,0.4865142327706336
2.6362334801762115,0.46414736545402135
2.6696035242290748,0.3388260457694903
2.7029735682819385,0.13859857906113018
2.7363436123348017,-0.10307404228826399
2.7697136563876654,-0.36140293308581567
2.8030837004405287,-0.6231764905931123
2.8364537444933924,-0.8773728173641537
2.8698237885462556,-1.1010926142528275
2.903193832599119,-1.2527094683650655
2.9365638766519826,-1.2807468522416814
2.969933920704846,-1.147315286924673
3.0033039647577096,-0.8544816188369325
3.036674008810573,-0.45730342146319186
3.070044052863436,-0.05219034481612092
3.1034140969162998,0.2580137559039681
3.136784140969163,0.40710682204469734
3.1701541850220267,0.39509627344807896
3.20352422907489,0.2878555974045679
3.2368942731277532,0.18545186753496268
3.270264317180617,0.1743773440883428
3.30363436123348,0.28772403014430514
3.337004405286344,0.4930412525941978
3.370374449339207,0.7125596066948477
3.4037444933920704,0.8633166672322868
3.437114537444934,0.8952258711058056
3.4704845814977974,0.8082519343380153
3.503854625550661,0.6430047324654777
3.5372246696035243,0.45401256076823104
3.5705947136563876,0.2829968289188552
3.6039647577092513,0.14663044849913848
3.6373348017621145,0.04225339240357048
3.6707048458149782,-0.03672327939436306
3.7040748898678415,-0.08909523670317109
3.737444933920705,-0.10688453444831897
3.7708149779735685,-0.08781156519953331
3.8041850220264317,-0.04871034582387671
3.8375550660792954,-0.027584723519959452
3.8709251101321587,-0.06903569015315864
3.9042951541850224,-0.19924870136395018
3.9376651982378856,-0.40514454256991805
3.971035242290749,-0.6318367943633002
4.004405286343612,-0.8028461143199191
4.037775330396476,-0.8542130813594734
4.0711453744493395,-0.76492724357483
4.104515418502203,-0.5674501453828431
4.137885462555066,-0.3327432151001106
4.171255506607929,-0.13766420825650907
4.2046255506607935,-0.03116188363637444
4.237995594713657,-0.015189984718952748
4.27136563876652,-0.047925350496387534
4.304735682819383,-0.06580674634589212
4.3381057268722465,-0.012760195305726689
4.371475770925111,0.1368367752146363
4.404845814977974,0.37033468134266995
4.438215859030837,0.6449507025732707
4.4715859030837,0.9053384935207238
4.504955947136564,1.1009873814894382
4.538325991189428,1.1961862413277984
4.571696035242291,1.1712013230131324
4.605066079295154,1.0190166028736027
4.638436123348018,0.7439137597200096
4.671806167400881,0.3651692703635445
4.705176211453745,-0.07671584441656419
4.738546255506608,-0.5184014516248144
4.7719162995594715,-0.8834440415471864
4.805286343612335,-1.104089548977505
4.838656387665198,-1.1474084930689548
4.872026431718062,-1.0326238554067202
4.905396475770925,-0.8282169136985947
4.938766519823789,-0.6264151563261456
4.972136563876652,-0.5045574830049062
5.005506607929515,-0.49100027576800853
5.038876651982379,-0.5526687809611911
5.072246696035243,-0.6116393388643687
5.105616740088106,-0.5838622802451162
5.138986784140969,-0.42161864831655355
5.172356828193832,-0.13874573714777663
5.2057268722466965,0.19417775166435974
5.23909691629956,0.4824631052371435
5.272466960352423,0.6513434409792699
5.305837004405286,0.6792595209642003
5.3392070484581495,0.6041832210150394
5.372577092511014,0.5010639478940457
5.405947136563877,0.4431893841957616
5.43931718061674,0.46745746058425636
5.4726872246696034,0.5599862712477897
5.506057268722468,0.6669876217824044
5.539427312775331,0.723162690041084
5.572797356828194,0.6825944793923723
5.606167400881057,0.5380782088416262
5.639537444933921,0.32224601574961975
5.672907488986785,0.0929220232769332
5.706277533039648,-0.08883253514050946
5.739647577092511,-0.1787061938263943
5.7730176211453745,-0.16121031745984868
5.806387665198238,-0.05242625783958335
5.839757709251102,0.1049208838371938
5.873127753303965,0.25165120762042736
5.9064977973568284,0.3256999910894405
5.939867841409692,0.27740542876170693
5.973237885462555,0.0840272910999556
6.006607929515419,-0.2402162600176593
6.039977973568282,-0.6425914113464442
6.073348017621146,-1.0412007136424752
6.106718061674009,-1.3444437825679003
6.140088105726872,-1.4760378980124431
6.173458149779736,-1.398270649205275
6.2068281938325995,-1.1256042412702936
6.240198237885463,-0.7230454464105143
6.273568281938326,-0.288468500350239
6.306938325991189,0.07619868429075141
6.3403083700440535,0.2956462676259103
6.373678414096917,0.34344148611875386
6.40704845814978,0.24854988070477751
6.440418502202643,0.08437153409519449
6.4737885462555065,-0.055650617292366665
6.507158590308371,-0.08788405872058716
6.540528634361234,0.03526318861261666
6.573898678414097,0.31039461576095917
6.60726872246696,0.6838340189855612
6.640638766519824,1.0679003926305934
6.674008810572688,1.3678682562068143
6.707378854625551,1.5109729358715853
6.740748898678414,1.4676811742240372
6.774118942731278,1.2578597573910308
6.807488986784141,0.9398977466924753
6.840859030837005,0.5872603366300553
6.874229074889868,0.2617762025841574
6.9075991189427315,-0.005810809199466091
6.940969162995595,-0.22044491238145478
6.974339207048458,-0.41108022921992615
7.007709251101322,-0.608378313148694
7.041079295154185,-0.8225537212971759
7.074449339207049,-1.0326389594206802
7.107819383259912,-1.1933559749278597
7.141189427312775,-1.2569238701768155
7.174559471365639,-1.1988044652248502
7.207929515418503,-1.0333236412107198
7.241299559471366,-0.8096478610487027
7.274669603524229,-0.5889168035811041
7.308039647577092,-0.41404529646860966
7.3414096916299565,-0.2887069349335666
7.37477973568282,-0.17800750055823528
7.408149779735683,-0.031974643982184824
7.441519823788546,0.1798679251282241
7.47488986784141,0.4418233839528271
7.508259911894274,0.6894585261144395
7.541629955947137,0.8354334528498303
7.575,0.81283101358501
7.608370044052863,0.6147321616308266
7.641740088105728,0.30902770736371565
7.675110132158591,0.018558820679452585
7.708480176211454,-0.12684857629603263
7.741850220264317,-0.04623173721760344
7.775220264317181,0.25334987691338057
7.808590308370045,0.6722493353573606
7.841960352422908,1.0518411940070471
7.875330396475771,1.2341371469262001
7.9087004405286345,1.1242868833788835
7.942070484581498,0.7307841937134496
7.975440528634362,0.1660328526694785
8.008810572687224,-0.3947687087028981
8.042180616740088,-0.7812373776992515
8.075550660792953,-0.8947334344659122
8.108920704845815,-0.7465040243806821
8.142290748898679,-0.4503838072427352
8.175660792951541,-0.1726980871758457
8.209030837004406,-0.06065432457165848
8.24240088105727,-0.17999855642410062
8.275770925110132,-0.4886378714003201
8.309140969162996,-0.8569948467253344
8.342511013215859,-1.1251769792611497
8.375881057268723,-1.171006476849817
8.409251101321587,-0.9589402499501345
8.44262114537445,-0.549682770738869
8.475991189427313,-0.06898018807256955
8.509361233480176,0.34750289587680444
8.54273127753304,0.6069931728647107
8.576101321585904,0.6875271826420027
8.609471365638766,0.6322125491330362
8.64284140969163,0.5174011351417729
8.676211453744493,0.4131161651514404
8.709581497797357,0.35488890714765003
8.742951541850221,0.337985676550076
8.776321585903084,0.33290079879614914
8.809691629955948,0.31107761967954456
8.84306167400881,0.2663367639873825
8.876431718061674,0.2212107961954823
8.909801762114538,0.21575330323848912
8.9431718061674,0.2850676679952541
8.976541850220265,0.43683006836177024
9.009911894273127,0.6396502320030352
9.043281938325991,0.8280491449481328
9.076651982378856,0.922751340062626
9.110022026431718,0.8588245068939345
9.143392070484582,0.6110316169351764
9.176762114537445,0.2064230990860261
9.210132158590309,-0.28154098593513055
9.243502202643173,-0.7562909752247438
9.276872246696035,-1.1306388881815421
9.3102422907489,-1.3555510820830452
9.343612334801762,-1.432877898841764
9.376982378854626,-1.406337941978177
9.41035242290749,-1.3352111904250688
9.443722466960352,-1.2637958466904158
9.477092511013216,-1.2018020833027172
9.510462555066079,-1.1249125122784516
9.543832599118943,-0.9938407685892873
9.577202643171807,-0.7804822703839787
9.61057268722467,-0.4865862679712772
9.643942731277534,-0.1452411662594263
9.677312775330396,0.1947843522068634
9.71068281938326,0.4927120381911198
9.744052863436124,0.7345166397327629
9.777422907488987,0.9368265920377684
9.81079295154185,1.1337841383141696
9.844162995594713,1.353324193356272
9.877533039647577,1.5947789824331924
9.910903083700441,1.8194551237430028
9.944273127753304,1.9599334384094829
9.977643171806168,1.9450523878997807
10.01101321585903,1.7300651315738154
10.044383259911895,1.3188914991785492
10.077753303964759,0.7688345024367057
10.111123348017621,0.17575485596673948
10.144493392070485,-0.35420470231881573
10.177863436123348,-0.735292296556095
10.211233480176212,-0.9241897757421765
10.244603524229076,-0.926884761346493
10.277973568281938,-0.7903774151427776
10.311343612334802,-0.5847564816036372
10.344713656387665,-0.38335703406112975
10.378083700440529,-0.24708256142868523
10.411453744493393,-0.21516437408416492
10.444823788546255,-0.30129035668122617
10.47819383259912,-0.4930610788329788
10.511563876651982,-0.7540470699793412
10.544933920704846,-1.0295115668174748
10.57830396475771,-1.2570799625186373
10.611674008810573,-1.381619425651069
10.645044052863437,-1.3705708712640552
10.678414096916299,-1.2241238602562214
10.711784140969163,-0.9754770169373482
10.745154185022027,-0.6798889334229065
10.77852422907489,-0.3957510555855528
10.811894273127754,-0.16446406978427738
10.845264317180618,0.0030846634096457523
10.87863436123348,0.12771694041081952
10.912004405286345,0.24972477955220654
10.945374449339207,0.4077127955509229
10.978744493392071,0.6174119636388964
11.012114537444935,0.8602245473255246
11.045484581497798,1.0875699294528873
11.078854625550662,1.240032050502598
11.112224669603524,1.2731532459755495
11.145594713656388,1.1782237291917714
11.178964757709252,0.9885217246870535
11.212334801762115,0.7680732679377387
11.245704845814979,0.5877263241628344
11.279074889867841,0.4985282361114722
11.312444933920705,0.5130192648320919
11.34581497797357,0.6013036368902308
11.379185022026432,0.7025946307118615
11.412555066079296,0.747089466779128
11.445925110132158,0.6798483895328008
11.479295154185023,0.4786991500337876
11.512665198237887,0.16114464328533668
11.546035242290749,-0.22103674751632568
11.579405286343613,-0.5976872731687949
11.612775330396476,-0.9024330078971085
11.64614537444934,-1.0947440305586966
11.679515418502204,-1.1740316595972515
11.712885462555066,-1.1786757962732692
11.74625550660793,-1.167452246917877
11.779625550660793,-1.1887903501912966
11.812995594713657,-1.2511917125789402
11.846365638766521,-1.3108713071872826
11.879735682819383,-1.2867509783816307
11.913105726872248,-1.0996076132991732
11.94647577092511,-0.7179404972820693
11.979845814977974,-0.1864724078084116
12.013215859030838,0.38061669404885123
12.0465859030837,0.8425134507738956
12.079955947136565,1.092122529228127
12.113325991189427,1.1046375748730308
12.146696035242291,0.94924958673906
12.180066079295155,0.7564751246375323
12.213436123348018,0.6556171012155749
12.246806167400882,0.7121262883176073
12.280176211453744,0.8953228163360291
12.313546255506608,1.0925560529059324
12.346916299559473,1.1634078441508913
12.380286343612335,1.0080532546633134
12.413656387665199,0.6170753586225548
12.447026431718061,0.07921347653276231
12.480396475770926,-0.4560946504440823
12.51376651982379,-0.8432182800412933
12.547136563876652,-1.0017208981758379
12.580506607929516,-0.946825995551765
12.613876651982379,-0.7760048818042334
12.647246696035243,-0.6188462266835998
12.680616740088107,-0.5737491663338534
12.71398678414097,-0.6605885120157742
12.747356828193833,-0.8110435475029563
12.780726872246696,-0.9011524343200071
12.81409691629956,-0.8114910783025142
12.847466960352424,-0.4877359578018617
12.880837004405286,0.026070852545793992
12.91420704845815,0.5972581756808696
12.947577092511013,1.0539339858204406
12.980947136563877,1.2531585871214082
13.014317180616741,1.1386416411173814
13.047687224669604,0.763249964987326
13.081057268722468,0.26696415995589384
13.11442731277533,-0.17968111809970524
13.147797356828194,-0.44183534383883255
13.181167400881058,-0.46789412565817595
13.21453744493392,-0.2993396606729558
13.247907488986785,-0.04142121156403944
13.281277533039647,0.1893036476482092
13.314647577092511,0.3153878375418325
13.348017621145376,0.32471004737021825
13.381387665198238,0.26338691482330545
13.414757709251102,0.20254785179743415
13.448127753303964,0.19759955865320084
13.481497797356829,0.26015859959843296
13.514867841409693,0.35466635155573917
13.548237885462555,0.4187671804949789
13.58160792951542,0.39552219652705856
13.614977973568282,0.2613550401654247
13.648348017621146,0.03729653009851152
13.68171806167401,-0.22011660284488052
13.715088105726872,-0.44261099672147675
13.748458149779736,-0.5771899571000172
13.781828193832599,-0.6048039258074037
13.815198237885463,-0.5439075379699515
13.848568281938327,-0.4392380373612742
13.88193832599119,-0.34210257640048625
13.915308370044054,-0.29077350070960395
13.948678414096916,-0.29794117938330517
13.98204845814978,-0.34829742470354497
14.015418502202644,-0.4055790766095112
14.048788546255507,-0.426126205565803
14.08215859030837,-0.3749705121900065
14.115528634361233,-0.23980752676297518
14.148898678414097,-0.03785594692744229
14.182268722466961,0.18831050415494727
14.215638766519824,0.38624990781273194
14.249008810572688,0.5152182205966246
14.28237885462555,0.564000490905286
14.315748898678414,0.5550806460279293
14.349118942731279,0.5310530331154804
14.382488986784141,0.5287003035163804
14.415859030837005,0.5541422506493064
14.449229074889868,0.5736920082773589
14.482599118942732,0.5278079384819979
14.515969162995596,0.36310630223471324
14.549339207048458,0.06657635778633732
14.582709251101322,-0.3166936748103777
14.616079295154185,-0.6935928387423823
14.649449339207049,-0.9580313595967692
14.682819383259913,-1.0346918220440864
14.716189427312775,-0.9100808016218146
14.74955947136564,-0.6358400550006725
14.782929515418502,-0.3037915901467018
14.816299559471366,-0.006558472391254303
14.84966960352423,0.19636476338607078
14.883039647577093,0.2923892282631557
14.916409691629957,0.3070480241234109
14.94977973568282,0.2817740311948048
14.983149779735683,0.2518409066869955
15.016519823788547,0.23446208904980487
15.04988986784141,0.22921452252574973
15.083259911894274,0.2262852673476452
15.116629955947138,0.2158478842500724
15.15,0.19396286551782496
15.183370044052865,0.16409841335727007
15.216740088105727,0.13584311988225625
15.250110132158591,0.12247124002657572
15.283480176211455,0.13765700364065991
15.316850220264318,0.19077012250097977
15.350220264317182,0.2810745453351678
15.383590308370044,0.39324114984101083
15.416960352422908,0.4978800359393742
15.450330396475772,0.5594807011457493
15.483700440528635,0.5501784211038683
15.517070484581499,0.4632499466853696
15.550440528634361,0.31828757469005753
15.583810572687225,0.1527611960152021
15.61718061674009,0.0017145632634341316
15.650550660792952,-0.12472446931997448
15.683920704845816,-0.2524054852580868
15.717290748898678,-0.43284721762526845
15.750660792951543,-0.712473024930709
15.784030837004407,-1.0951278660863197
15.817400881057269,-1.5187599015013957
15.850770925110133,-1.863110539398136
15.884140969162996,-1.9906500011923731
15.91751101321586,-1.8050267183564146
15.950881057268724,-1.299970621552652
15.984251101321586,-0.5738414925408087
16.01762114537445,0.19956705010656067
16.050991189427315,0.8325559222088897
16.084361233480177,1.1906300392986322
16.11773127753304,1.2363604013296319
16.151101321585905,1.0328949625175727
16.184471365638768,0.7089470955755228
16.21784140969163,0.40358264050573517
16.251211453744492,0.21572030440434434
16.284581497797358,0.1780614167974732
16.31795154185022,0.261957849881589
16.351321585903083,0.4054270628259431
16.38469162995595,0.5476665122276952
16.41806167400881,0.6533575902848143
16.451431718061674,0.7178089281259734
16.48480176211454,0.7549955288871183
16.518171806167402,0.7789180502253835
16.551541850220264,0.7902862327317296
16.584911894273127,0.7752150930523974
16.618281938325993,0.714333915586898
16.651651982378855,0.5947934209832599
16.685022026431717,0.4173876968900452
16.718392070484583,0.19565285723915007
16.751762114537446,-0.05046636895531924
16.785132158590308,-0.3009979762628768
16.818502202643174,-0.5385712614617308
16.851872246696036,-0.7475752345744692
16.8852422907489,-0.9132020935304602
16.91861233480176,-1.0233992190487433
16.951982378854627,-1.0734809741162146
16.98535242290749,-1.0697697998148659
17.01872246696035,-1.0281131526420675
17.052092511013218,-0.9662855656047831
17.08546255506608,-0.8940875079235678
17.118832599118942,-0.8078042024105542
17.152202643171808,-0.6940001055669807
17.18557268722467,-0.5418521476638655
17.218942731277533,-0.3568781410265828
17.2523127753304,-0.1663967848520461
17.28568281938326,-0.010709274618883477
17.319052863436124,0.07765196718542441
17.352422907488986,0.09592277791751057
17.385792951541852,0.08067752201243596
