Time (s),Filtered Signal
0.0,-0.035442128847972085
0.03337008452774715,-0.1229099034020497
0.0667401690554943,-0.18389929233495805
0.10011025358324147,-0.20279551780661315
0.1334803381109886,-0.18027788024390795
0.16685042263873576,-0.13134717054089884
0.20022050716648293,-0.07692286439218636
0.23359059169423008,-0.03338504755272745
0.2669606762219772,-0.005417963256820743
0.30033076074972437,0.0142841652385534
0.3337008452774715,0.03858401819811782
0.36707092980521866,0.0765157873087373
0.40044101433296586,0.12629733158677495
0.433811098860713,0.17467827232270738
0.46718118338846015,0.2029271937441968
0.5005512679162073,0.1959818053008385
0.5339213524439544,0.14957795450885847
0.5672914369717016,0.07155977833221912
0.6006615214994487,-0.02279054827404892
0.6340316060271959,-0.11795711332380268
0.667401690554943,-0.20323286390684317
0.7007717750826902,-0.2728442653248627
0.7341418596104373,-0.32218235332295797
0.7675119441381845,-0.34407808636222575
0.8008820286659317,-0.3289415405049942
0.8342521131936789,-0.26946295389085856
0.867622197721426,-0.16675826442329772
0.9009922822491732,-0.0332523340606909
0.9343623667769203,0.1104601472619102
0.9677324513046675,0.2433944289684599
1.0011025358324146,0.3518905478642455
1.0344726203601617,0.4324871533845688
1.0678427048879089,0.4884374172117116
1.101212789415656,0.5226493180192571
1.1345828739434032,0.5322027158913188
1.1679529584711503,0.5084620803261624
1.2013230429988975,0.4429742564080283
1.2346931275266446,0.3353438917844864
1.2680632120543918,0.1976740762323962
1.301433296582139,0.05198666108680094
1.334803381109886,-0.07873194379050127
1.3681734656376332,-0.1810609510073938
1.4015435501653803,-0.2569387051469636
1.4349136346931275,-0.32070080063753204
1.4682837192208746,-0.38840529803285695
1.5016538037486218,-0.46543510076824707
1.535023888276369,-0.5400443893273629
1.568393972804116,-0.587496598238267
1.6017640573318634,-0.5832106500689531
1.6351341418596106,-0.5176299351645343
1.6685042263873577,-0.40402789061839434
1.7018743109151049,-0.2742863667790193
1.735244395442852,-0.16456789922448584
1.7686144799705992,-0.09858158017336181
1.8019845644983463,-0.07742926644332296
1.8353546490260935,-0.0812270233620581
1.8687247335538406,-0.08116274796762338
1.9020948180815878,-0.05507910889925714
1.935464902609335,0.001959361573713819
1.968834987137082,0.07758044166908282
2.002205071664829,0.15193532155730666
2.0355751561925763,0.21124236969448845
2.0689452407203235,0.2567682031513199
2.1023153252480706,0.303702560514757
2.1356854097758178,0.3704075533799684
2.169055494303565,0.4643636353138937
2.202425578831312,0.5733658855814523
2.235795663359059,0.6677971453448902
2.2691657478868064,0.7136389801663118
2.3025358324145535,0.6897377223910606
2.3359059169423007,0.6001083101687588
2.369276001470048,0.47420064086532615
2.402646085997795,0.35396017382497025
2.436016170525542,0.2732221356584351
2.4693862550532892,0.2392088291020166
2.5027563395810364,0.22557927624072482
2.5361264241087835,0.18161445646630758
2.5694965086365307,0.05477162673121632
2.602866593164278,-0.18271717870343807
2.636236677692025,-0.515188118158458
2.669606762219772,-0.8820773349772357
2.7029768467475193,-1.1957012825626385
2.7363469312752664,-1.3718391803607375
2.7697170158030135,-1.3607646797507837
2.8030871003307607,-1.1658854396727552
2.836457184858508,-0.842375085969598
2.869827269386255,-0.47670528829434855
2.903197353914002,-0.15586809655961842
2.9365674384417493,0.061181891739476656
2.9699375229694964,0.15913847896288388
3.0033076074972436,0.16440393204871087
3.0366776920249907,0.12839584569517642
3.070047776552738,0.10430180570898637
3.103417861080485,0.12689192475924346
3.136787945608232,0.20242555889437178
3.1701580301359793,0.3108311952829655
3.203528114663727,0.41752071840173455
3.236898199191474,0.48921520870058827
3.270268283719221,0.5076398673426937
3.3036383682469683,0.4764530383020001
3.3370084527747155,0.41938160932968166
3.3703785373024626,0.37040398692943405
3.4037486218302098,0.3593935745706772
3.437118706357957,0.39842168938416833
3.470488790885704,0.4742726774265777
3.503858875413451,0.5510261677829443
3.5372289599411983,0.5828305404155821
3.5705990444689455,0.5324063237195589
3.6039691289966926,0.38752595051645566
3.63733921352444,0.1677738150622448
3.670709298052187,-0.08211590632378585
3.704079382579934,-0.3097381270490604
3.7374494671076812,-0.4753018284380567
3.7708195516354284,-0.5652332267632924
3.8041896361631755,-0.593013897769966
3.8375597206909227,-0.5876634599470559
3.87092980521867,-0.5763465524690321
3.904299889746417,-0.570069046769604
3.937669974274164,-0.5592716302533134
3.9710400588019112,-0.5207831137237877
4.004410143329658,-0.4319878732713122
4.0377802278574055,-0.28490875669052773
4.071150312385153,-0.09342170166959354
4.1045203969129,0.10960873986710672
4.137890481440647,0.28373011291750755
4.171260565968394,0.39555313006094045
4.204630650496141,0.4302223597617883
4.238000735023888,0.3950927497108709
4.2713708195516356,0.314782606074191
4.304740904079383,0.22063046238529224
4.33811098860713,0.13963742355928851
4.371481073134877,0.08734160982543326
4.404851157662624,0.06633971896474097
4.438221242190371,0.06908562790323855
4.471591326718118,0.08200499628106782
4.504961411245866,0.08864597238031534
4.538331495773613,0.07173107949942563
4.57170158030136,0.01575777352667077
4.605071664829107,-0.0883119659102434
4.638441749356854,-0.23681428700392235
4.671811833884601,-0.4087014540588908
4.7051819184123485,-0.5664768284158118
4.738552002940096,-0.6649619539887953
4.771922087467843,-0.66610927345359
4.80529217199559,-0.5541791408336552
4.838662256523337,-0.3442949263502827
4.872032341051084,-0.07974517156995345
4.905402425578831,0.1816535022570181
4.9387725101065785,0.38682977879793506
4.972142594634326,0.5045388415031967
5.005512679162073,0.5335095523663662
5.03888276368982,0.49895761498983954
5.072252848217567,0.43976797316135613
5.105622932745314,0.39230343211399665
5.138993017273061,0.3775623776181655
5.1723631018008085,0.39620024410193183
5.205733186328556,0.43205884328299926
5.239103270856303,0.46127974948641665
5.27247335538405,0.4624048632126537
5.305843439911797,0.4235372875967087
5.339213524439544,0.34483229544149274
5.372583608967291,0.2368321433565975
5.4059536934950385,0.11628488593067496
5.439323778022786,0.0009567625241043762
5.472693862550533,-0.0956298092572039
5.50606394707828,-0.16869041593962975
5.539434031606027,-0.22452113763169332
5.572804116133774,-0.2789763382798238
5.606174200661521,-0.3512985350988263
5.6395442851892685,-0.4548081444453746
5.672914369717016,-0.5883313868873183
5.706284454244763,-0.7328518342628539
5.73965453877251,-0.8558215720805263
5.773024623300257,-0.9218159890920015
5.806394707828004,-0.9049986815698723
5.839764792355751,-0.7980906865038994
5.873134876883499,-0.6144728342850393
5.906504961411246,-0.38330267285607245
5.939875045938993,-0.140239219904859
5.97324513046674,0.08252255376475169
6.006615214994487,0.2636110402488819
6.039985299522234,0.3952052948889915
6.073355384049981,0.4807493803083674
6.106725468577729,0.5290576191325655
6.140095553105476,0.5477383627930009
6.173465637633223,0.5393499526876165
6.20683572216097,0.502475374974043
6.240205806688717,0.43717603131327154
6.273575891216464,0.35142295412219543
6.3069459757442115,0.26391821337321414
6.340316060271959,0.20025195869679038
6.373686144799706,0.18303001349481798
6.407056229327454,0.2204640013470581
6.440426313855201,0.2996205510528777
6.473796398382948,0.3888035035114713
6.507166482910695,0.4490370734647685
6.540536567438442,0.44970443594948445
6.5739066519661895,0.3809008235459766
6.607276736493937,0.25653863578337005
6.640646821021684,0.10693448063567233
6.674016905549431,-0.03513225841544589
6.707386990077178,-0.14794527055393814
6.740757074604925,-0.22775123842129413
6.774127159132672,-0.2865193670916382
6.8074972436604195,-0.3425664925636451
6.840867328188167,-0.40916808887756473
6.874237412715914,-0.48672533479234076
6.907607497243661,-0.5619366457556603
6.940977581771408,-0.6139204500960691
6.974347666299155,-0.6240239120607587
7.007717750826902,-0.5845520758228204
7.0410878353546495,-0.5024430907516997
7.074457919882397,-0.39648870642757783
7.107828004410144,-0.2897141729506091
7.141198088937891,-0.20051390740934785
7.174568173465638,-0.1362652053185473
7.207938257993385,-0.0916286884957769
7.241308342521132,-0.0515991538966716
7.27467842704888,0.0023009172286532834
7.308048511576627,0.084940054509523
7.341418596104374,0.20166615735605015
7.374788680632121,0.3451128067952481
7.408158765159868,0.49575705209057025
7.441528849687615,0.6265735114143576
7.4748989342153624,0.7109566607641925
7.50826901874311,0.7315643131755739
7.541639103270857,0.6866729622872935
7.575009187798604,0.5910094383029852
7.608379272326351,0.47013986399675156
7.641749356854098,0.3505070359884878
7.675119441381845,0.24947162535450024
7.7084895259095925,0.16983155276429218
7.74185961043734,0.10108299858664732
7.775229694965087,0.026370398137131004
7.808599779492834,-0.06848682422283799
7.841969864020581,-0.18801470225258354
7.875339948548328,-0.32477867976562347
7.908710033076075,-0.46201464430543465
7.9420801176038225,-0.5795422934024036
7.97545020213157,-0.660476875965325
8.008820286659317,-0.6963887989165448
8.042190371187063,-0.6892521354223101
8.075560455714811,-0.6495478308018793
8.108930540242557,-0.5911766768900424
8.142300624770305,-0.5251379657366299
8.175670709298052,-0.45466561186900756
8.2090407938258,-0.3741122601712995
8.242410878353546,-0.2722878869282858
8.275780962881294,-0.13887984408423334
8.30915104740904,0.028918973087873095
8.342521131936788,0.22256417605236312
8.375891216464534,0.42278240441363424
8.409261300992283,0.604352178861732
8.442631385520029,0.7430737885935469
8.476001470047777,0.8223577268986012
8.509371554575523,0.8373629517882494
8.542741639103271,0.7956896638775917
8.57611172363102,0.7146510196095704
8.609481808158765,0.6158678610348265
8.642851892686513,0.5185179173010172
8.67622197721426,0.4331760431292079
8.709592061742008,0.3585195645300412
8.742962146269754,0.28263809147493896
8.776332230797502,0.18898492660030936
8.809702315325248,0.06470744220180909
8.843072399852996,-0.0924833480939529
8.876442484380743,-0.272368507649707
8.90981256890849,-0.45618989909971414
8.943182653436237,-0.6242243743361909
8.976552737963985,-0.7625725199456703
9.009922822491731,-0.8653299697677795
9.04329290701948,-0.9312866891557614
9.076662991547225,-0.9578731450185142
9.110033076074973,-0.9369814045490357
9.14340316060272,-0.8562777865148654
9.176773245130468,-0.706209693305343
9.210143329658214,-0.4890738780977671
9.243513414185962,-0.22457449581660965
9.276883498713708,0.05240122587291824
9.310253583241456,0.30199497814609055
9.343623667769203,0.49312118122046555
9.37699375229695,0.6137852815593586
9.410363836824697,0.6723945575700724
9.443733921352445,0.6892395375109511
9.477104005880191,0.6828592391679599
9.51047409040794,0.6590406853816518
9.543844174935685,0.6088139336836353
9.577214259463434,0.5166787239384726
9.61058434399118,0.3743874893379835
9.643954428518928,0.19231603764948985
9.677324513046674,0.0015924389730480745
9.710694597574422,-0.15500699291905062
9.744064682102168,-0.23952572928452406
9.777434766629916,-0.23494124029981356
9.810804851157663,-0.15321373033491167
9.84417493568541,-0.03130633106609478
9.877545020213157,0.08317735516266422
9.910915104740905,0.15032770045850444
9.944285189268651,0.15213675651369218
9.9776552737964,0.09657388829741569
10.011025358324146,0.010304244050777827
10.044395442851894,-0.07597384534629636
10.07776552737964,-0.14231514809901652
10.111135611907388,-0.1872675788102349
10.144505696435134,-0.2248799546934397
10.177875780962882,-0.2727073171355555
10.211245865490628,-0.33737232147533014
10.244615950018376,-0.40593738132077406
10.277986034546123,-0.44868675360061266
10.31135611907387,-0.4329343547057561
10.344726203601617,-0.34117264851903717
10.378096288129365,-0.1837685511137511
10.411466372657111,0.001469483389894357
10.44483645718486,0.16393913109306568
10.478206541712606,0.2625012760340677
10.511576626240354,0.2841979730013972
10.5449467107681,0.24960758209847567
10.578316795295848,0.20172527913367705
10.611686879823594,0.183816948315093
10.645056964351342,0.21745492779887815
10.678427048879088,0.29178021198946635
10.711797133406836,0.36910691057133316
10.745167217934583,0.4035983576702108
10.77853730246233,0.3634159443271473
10.811907386990077,0.24563086717635002
10.845277471517825,0.07745073420078015
10.878647556045571,-0.0957192669082427
10.91201764057332,-0.22893782172133695
10.945387725101066,-0.29450901658334855
10.978757809628814,-0.29031522673327953
11.01212789415656,-0.23766474115375372
11.045497978684308,-0.17108912937446824
11.078868063212054,-0.12499640375624872
11.112238147739802,-0.12207293743510049
11.145608232267548,-0.16664345157570218
11.178978316795297,-0.24410613035261383
11.212348401323043,-0.3259169437200636
11.24571848585079,-0.3785488719550238
11.279088570378537,-0.37412592273763434
11.312458654906285,-0.29987034065697316
11.345828739434031,-0.16336350517052692
11.37919882396178,0.008587330182019856
11.412568908489526,0.17774034608536018
11.445938993017274,0.3065548401070729
11.47930907754502,0.3703355776349709
11.512679162072768,0.36476793067221264
11.546049246600514,0.30603830439256413
11.579419331128262,0.22383134106952288
11.612789415656009,0.15034099770713583
11.646159500183757,0.10967937604604429
11.679529584711503,0.11131743407957428
11.71289966923925,0.1491132316429582
11.746269753766997,0.20526434641040964
11.779639838294745,0.2571105720353276
11.813009922822491,0.2843862675953461
11.84638000735024,0.2749730150241216
11.879750091877986,0.22794028011635303
11.913120176405734,0.1533508876014689
11.94649026093348,0.06889795068355244
11.979860345461228,-0.00592697765303825
12.013230429988974,-0.05665914670724904
12.046600514516722,-0.07948274475982234
12.079970599044469,-0.08330659324661167
12.113340683572217,-0.08686897497134306
12.146710768099963,-0.11137540497959993
12.180080852627711,-0.17130231899592574
12.213450937155457,-0.26716938484526254
12.246821021683205,-0.3835314777211326
12.280191106210951,-0.4933206286882251
12.3135611907387,-0.5669614847477852
12.346931275266446,-0.5826512561787113
12.380301359794194,-0.5337429946908755
12.41367144432194,-0.43045116144352336
12.447041528849688,-0.29547565846271634
12.480411613377434,-0.15553647700066955
12.513781697905182,-0.03225421151883238
12.547151782432929,0.06414608331939985
12.580521866960677,0.1360663651145115
12.613891951488423,0.19449034782358696
12.647262036016171,0.2515943411337371
12.680632120543917,0.3134109148548518
12.714002205071665,0.3759996655703081
12.747372289599411,0.4269840578454089
12.78074237412716,0.45165581974698904
12.814112458654908,0.4404582782932379
12.847482543182654,0.3939265070343353
12.880852627710402,0.32262633344233776
12.914222712238148,0.2424965852276754
12.947592796765896,0.16850655363240585
12.980962881293642,0.11010946433162962
13.01433296582139,0.07029895021853809
13.047703050349137,0.047410556803405356
13.081073134876885,0.03712451869188633
13.114443219404631,0.03268468692561289
13.147813303932379,0.023707745670308887
13.181183388460125,-0.003820392651429792
13.214553472987873,-0.06371105661137474
13.24792355751562,-0.16187809364379369
13.281293642043368,-0.2884435050416081
13.314663726571114,-0.4152795358154809
13.348033811098862,-0.5029225895902382
13.381403895626608,-0.5158244428164234
13.414773980154356,-0.43944906180359583
13.448144064682102,-0.2902773224439667
13.48151414920985,-0.11229967820286942
13.514884233737597,0.03989530478208992
13.548254318265345,0.12421431165142102
13.581624402793091,0.1293668985824068
13.614994487320839,0.07927550622181685
13.648364571848585,0.021151614401557894
13.681734656376333,0.0028726327711292173
13.71510474090408,0.05053409162456024
13.748474825431828,0.15674889804992898
13.781844909959574,0.2846999045980309
13.815214994487322,0.3851770314804816
13.848585079015068,0.4179123255912459
13.881955163542816,0.36731113733898774
13.915325248070562,0.24635920494417343
13.94869533259831,0.08870977320544012
13.982065417126057,-0.06571273042144475
14.015435501653805,-0.18438925514191595
14.048805586181551,-0.24995191331970962
14.082175670709299,-0.2608674053104337
14.115545755237045,-0.22743791427290755
14.148915839764793,-0.16660713940542587
14.18228592429254,-0.09776884039904962
14.215656008820288,-0.039654955250776704
14.249026093348034,-0.0072670472724534856
14.282396177875782,-0.008454792269316072
14.315766262403528,-0.04131728010653148
14.349136346931276,-0.09444934038592996
14.382506431459023,-0.1510790717937499
14.41587651598677,-0.19578526427499335
14.449246600514517,-0.22045547518244973
14.482616685042265,-0.2260961519260431
14.515986769570011,-0.21932164204159363
14.54935685409776,-0.20552104779987465
14.582726938625505,-0.18285084329734927
14.616097023153253,-0.14096509801909626
14.649467107681,-0.06582386244178907
14.682837192208748,0.05158419455955744
14.716207276736494,0.20722929452675862
14.749577361264242,0.38132034100068435
14.782947445791988,0.5428409349463249
14.816317530319736,0.6595388771768483
14.849687614847483,0.7087730883188237
14.88305769937523,0.6843366919696577
14.916427783902977,0.5966314448381616
14.949797868430725,0.46695793951517356
14.983167952958471,0.3192905781129845
15.01653803748622,0.17343924668418303
15.049908122013965,0.04195570628454153
15.083278206541713,-0.06933118953578919
15.11664829106946,-0.1591240096289576
15.150018375597208,-0.2290024146687738
15.183388460124954,-0.28318059247944427
15.216758544652702,-0.32879596074927897
15.250128629180448,-0.37501118362139846
15.283498713708196,-0.4299565583464964
15.316868798235943,-0.49635437882062156
15.35023888276369,-0.5682015837518132
15.383608967291437,-0.6309225047404378
15.416979051819185,-0.6657417626564517
15.450349136346931,-0.656648517365375
15.48371922087468,-0.5967185551772658
15.517089305402425,-0.49074508857856874
15.550459389930174,-0.353006523093581
15.58382947445792,-0.20146374219366198
15.617199558985668,-0.051342631778123496
15.650569643513414,0.08890392474514403
15.683939728041162,0.21770041074961013
15.717309812568908,0.33700488669781475
15.750679897096656,0.44762140161316194
15.784049981624403,0.5457928138423516
15.81742006615215,0.6229552213749926
15.850790150679897,0.66886602128612
15.884160235207645,0.6764850457399062
15.917530319735391,0.6459470861202544
15.95090040426314,0.585370435293604
15.984270488790886,0.5079550729742262
16.017640573318634,0.4268532740999411
16.05101065784638,0.35042938427366116
16.084380742374126,0.28014346173179844
16.117750826901876,0.21175378818374768
16.151120911429622,0.1388368718977753
16.18449099595737,0.05669306306963282
16.217861080485115,-0.03513975709149652
16.251231165012864,-0.13261323937445596
16.28460124954061,-0.22888078422172584
16.317971334068357,-0.31696739559558673
16.351341418596103,-0.3921569516179102
16.384711503123853,-0.4531586557552472
16.4180815876516,-0.5017188987699946
16.451451672179346,-0.5409807542176107
16.484821756707092,-0.5733288479092573
16.51819184123484,-0.5985791583553977
16.551561925762588,-0.6132048604420822
16.584932010290334,-0.6109276820637567
16.61830209481808,-0.584545290443033
16.65167217934583,-0.5284021461843169
16.685042263873576,-0.4405859661811689
16.718412348401323,-0.3239293778320613
16.75178243292907,-0.18532778720451792
16.78515251745682,-0.03364588332147747
16.818522601984565,0.1227674626597875
16.85189268651231,0.2776380478383281
16.885262771040058,0.4265049623836865
16.918632855567807,0.5647820741156336
16.952002940095554,0.685410361618712
16.9853730246233,0.7778794762189463
17.018743109151046,0.8298523653482996
17.052113193678796,0.8312095212403464
17.085483278206542,0.778816994348839
17.11885336273429,0.6796224579813305
17.15222344726204,0.550246752758429
17.185593531789785,0.4127799704968095
17.21896361631753,0.28820220622303483
17.252333700845277,0.1898974805840823
17.285703785373027,0.11968850626452862
17.319073869900773,0.06779594223622644
