Frequency (Hz),Amplitude
0.0,3.307077260084851
0.019867549668874173,3.3062916900177792
0.039735099337748346,3.3039369093362594
0.059602649006622516,3.300018708531812
0.07947019867549669,3.294546744857571
0.09933774834437085,3.2875345519518695
0.11920529801324503,3.278999553253747
0.13907284768211922,3.2689630791458937
0.15894039735099338,3.2574503877318697
0.17880794701986755,3.244490689117947
0.1986754966887417,3.230117173023094
0.2185430463576159,3.2143670394815396
0.23841059602649006,3.1972815323276147
0.2582781456953642,3.178905975060297
0.27814569536423844,3.159289808570801
0.2980132450331126,3.138486630077713
0.31788079470198677,3.1165542324466915
0.33774834437086093,3.093554642871326
0.3576158940397351,3.069554159654407
0.3774834437086093,3.044623385550434
0.3973509933774834,3.018837255806716
0.4172185430463576,2.9922750586684232
0.4370860927152318,2.9650204456907394
0.45695364238410596,2.937161428727074
0.4768211920529801,2.908790359939176
0.49668874172185434,2.880003890606494
0.5165562913907285,2.8509029039084735
0.5364238410596026,2.8215924162295005
0.5562913907284769,2.792181440913118
0.5761589403973509,2.7627828078019028
0.5960264900662252,2.7335129313803908
0.6158940397350993,2.704491519944116
0.6357615894039735,2.6758412180086646
0.6556291390728477,2.6476871742238917
0.6754966887417219,2.620156527452012
0.695364238410596,2.5933778044917735
0.7152317880794702,2.5674802242730124
0.7350993377483444,2.5425929052834
0.7549668874172186,2.5188439755809604
0.7748344370860927,2.4963595880148635
0.7947019867549668,2.475262847199089
0.8145695364238411,2.4556726592700016
0.8344370860927152,2.4377025203469103
0.8543046357615894,2.4214592646626802
0.8741721854304636,2.407041798216811
0.8940397350993378,2.394539848146179
0.9139072847682119,2.3840327613900834
0.9337748344370861,2.3755883882362574
0.9536423841059603,2.3692620866165255
0.9735099337748344,2.3650958813263094
0.9933774834437087,2.3631178085760327
1.0132450331125828,2.3633414705371507
1.033112582781457,2.3657658171072415
1.0529801324503312,2.3703751634577213
1.0728476821192052,2.3771394426447485
1.0927152317880795,2.386014683335303
1.1125827814569538,2.3969436941917945
1.1324503311258278,2.409856929258269
1.1523178807947019,2.424673503238242
1.1721854304635762,2.4413023221094066
1.1920529801324504,2.459643293141745
1.2119205298013245,2.479588578954416
1.2317880794701985,2.5010238624925965
1.2516556291390728,2.523829593360772
1.271523178807947,2.547882190399145
1.2913907284768211,2.573055180321274
1.3112582781456954,2.599220257268876
1.3311258278145695,2.626248252976256
1.3509933774834437,2.654010011641755
1.370860927152318,2.682377167425078
1.390728476821192,2.7112228256523325
1.410596026490066,2.7404221512968574
1.4304635761589404,2.769852870143897
1.4503311258278146,2.799395689303095
1.4701986754966887,2.8289346444848404
1.4900662251655628,2.858357381790832
1.5099337748344372,2.8875553817768376
1.5298013245033113,2.9164241333037
1.5496688741721854,2.944863264276341
1.5695364238410596,2.972776635838916
1.5894039735099337,3.000072405997412
1.609271523178808,3.0266630680172093
1.6291390728476822,3.052465468322025
1.6490066225165563,3.0774008080226265
1.6688741721854303,3.101394631642521
1.6887417218543048,3.124376806092623
1.7086092715231789,3.146281492481736
1.728476821192053,3.1670471129353284
1.7483443708609272,3.1866163142317565
1.7682119205298013,3.204935929748827
1.7880794701986755,3.2219569409422713
1.8079470198675496,3.2376344393465453
1.8278145695364238,3.251927589893644
1.847682119205298,3.264799596182794
1.8675496688741722,3.2762176681995356
1.8874172185430464,3.286152992872081
1.9072847682119205,3.2945807077638047
1.9271523178807946,3.3014798781286463
1.9470198675496688,3.3068334774990653
1.9668874172185429,3.310628371931555
1.9867549668874174,3.3128553079994023
2.0066225165562916,3.3135089045947894
2.0264900662251657,3.3125876485808683
2.0463576158940397,3.310093894316365
2.066225165562914,3.306033867059687
2.086092715231788,3.3004176702445283
2.1059602649006623,3.293259296602631
2.1258278145695364,3.2845766430905097
2.1456953642384105,3.2743915295538106
2.165562913907285,3.26272972103263
2.185430463576159,3.2496209535739307
2.205298013245033,3.235098963367653
2.2251655629139075,3.219201518962262
2.2450331125827816,3.201970456237625
2.2649006622516556,3.18345171571739
2.2847682119205297,3.163695381684806
2.3046357615894038,3.1427557224222786
2.324503311258278,3.1206912307216292
2.3443708609271523,3.097564663605028
2.364238410596027,3.0734430799517223
2.384105960264901,3.0483978744386393
2.403973509933775,3.02250480586983
2.423841059602649,2.99584401758759
2.443708609271523,2.9685000472241505
2.463576158940397,2.9405618225674974
2.4834437086092715,2.9121226397792994
2.5033112582781456,2.8832801196235107
2.52317880794702,2.854136136750194
2.543046357615894,2.8247967164470276
2.562913907284768,2.7953718926443463
2.5827814569536423,2.7659755203692478
2.6026490066225163,2.7367250353347403
2.622516556291391,2.707741152972052
2.642384105960265,2.679147499034791
2.662251655629139,2.6510701639981034
2.6821192052980134,2.6236371739279916
2.7019867549668874,2.5969778713962146
2.7218543046357615,2.5712222014517803
2.741721854304636,2.54649989970725
2.76158940397351,2.5229395823125014
2.781456953642384,2.5006677409869646
2.801324503311258,2.4798076503305695
2.821192052980132,2.4604781992341564
2.8410596026490067,2.442792663185872
2.8609271523178808,2.426857439362796
2.8807947019867552,2.4127707712735305
2.9006622516556293,2.4006214939827673
2.9205298013245033,2.3904878341804663
2.9403973509933774,2.3824363011452654
2.9602649006622515,2.3765207046478976
2.9801324503311255,2.372781333814839
3.0,2.371244326857117
3.0198675496688745,2.3719212554866176
3.0397350993377485,2.3748089401143613
3.0596026490066226,2.379889503047969
3.0794701986754967,2.387130657505695
3.0993377483443707,2.396486221025936
3.119205298013245,2.4078968334409017
3.1390728476821192,2.4212908525735872
3.1589403973509933,2.4365853956264103
3.1788079470198674,2.453687491087394
3.198675496688742,2.4724953049155927
3.218543046357616,2.4928994056323335
3.23841059602649,2.51478403544798
3.2582781456953644,2.5380283583123786
3.2781456953642385,2.562507660369141
3.2980132450331126,2.588094483306213
3.3178807947019866,2.6146596761595293
3.3377483443708607,2.642073355943697
3.3576158940397347,2.6702057718348993
3.3774834437086096,2.6989280713771975
3.3973509933774837,2.728112970257785
3.4172185430463577,2.757635329591212
3.437086092715232,2.787372646404336
3.456953642384106,2.8172054641884587
3.47682119205298,2.847017711066418
3.4966887417218544,2.8766969733984595
3.5165562913907285,2.906134712610323
3.5364238410596025,2.935226432749251
3.556291390728477,2.963871805830648
3.576158940397351,2.9919747614884598
3.596026490066225,3.019443546833874
3.615894039735099,3.046190761797804
3.6357615894039736,3.0721333746093906
3.6556291390728477,3.0971927214662096
3.6754966887417218,3.121294493894228
3.695364238410596,3.1443687167851553
3.7152317880794703,3.166349719639126
3.7350993377483444,3.187176103132752
3.754966887417219,3.2067907027747204
3.774834437086093,3.225140551101337
3.794701986754967,3.2421768395980672
3.814569536423841,3.2578548813077033
3.834437086092715,3.272134074895109
3.854304635761589,3.284977870780399
3.8741721854304636,3.2963537398214444
3.8940397350993377,3.3062331449194597
3.9139072847682117,3.314591515835045
3.9337748344370858,3.3214082274325802
3.9536423841059607,3.3266665815158687
3.9735099337748347,3.330353792374865
3.993377483443709,3.3324609761295028
4.013245033112583,3.332983143930568
4.033112582781457,3.3319191990563146
4.052980132450331,3.329271937926876
4.072847682119205,3.325048055042636
4.0927152317880795,3.319258151838304
4.112582781456953,3.3119167494278567
4.132450331125828,3.303042305196141
4.152317880794702,3.2926572331689026
4.172185430463576,3.280787928062123
4.19205298013245,3.2674647928717535
4.211920529801325,3.2527222698145906
4.231788079470199,3.2365988743665923
4.251655629139073,3.219137232064532
4.271523178807947,3.2003841176369163
4.291390728476821,3.1803904959072313
4.311258278145695,3.159211563763269
4.33112582781457,3.13690679230614
4.3509933774834435,3.1135399680778115
4.370860927152318,3.089179232011913
4.390728476821192,3.0638971144551794
4.410596026490066,3.037770564261731
4.43046357615894,3.010880969567254
4.450331125827815,2.983314167401768
4.470198675496689,2.9551604387986576
4.490066225165563,2.9265144855064733
4.509933774834438,2.89747538381384
4.529801324503311,2.8681465103691766
4.549668874172186,2.838635434231225
4.569536423841059,2.8090537687497963
4.589403973509934,2.779516976281969
4.6092715231788075,2.7501441182419315
4.629139072847682,2.7210575426188477
4.649006622516556,2.6923825009442646
4.66887417218543,2.664246686827514
4.688741721854305,2.6367796886917403
4.708609271523179,2.6101123503258523
4.728476821192054,2.5843760344079905
4.748344370860927,2.559701786329612
4.768211920529802,2.536219398508346
4.788079470198675,2.5140563789328056
4.80794701986755,2.493336831892808
4.827814569536423,2.4741802635997563
4.847682119205298,2.4567003305045545
4.867549668874172,2.4410035532984207
4.887417218543046,2.4271880244841815
4.9072847682119205,2.4153421416234546
4.927152317880794,2.40554340146503
4.947019867549669,2.3978572917292156
4.966887417218543,2.3923363170225884
4.986754966887418,2.3890191929740117
5.006622516556291,2.3879302381751972
5.026490066225166,2.3890789870340603
5.04635761589404,2.3924600385644585
5.066225165562914,2.3980531469738233
5.086092715231788,2.405823550323092
5.105960264900662,2.4157225242232894
5.125827814569536,2.4276881391687097
5.14569536423841,2.4416461932508446
5.1655629139072845,2.4575112870467133
5.185430463576159,2.475188004629716
5.205298013245033,2.4945721639101457
5.225165562913908,2.515552100694962
5.245033112582782,2.538009953647485
5.264900662251656,2.561822921324749
5.28476821192053,2.586864467243138
5.304635761589404,2.6130054540542105
5.324503311258278,2.640115193038607
5.344370860927152,2.668062399955083
5.364238410596027,2.6967160526056015
5.3841059602649,2.7259461491678367
5.403973509933775,2.755624369347764
5.4238410596026485,2.785624642717618
5.443708609271523,2.8158236302736537
5.463576158940397,2.846101126343986
5.483443708609272,2.876340388586739
5.503311258278146,2.906428404033743
5.52317880794702,2.9362560990425344
5.543046357615895,2.9657185007012243
5.562913907284768,2.9947148567553517
5.582781456953643,3.02314872055276
5.602649006622516,3.050928006877657
5.622516556291391,3.077965023904514
5.642384105960264,3.104176485873504
5.662251655629139,3.129483510489466
5.682119205298013,3.153811604488854
5.701986754966887,3.177090640310336
5.7218543046357615,3.1992548263480947
5.741721854304636,3.2202426728626494
5.7615894039735105,3.2399969552705623
5.781456953642384,3.2584646762286815
5.801324503311259,3.275597027667067
5.821192052980132,3.291349353702846
5.841059602649007,3.3056811151811103
5.860927152317881,3.3185558564341995
5.880794701986755,3.329941174723006
5.900662251655629,3.339808692720071
5.920529801324503,3.348134034310222
5.940397350993377,3.3548968039175673
5.960264900662251,3.360080569514675
5.980132450331126,3.363672849428389
6.0,3.3656651030246625
6.0198675496688745,3.3660527253294883
6.039735099337749,3.3648350456235083
6.059602649006623,3.362015330031017
6.079470198675497,3.3576007881096666
6.099337748344371,3.35160258343226
6.119205298013245,3.3440358481355714
6.139072847682119,3.33491970139167
6.158940397350993,3.324277271731853
6.178807947019867,3.312135723121854
6.198675496688741,3.298526284645019
6.218543046357616,3.283484283598013
6.23841059602649,3.267049181735968
6.258278145695365,3.2492646143201713
6.2781456953642385,3.2301784315169106
6.298013245033113,3.209842741567656
6.317880794701987,3.188313954994699
6.337748344370861,3.165652828918579
6.357615894039735,3.1419245103390376
6.377483443708609,3.117198576966302
6.397350993377484,3.091549073879345
6.417218543046357,3.065054543927807
6.437086092715232,3.0377980493829426
6.456953642384105,3.009867181875917
6.47682119205298,2.9813540571414303
6.496688741721854,2.952355290511815
6.516556291390729,2.922971948489739
6.5364238410596025,2.89330947107704
6.556291390728477,2.863477558872661
6.5761589403973515,2.833590018299388
6.596026490066225,2.8037645577150014
6.6158940397351,2.7741225266539065
6.635761589403973,2.744788590091443
6.655629139072848,2.715890329494742
6.675496688741721,2.687557762604855
6.695364238410596,2.6599227744756155
6.715231788079469,2.6331184533694714
6.735099337748344,2.6072783267709667
6.754966887417219,2.58253549509997
6.774834437086093,2.559021663738238
6.794701986754967,2.5368660777305174
6.814569536423841,2.5161943679320604
6.8344370860927155,2.497127322322003
6.854304635761589,2.479779601477104
6.874172185430464,2.4642584225075383
6.894039735099337,2.450662240722842
6.913907284768212,2.439079462493794
6.933774834437086,2.4295872257582043
6.95364238410596,2.4222502859663013
6.973509933774834,2.4171200446409413
6.993377483443709,2.4142337549439095
7.013245033112583,2.413613933679085
7.033112582781457,2.4152680022222186
7.052980132450331,2.4191881703446203
7.072847682119205,2.425351567368224
7.0927152317880795,2.4337206152391824
7.112582781456954,2.4442436286595326
7.132450331125828,2.4568556190497968
7.152317880794702,2.471479272383129
7.172185430463576,2.4880260662104923
7.19205298013245,2.5063974886563782
7.211920529801324,2.5264863217686755
7.231788079470198,2.548177953142181
7.251655629139073,2.5713516828551315
7.271523178807947,2.5958819970400704
7.291390728476822,2.6216397844084964
7.311258278145695,2.6484934773415434
7.33112582781457,2.676310104383048
7.3509933774834435,2.704956245843637
7.370860927152318,2.7342988885446795
7.390728476821192,2.764206179383769
7.410596026490066,2.794548080343071
7.430463576158941,2.825196929799352
7.450331125827814,2.8560279165834586
7.470198675496689,2.886919474252786
7.490066225165562,2.917753603576191
7.509933774834438,2.948416131379122
7.52980132450331,2.9787969137471157
7.549668874172186,3.0087899912200102
7.569536423841059,3.038293703095737
7.589403973509934,3.0672107673592595
7.6092715231788075,3.0954483321053385
7.629139072847682,3.1229180036671047
7.649006622516557,3.1495358560223425
7.66887417218543,3.1752224254430472
7.6887417218543055,3.1999026937925783
7.708609271523178,3.223506063364583
7.728476821192054,3.2459663257019864
7.748344370860927,3.26722162643168
7.768211920529802,3.2872144277996656
7.788079470198675,3.3058914702889157
7.80794701986755,3.3232037344436542
7.827814569536423,3.3391064038058
7.847682119205298,3.3535588296857806
7.8675496688741715,3.3665244983391904
7.887417218543046,3.377971000995296
7.907284768211921,3.387870007082975
7.927152317880795,3.3961972409178522
7.9470198675496695,3.4029324620498014
7.966887417218543,3.408059449419369
7.986754966887418,3.411565989431853
8.006622516556291,3.413443868027288
8.026490066225167,3.4136888668011864
8.046357615894038,3.412300763211522
8.066225165562914,3.409283334892701
8.086092715231787,3.4046443680822884
8.105960264900663,3.3983956701525204
8.125827814569536,3.390553086221768
8.14569536423841,3.381136519801454
8.165562913907285,3.3701699574077715
8.185430463576159,3.35768149703467
8.205298013245034,3.343703380341415
8.225165562913906,3.328272028352393
8.245033112582782,3.3114280803969964
8.264900662251655,3.2932164359288
8.28476821192053,3.2736862987535678
8.304635761589404,3.252891223060965
8.324503311258278,3.230889160490792
8.344370860927151,3.2077425072669294
8.364238410596027,3.18351815019663
8.3841059602649,3.1582875100540773
8.403973509933774,3.132126580541281
8.42384105960265,3.105115960641675
8.443708609271523,3.0773408777492155
8.463576158940398,3.048891198466478
8.483443708609272,3.019861423418978
8.503311258278146,2.9903506618333857
8.52317880794702,2.9604625809818064
8.543046357615895,2.9303053249151954
8.562913907284768,2.8999913962176405
8.582781456953642,2.869637493836299
8.602649006622515,2.8393642994202533
8.62251655629139,2.809296204084435
8.642384105960264,2.7795609671662267
8.66225165562914,2.750289298437896
8.682119205298013,2.721614355465457
8.701986754966887,2.6936711484594036
8.721854304635762,2.666595846144087
8.741721854304636,2.640524977974177
8.76158940397351,2.6155945305249544
8.781456953642383,2.5919389391253085
8.801324503311259,2.5696899797869657
8.821192052980132,2.548975571146678
8.841059602649008,2.52991850133711
8.86092715231788,2.512635100205221
8.880794701986755,2.4972338827847524
8.90066225165563,2.483814195001283
8.920529801324504,2.472464896792879
8.940397350993377,2.463263120700111
8.960264900662251,2.456273145088649
8.980132450331126,2.4515454201858606
9.0,2.4491157818630347
9.019867549668875,2.449004882596888
9.039735099337747,2.451217861538459
9.059602649006623,2.4557442665536966
9.079470198675496,2.462558231102573
9.099337748344372,2.471618898621217
9.119205298013245,2.4828710774182783
9.139072847682119,2.4962461006811516
9.158940397350994,2.5116628595592108
9.178807947019868,2.529028972803872
9.198675496688743,2.548242054235497
9.218543046357615,2.5691910392995325
9.23841059602649,2.59175753391489
9.258278145695364,2.615817152325446
9.27814569536424,2.641240815289946
9.298013245033111,2.6678959852236144
9.317880794701987,2.695647820406615
9.33774834437086,2.7243602357368446
9.357615894039736,2.753896862450068
9.37748344370861,2.7841219035695466
9.397350993377483,2.8149008854764457
9.417218543046358,2.846101308878003
9.437086092715232,2.877593204615434
9.456953642384107,2.9092496012592615
9.47682119205298,2.9409469123718903
9.496688741721854,2.972565251771471
9.516556291390728,3.0039886852048285
9.536423841059603,3.0351054266228124
9.556291390728477,3.0658079868291335
9.57615894039735,3.09599328171441
9.596026490066224,3.1255627066470844
9.6158940397351,3.1544221829165333
9.635761589403973,3.1824821814457787
9.655629139072847,3.209657728334715
9.675496688741722,3.235868396177872
9.695364238410596,3.2610382845319026
9.715231788079471,3.285095992394082
9.735099337748345,3.3079745850951516
9.754966887417218,3.329611557607188
9.774834437086092,3.3499487959172103
9.794701986754967,3.3689325378170714
9.814569536423841,3.386513334203457
9.834437086092716,3.4026460117671284
9.854304635761588,3.4172896377699167
9.874172185430464,3.4304074874596666
9.894039735099337,3.441967014551474
9.913907284768213,3.451939825105314
9.933774834437086,3.4603016550511345
9.95364238410596,3.4670323515506327
9.973509933774835,3.472115858335877
9.993377483443709,3.4755402051277264
10.013245033112582,3.477297501208227
10.033112582781456,3.4773839331987433
10.052980132450331,3.4757997670786103
10.072847682119205,3.4725493544642703
10.09271523178808,3.467641143155609
10.112582781456952,3.4610876919422826
10.132450331125828,3.4529056896464985
10.152317880794701,3.4431159783585144
10.172185430463577,3.431743580794184
10.192052980132452,3.4188177316699635
10.211920529801324,3.404371912944866
10.2317880794702,3.3884438927214755
10.251655629139073,3.3710757675233216
10.271523178807948,3.3523140075732907
10.29139072847682,3.3322095045813636
10.311258278145695,3.3108176214078227
10.331125827814569,3.2881982427940004
10.350993377483444,3.2644158261439418
10.370860927152318,3.239539451090295
10.390728476821192,3.2136428662827767
10.410596026490065,3.18680453149188
10.43046357615894,3.159107652720275
10.450331125827816,3.1306402075560484
10.470198675496688,3.101494957482919
10.490066225165563,3.0717694432844445
10.509933774834437,3.041565959044384
10.529801324503312,3.0109914995629086
10.549668874172186,2.980157675291819
10.56953642384106,2.9491805881638484
10.589403973509933,2.918180660981742
10.609271523178808,2.88728241238518
10.629139072847682,2.856614168882185
10.649006622516556,2.8263077050844054
10.66887417218543,2.7964978032051917
10.688741721854305,2.7673217231582194
10.70860927152318,2.7389185753365504
10.728476821192054,2.7114285894594636
10.748344370860927,2.6849922748487933
10.7682119205298,2.659749470211696
10.788079470198676,2.635838284511821
