Time (s),Filtered Signal
0.0,0.013955255827959973
0.03337008452774715,-0.10752659626206423
0.0667401690554943,-0.20302091063070293
0.10011025358324147,-0.24829044878385714
0.1334803381109886,-0.2249810155202453
0.16685042263873576,-0.12567921570180915
0.20022050716648293,0.04205903289452384
0.23359059169423008,0.2553947558853944
0.2669606762219772,0.4804708467259337
0.30033076074972437,0.6794337256123391
0.3337008452774715,0.8170018155476176
0.36707092980521866,0.8644717627023178
0.40044101433296586,0.8017876479005768
0.433811098860713,0.6203486728179404
0.46718118338846015,0.32862686142864056
0.5005512679162073,-0.04059681820188826
0.5339213524439544,-0.42633293831612173
0.5672914369717016,-0.745071540381405
0.6006615214994487,-0.9093414441061637
0.6340316060271959,-0.8559325241257529
0.667401690554943,-0.5737488959792564
0.7007717750826902,-0.11820770325301233
0.7341418596104373,0.397492882411248
0.7675119441381845,0.8346343683600083
0.8008820286659317,1.0741144451465083
0.8342521131936789,1.0566923834547801
0.867622197721426,0.8015565709906258
0.9009922822491732,0.3955344566125831
0.9343623667769203,-0.041861375312401014
0.9677324513046675,-0.40213121233590005
1.0011025358324146,-0.6221489327114176
1.0344726203601617,-0.6968174299987242
1.0678427048879089,-0.6682575666670914
1.101212789415656,-0.5996942137797573
1.1345828739434032,-0.5469308009104764
1.1679529584711503,-0.5386079032992215
1.2013230429988975,-0.5704910714287039
1.2346931275266446,-0.6125806053726398
1.2680632120543918,-0.6238380965920446
1.301433296582139,-0.5685369127988956
1.334803381109886,-0.42949679541267916
1.3681734656376332,-0.21512412557353544
1.4015435501653803,0.041460029897538796
1.4349136346931275,0.29141760083393287
1.4682837192208746,0.48526053514120004
1.5016538037486218,0.5892649874230296
1.535023888276369,0.5969731746570289
1.568393972804116,0.5306761428731819
1.6017640573318634,0.43175423752554454
1.6351341418596106,0.34380033406020244
1.6685042263873577,0.2958624069850366
1.7018743109151049,0.29298458295057467
1.735244395442852,0.3175566453156543
1.7686144799705992,0.33981975450829394
1.8019845644983463,0.33198628779616174
1.8353546490260935,0.2796645231108592
1.8687247335538406,0.18651682573327624
1.9020948180815878,0.07154989842917008
1.935464902609335,-0.03884294432636642
1.968834987137082,-0.1208203655793253
2.002205071664829,-0.16172838760672645
2.0355751561925763,-0.16458959160972192
2.0689452407203235,-0.14653279530150998
2.1023153252480706,-0.1311657844569855
2.1356854097758178,-0.1376788949670201
2.169055494303565,-0.17177753100263474
2.202425578831312,-0.22352681263311203
2.235795663359059,-0.2740462876836249
2.2691657478868064,-0.30797322575306796
2.3025358324145535,-0.3245753359057445
2.3359059169423007,-0.3400915355515516
2.369276001470048,-0.3781388473186609
2.402646085997795,-0.45195552388308097
2.436016170525542,-0.5480504596306809
2.4693862550532892,-0.6218379076720754
2.5027563395810364,-0.6107671643516445
2.5361264241087835,-0.46144246850385046
2.5694965086365307,-0.15891577697333706
2.602866593164278,0.25659793497996614
2.636236677692025,0.6958179981227942
2.669606762219772,1.0493510923691092
2.7029768467475193,1.2284448056071164
2.7363469312752664,1.1999188090094526
2.7697170158030135,0.9991260622382686
2.8030871003307607,0.7141622776880945
2.836457184858508,0.4477777904038847
2.869827269386255,0.27425106880922784
2.903197353914002,0.21124339076562954
2.9365674384417493,0.21949161743572715
2.9699375229694964,0.22935387764141144
3.0033076074972436,0.17971313222278346
3.0366776920249907,0.04874087282273171
3.070047776552738,-0.13909037579088876
3.103417861080485,-0.3320598138993035
3.136787945608232,-0.4841432481456677
3.1701580301359793,-0.582093587414028
3.203528114663727,-0.6506095169875504
3.236898199191474,-0.732553275868913
3.270268283719221,-0.8560390753607481
3.3036383682469683,-1.0082495257072848
3.3370084527747155,-1.1322901839371131
3.3703785373024626,-1.1503357449350016
3.4037486218302098,-1.0014263825633276
3.437118706357957,-0.6741472816979397
3.470488790885704,-0.21746193917411155
3.503858875413451,0.2750985287828673
3.5372289599411983,0.6991097637534556
3.5705990444689455,0.9743777451168241
3.6039691289966926,1.066783126523448
3.63733921352444,0.9907352432729224
3.670709298052187,0.7957680429921201
3.704079382579934,0.5462213834350833
3.7374494671076812,0.30255917590069065
3.7708195516354284,0.1088679192460616
3.8041896361631755,-0.012968422702032177
3.8375597206909227,-0.0637308807648709
3.87092980521867,-0.0629839094428141
3.904299889746417,-0.041176995389511487
3.937669974274164,-0.028517609526282656
3.9710400588019112,-0.043154679727253564
4.004410143329658,-0.08294775429929419
4.0377802278574055,-0.12510105962979864
4.071150312385153,-0.1354028799328886
4.1045203969129,-0.08452866592865516
4.137890481440647,0.03510727740309298
4.171260565968394,0.19994682031772312
4.204630650496141,0.3591391843886991
4.238000735023888,0.4520630898103963
4.2713708195516356,0.4333806315814116
4.304740904079383,0.29478289240522587
4.33811098860713,0.07252443780375303
4.371481073134877,-0.16458467475184857
4.404851157662624,-0.34281063482554697
4.438221242190371,-0.41445000472156307
4.471591326718118,-0.3771303860146424
4.504961411245866,-0.2716179245755056
4.538331495773613,-0.15897711339350898
4.57170158030136,-0.0886036652126838
4.605071664829107,-0.0735662338950952
4.638441749356854,-0.0860921083235447
4.671811833884601,-0.0756360461513441
4.7051819184123485,-9.68422325165235e-05
4.738552002940096,0.14639573561510644
4.771922087467843,0.32421893863450024
4.80529217199559,0.46309578665274376
4.838662256523337,0.4940005165646538
4.872032341051084,0.3821435998417489
4.905402425578831,0.1445640473055804
4.9387725101065785,-0.1560278649145698
4.972142594634326,-0.4373791605310412
5.005512679162073,-0.6304462729270255
5.03888276368982,-0.7032518515377628
5.072252848217567,-0.6660948136311959
5.105622932745314,-0.5583707783530226
5.138993017273061,-0.4259661812496207
5.1723631018008085,-0.3013550408327203
5.205733186328556,-0.19528551598636146
5.239103270856303,-0.10177305034481389
5.27247335538405,-0.011083753623221242
5.305843439911797,0.07806620978894709
5.339213524439544,0.15442499494758907
5.372583608967291,0.2003254144051082
5.4059536934950385,0.20395702402175203
5.439323778022786,0.1699974171022279
5.472693862550533,0.12158760621314549
5.50606394707828,0.0915809405347096
5.539434031606027,0.10730312854410663
5.572804116133774,0.1770155345552874
5.606174200661521,0.2855099502941074
5.6395442851892685,0.4012475226368348
5.672914369717016,0.4911505164497481
5.706284454244763,0.5351529396634787
5.73965453877251,0.5330346940799179
5.773024623300257,0.5004982146065816
5.806394707828004,0.45736536242150316
5.839764792355751,0.41494234842741584
5.873134876883499,0.3697654296883454
5.906504961411246,0.30702830793887076
5.939875045938993,0.2112608403830616
5.97324513046674,0.07768051684758216
6.006615214994487,-0.08243176442568079
6.039985299522234,-0.24505562197303357
6.073355384049981,-0.382929191261113
6.106725468577729,-0.4755417960388512
6.140095553105476,-0.5146727621968088
6.173465637633223,-0.5041519861976966
6.20683572216097,-0.4561736193519675
6.240205806688717,-0.387648127066675
6.273575891216464,-0.3183219788215256
6.3069459757442115,-0.2695504717731663
6.340316060271959,-0.26118577172000634
6.373686144799706,-0.30530122962573647
6.407056229327454,-0.3985471098847053
6.440426313855201,-0.5175177232798303
6.473796398382948,-0.6215039251541312
6.507166482910695,-0.6639356582152584
6.540536567438442,-0.6091839215474721
6.5739066519661895,-0.4477819304882933
6.607276736493937,-0.20272945517890656
6.640646821021684,0.07707537451856421
6.674016905549431,0.33445867480584834
6.707386990077178,0.525361953167313
6.740757074604925,0.6343598076514619
6.774127159132672,0.6769733470423175
6.8074972436604195,0.6877196501663557
6.840867328188167,0.7000579129028075
6.874237412715914,0.7286090001195795
6.907607497243661,0.7626552197771621
6.940977581771408,0.7735854626694876
6.974347666299155,0.731313794810835
7.007717750826902,0.6202536781889222
7.0410878353546495,0.4465972584796951
7.074457919882397,0.23432620098153406
7.107828004410144,0.013850026404784811
7.141198088937891,-0.18940760027880002
7.174568173465638,-0.3604244880910159
7.207938257993385,-0.492632660299664
7.241308342521132,-0.5821632269929223
7.27467842704888,-0.6239142954616865
7.308048511576627,-0.6131402745010688
7.341418596104374,-0.5517179731154848
7.374788680632121,-0.45417012556907754
7.408158765159868,-0.34774550931740805
7.441528849687615,-0.2641133977858971
7.4748989342153624,-0.22564968263745905
7.50826901874311,-0.23348948099545627
7.541639103270857,-0.2647123413368341
7.575009187798604,-0.281769904574812
7.608379272326351,-0.25074522242116065
7.641749356854098,-0.15976637456787857
7.675119441381845,-0.027787978589534055
7.7084895259095925,0.10214607578163835
7.74185961043734,0.18366640210151922
7.775229694965087,0.19278719723605414
7.808599779492834,0.1454507398687837
7.841969864020581,0.09600423427596583
7.875339948548328,0.11413477778634723
7.908710033076075,0.24900431348971888
7.9420801176038225,0.4975836782908115
7.97545020213157,0.7943854722439226
8.008820286659317,1.03073626365511
8.042190371187063,1.0973971966740068
8.075560455714811,0.9320937439758353
8.108930540242557,0.5500238770914351
8.142300624770305,0.04280805542820325
8.175670709298052,-0.4540893702153992
8.2090407938258,-0.8111562065436825
8.242410878353546,-0.950533315043823
8.275780962881294,-0.8694084683287546
8.30915104740904,-0.6336840344662169
8.342521131936788,-0.34724856796799897
8.375891216464534,-0.11115620828564818
8.409261300992283,0.010869396514557324
8.442631385520029,0.008638272807845794
8.476001470047777,-0.08027948023361793
8.509371554575523,-0.1934047259625348
8.542741639103271,-0.2725128513776682
8.57611172363102,-0.2869520384024625
8.609481808158765,-0.242239765451263
8.642851892686513,-0.17165530337680257
8.67622197721426,-0.1158552546519537
8.709592061742008,-0.10054737905062448
8.742962146269754,-0.12276216892515975
8.776332230797502,-0.15199536598581734
8.809702315325248,-0.14541551905064812
8.843072399852996,-0.06973617065972113
8.876442484380743,0.08073443148006641
8.90981256890849,0.27859157651837035
8.943182653436237,0.47333601005152537
8.976552737963985,0.6126080127748809
9.009922822491731,0.6648987398741428
9.04329290701948,0.6328451659802142
9.076662991547225,0.55028566888359
9.110033076074973,0.4640192123587992
9.14340316060272,0.4090953117090734
9.176773245130468,0.3903240821418938
9.210143329658214,0.3800417240159926
9.243513414185962,0.33386728922193554
9.276883498713708,0.21644733579949593
9.310253583241456,0.02343653249465331
9.343623667769203,-0.21229589826003922
9.37699375229695,-0.43373414391124343
9.410363836824697,-0.5850544722504506
9.443733921352445,-0.6357926332566576
9.477104005880191,-0.5916501198901486
9.51047409040794,-0.487656651269207
9.543844174935685,-0.36906151062865095
9.577214259463434,-0.27114947262730954
9.61058434399118,-0.20827491425774716
9.643954428518928,-0.17597198535075106
9.677324513046674,-0.1621932495404903
9.710694597574422,-0.15908466146457653
9.744064682102168,-0.1675971442624806
9.777434766629916,-0.19270781989127772
9.810804851157663,-0.23349400585283034
9.84417493568541,-0.2757588326719268
9.877545020213157,-0.2933242164826887
9.910915104740905,-0.25859226516459605
9.944285189268651,-0.15696698981010745
9.9776552737964,0.003147970993643081
10.011025358324146,0.1910892341448799
10.044395442851894,0.36599879168289307
10.07776552737964,0.49451393449049125
10.111135611907388,0.5650113266667321
10.144505696435134,0.5907619642440886
10.177875780962882,0.5999106107403936
10.211245865490628,0.6170658733394287
10.244615950018376,0.6459543938026442
10.277986034546123,0.6625775489677731
10.31135611907387,0.6234506178643685
10.344726203601617,0.48611916837573316
10.378096288129365,0.23289646083941126
10.411466372657111,-0.11325310381493804
10.44483645718486,-0.48862925918321964
10.478206541712606,-0.8058092040774836
10.511576626240354,-0.9820290376611167
10.5449467107681,-0.968696103121379
10.578316795295848,-0.7712160977988959
10.611686879823594,-0.45140860499923374
10.645056964351342,-0.11031834604522056
10.678427048879088,0.14425985080079284
10.711797133406836,0.23532517571252815
10.745167217934583,0.145733890981232
10.77853730246233,-0.07348181068469654
10.811907386990077,-0.3209871374212712
10.845277471517825,-0.48402022611497253
10.878647556045571,-0.4831090961710115
10.91201764057332,-0.3034906125601095
10.945387725101066,0.0009125619533421059
10.978757809628814,0.3327697633167375
11.01212789415656,0.5939073485529112
11.045497978684308,0.7250658555255968
11.078868063212054,0.7246439535124318
11.112238147739802,0.6392199741331432
11.145608232267548,0.5329365430280236
11.178978316795297,0.45287106278905975
11.212348401323043,0.4081721571778433
11.24571848585079,0.3721396462646362
11.279088570378537,0.3037027281821604
11.312458654906285,0.17497679041487638
11.345828739434031,-0.010301282526185989
11.37919882396178,-0.21641250796055195
11.412568908489526,-0.3921174719178295
11.445938993017274,-0.49431607598197613
11.47930907754502,-0.506806498751135
11.512679162072768,-0.4458756387111694
11.546049246600514,-0.3516941323036487
11.579419331128262,-0.27099245930836274
11.612789415656009,-0.23925222746771593
11.646159500183757,-0.2691761838890313
11.679529584711503,-0.348290901311711
11.71289966923925,-0.44472992044289117
11.746269753766997,-0.5181773994616224
11.779639838294745,-0.5326265086993108
11.813009922822491,-0.4679438978998299
11.84638000735024,-0.3273332059152878
11.879750091877986,-0.13787075974043483
11.913120176405734,0.057541092896431736
11.94649026093348,0.2154518543368382
11.979860345461228,0.30906080199837277
12.013230429988974,0.3395494127720555
12.046600514516722,0.3351338516095427
12.079970599044469,0.3368876734660892
12.113340683572217,0.3773703463240433
12.146710768099963,0.4625674740525962
12.180080852627711,0.5666612736634723
12.213450937155457,0.6428522990483796
12.246821021683205,0.6451623384953428
12.280191106210951,0.5504411782364788
12.3135611907387,0.3698166621326412
12.346931275266446,0.14445772623000894
12.380301359794194,-0.07145285607286815
12.41367144432194,-0.23160418712359016
12.447041528849688,-0.3123792957072389
12.480411613377434,-0.3158499839301568
12.513781697905182,-0.26179429076857813
12.547151782432929,-0.17487948337007642
12.580521866960677,-0.07446035465357397
12.613891951488423,0.028421164250446048
12.647262036016171,0.12715128456276625
12.680632120543917,0.21305197316298483
12.714002205071665,0.27152701167108634
12.747372289599411,0.2839367555517202
12.78074237412716,0.23456347036017364
12.814112458654908,0.11889214872738692
12.847482543182654,-0.051494382277503276
12.880852627710402,-0.2504463727327273
12.914222712238148,-0.4449348563055797
12.947592796765896,-0.6054220937630863
12.980962881293642,-0.7140370549420877
13.01433296582139,-0.7668375249729235
13.047703050349137,-0.7695649648166386
13.081073134876885,-0.7297342598474109
13.114443219404631,-0.6498154320258208
13.147813303932379,-0.5256042504596596
13.181183388460125,-0.3509191786655669
13.214553472987873,-0.1260232901133223
13.24792355751562,0.13528232052656458
13.281293642043368,0.40457841311827814
13.314663726571114,0.6452332543762412
13.348033811098862,0.8234452367140283
13.381403895626608,0.9182682952009754
13.414773980154356,0.9255602957542405
13.448144064682102,0.8545718669640878
13.48151414920985,0.7204733233160902
13.514884233737597,0.5384086436720662
13.548254318265345,0.32298519666257813
13.581624402793091,0.09251690802654125
13.614994487320839,-0.12690222621293043
13.648364571848585,-0.30307776360330807
13.681734656376333,-0.40700305315586544
13.71510474090408,-0.4258638548407249
13.748474825431828,-0.37209586460588423
13.781844909959574,-0.2818677190343901
13.815214994487322,-0.2018677536096329
13.848585079015068,-0.16995791712802694
13.881955163542816,-0.19905674654666855
13.915325248070562,-0.2722315784577283
13.94869533259831,-0.3512140534949913
13.982065417126057,-0.39373503997417886
14.015435501653805,-0.3710680697840633
14.048805586181551,-0.278038009231067
14.082175670709299,-0.13251033966558468
14.115545755237045,0.03324741298197905
14.148915839764793,0.18415138641225845
14.18228592429254,0.29236957567687366
14.215656008820288,0.3439436747095012
14.249026093348034,0.3418619830859293
14.282396177875782,0.30546209608396035
14.315766262403528,0.26523898269482976
14.349136346931276,0.25258221047584806
14.382506431459023,0.2865488609896782
14.41587651598677,0.3630439363816199
14.449246600514517,0.452824918581818
14.482616685042265,0.5116140491234473
14.515986769570011,0.49926508580285067
14.54935685409776,0.39910895825895953
14.582726938625505,0.22731555860299396
14.616097023153253,0.026754143787392173
14.649467107681,-0.15200195251300974
14.682837192208748,-0.2729617398687529
14.716207276736494,-0.32910341230831114
14.749577361264242,-0.3421501147342082
14.782947445791988,-0.34883311085833046
14.816317530319736,-0.38140602484245245
14.849687614847483,-0.4522631700364194
14.88305769937523,-0.5494605786919637
14.916427783902977,-0.6439418838708962
14.949797868430725,-0.7036761574207285
14.983167952958471,-0.7073175379832682
15.01653803748622,-0.6511888668436964
15.049908122013965,-0.5473639749159589
15.083278206541713,-0.41523869479846276
15.11664829106946,-0.27193826630179224
15.150018375597208,-0.1267820985355805
15.183388460124954,0.017967593351273157
15.216758544652702,0.16186622812467147
15.250128629180448,0.30094164810227514
15.283498713708196,0.4262412160286334
15.316868798235943,0.5272607096770444
15.35023888276369,0.5976722552050913
15.383608967291437,0.6390527545968221
15.416979051819185,0.6596338943777961
15.450349136346931,0.668568236870491
15.48371922087468,0.6694412900917182
15.517089305402425,0.6574693613476685
15.550459389930174,0.6224271213836075
15.58382947445792,0.5554320603896244
15.617199558985668,0.4549845751867235
15.650569643513414,0.3281082655886815
15.683939728041162,0.18589958551291566
15.717309812568908,0.036955677731443114
15.750679897096656,-0.11601304397840914
15.784049981624403,-0.2731614945127623
15.81742006615215,-0.42971260657754884
15.850790150679897,-0.5693043306387527
15.884160235207645,-0.664823320919465
15.917530319735391,-0.6888064167260742
15.95090040426314,-0.6289998124208678
15.984270488790886,-0.5001605361169892
16.017640573318634,-0.34386409771608656
16.05101065784638,-0.213997650188508
16.084380742374126,-0.1535759549072621
16.117750826901876,-0.17398067881752954
16.151120911429622,-0.2474654945718359
16.18449099595737,-0.31770426074375613
16.217861080485115,-0.32436103320311355
16.251231165012864,-0.2306458603793207
16.28460124954061,-0.04112388807118664
16.317971334068357,0.19855681239683876
16.351341418596103,0.4200762015860877
16.384711503123853,0.5608348730829561
16.4180815876516,0.5897478615169063
16.451451672179346,0.5191101972012772
16.484821756707092,0.39746139395536545
16.51819184123484,0.28680245464366777
16.551561925762588,0.23438576093443214
16.584932010290334,0.2516178482450777
16.61830209481808,0.3094130251866226
16.65167217934583,0.35201986662522655
16.685042263873576,0.32310151932955783
16.718412348401323,0.1923512655030999
16.75178243292907,-0.029282801674868356
16.78515251745682,-0.29244841079869316
16.818522601984565,-0.5287647688870991
16.85189268651231,-0.6778537857807182
16.885262771040058,-0.7101266065053511
16.918632855567807,-0.6358607979072031
16.952002940095554,-0.4975709065965146
16.9853730246233,-0.3500318195181073
17.018743109151046,-0.23729232023899682
17.052113193678796,-0.17664804164794717
17.085483278206542,-0.15586636610122406
17.11885336273429,-0.14382078290700728
17.15222344726204,-0.10883983844306444
17.185593531789785,-0.035938263667347994
17.21896361631753,0.06513379957680658
17.252333700845277,0.16480647991026529
17.285703785373027,0.2293263859183721
17.319073869900773,0.23963938883887026
