Frequency (Hz),Amplitude
0.0,0.9406315222202166
0.01993355481727575,0.9485235422944633
0.0398671096345515,0.9717848879517296
0.059800664451827246,1.0092662652079993
0.079734219269103,1.0593213348203476
0.09966777408637874,1.1200836839099275
0.11960132890365449,1.189694712545817
0.13953488372093023,1.2664461362836796
0.159468438538206,1.348844327859129
0.17940199335548174,1.4356215933426517
0.19933554817275748,1.5257188511428674
0.21926910299003324,1.618256735904065
0.23920265780730898,1.7125047857762965
0.25913621262458475,1.8078532705183137
0.27906976744186046,1.9037892829443075
0.29900332225913623,1.999877251010201
0.318936877076412,2.0957434065958864
0.3388704318936877,2.191063557402674
0.3588039867109635,2.285553515724232
0.37873754152823924,2.3789616209649904
0.39867109634551495,2.47106289422424
0.4186046511627907,2.5616544586257515
0.4385382059800665,2.6505519399424275
0.4584717607973422,2.737586627205839
0.47840531561461797,2.8226032240079237
0.49833887043189373,2.905458060538302
0.5182724252491695,2.9860176664798224
0.5382059800664452,3.064157627799343
0.5581395348837209,3.139761667913773
0.5780730897009968,3.212720907005511
0.5980066445182725,3.28293326341904
0.6179401993355482,3.350302968858726
0.637873754152824,3.414740175103421
0.6578073089700996,3.476160634589743
0.6777408637873754,3.5344854408184547
0.6976744186046512,3.589640817351011
0.717607973421927,3.6415579463708863
0.7375415282392027,3.6901728295255074
0.7574750830564785,3.735426175145483
0.7774086378737541,3.777263307038793
0.7973421926910299,3.815634090939779
0.8172757475083057,3.850492875404497
0.8372093023255814,3.881798444520837
0.8571428571428572,3.909513980272939
0.877076411960133,3.9336070327867443
0.8970099667774087,3.954049497004408
0.9169435215946844,3.970817594604025
0.9368770764119602,3.983891860207981
0.9568106312292359,3.9932571311182183
0.9767441860465116,3.9989025399855915
0.9966777408637875,4.000821509971233
1.0166112956810631,3.999011752093363
1.036544850498339,3.9934752645801446
1.0564784053156147,3.984218334169475
1.0764119601328903,3.971251539416288
1.0963455149501662,3.9545897561885344
1.1162790697674418,3.9342521656599327
1.1362126245847177,3.9102622652436576
1.1561461794019936,3.882647883061693
1.176079734219269,3.8514411967142594
1.196013289036545,3.8166787573087277
1.2159468438538206,3.7784015199350227
1.2358803986710964,3.736654882043904
1.255813953488372,3.6914887315059657
1.275747508305648,3.642957506517941
1.2956810631229239,3.5911202699946925
1.3156146179401993,3.5360408016641554
1.3355481727574752,3.477787711795553
1.3554817275747508,3.4164345813761563
1.3754152823920267,3.352060134655275
1.3953488372093024,3.284748451358638
1.4152823920265782,3.214589227622008
1.435215946843854,3.141678096905617
1.4551495016611296,3.0661170249705325
1.4750830564784054,2.988014796608879
1.495016611295681,2.9074876164666175
1.514950166112957,2.8246598523062056
1.5348837209302328,2.7396649568608638
1.5548172757475083,2.6526466146096506
1.5747508305647842,2.563760173121104
1.5946843853820598,2.473174436085453
1.6146179401993357,2.381073918103779
1.6345514950166113,2.2876616914195256
1.6544850498338872,2.1931629941525794
1.6744186046511629,2.0978298206447183
1.6943521594684385,2.0019467796740043
1.7142857142857144,1.9058385871212442
1.73421926910299,1.809879654879489
1.754152823920266,1.714506338880975
1.7740863787375416,1.6202324914972461
1.7940199335548175,1.5276689695399086
1.8139534883720931,1.4375475570956144
1.8338870431893688,1.350749137477263
1.8538205980066447,1.268334478277596
1.8737541528239203,1.1915730533948325
1.893687707641196,1.121960224051161
1.9136212624584719,1.061205750383432
1.9335548172757475,1.0111691989388472
1.9534883720930232,0.9737172528417726
1.9734219269102993,0.9504958576513864
1.993355481727575,0.9426536021852717
2.0132890365448506,0.9506047400041093
2.0332225913621262,0.9739347606024814
2.0531561461794023,1.011495240460858
2.073089700996678,1.0616410018644902
2.0930232558139537,1.1225066278668134
2.1129568106312293,1.1922340623797525
2.132890365448505,1.269115051585274
2.1528239202657806,1.351655572174903
2.1727574750830567,1.4385872448210604
2.1926910299003324,1.5288501405162849
2.212624584717608,1.6215639789978438
2.2325581395348837,1.715997376847156
2.25249169435216,1.8115397101211086
2.2724252491694354,1.9076772224784995
2.292358803986711,2.0039735429344687
2.312292358803987,2.100054154071516
2.332225913621263,2.195594160180666
2.352159468438538,2.290308710927354
2.3720930232558137,2.3839455184569047
2.39202657807309,2.476279006808509
2.4119601328903655,2.56710572757765
2.431893687707641,2.6562407564717314
2.4518272425249172,2.7435148504549702
2.471760797342193,2.828772196151499
2.4916943521594686,2.911868619492449
2.511627906976744,2.9926701566667537
2.5315614617940203,3.071051909351395
2.551495016611296,3.146897124645401
2.5714285714285716,3.2200964534323027
2.5913621262458477,3.290547351060154
2.611295681063123,3.3581535920228305
2.6312292358803986,3.422824876327239
2.6511627906976742,3.484476509872457
2.6710963455149503,3.543029144773518
2.691029900332226,3.598408568378447
2.7109634551495017,3.650545531937968
2.7308970099667778,3.699375611630929
2.7508305647840534,3.7448390960313214
2.770764119601329,3.7868808952054738
2.7906976744186047,3.8254504675117964
2.810631229235881,3.860501760888352
2.8305647840531565,3.891993165991189
2.850498338870432,3.9198874790187483
2.870431893687708,3.944151872445412
2.8903654485049834,3.9647578722091112
2.910299003322259,3.981681340166948
2.9302325581395348,3.9949024608605233
2.950166112956811,4.004405731827712
2.9700996677740865,4.010179956867608
2.990033222591362,4.012218241815892
3.0099667774086383,4.010517992524459
3.029900332225914,4.005080914866472
3.0498338870431896,3.995913016708909
3.0697674418604657,3.9830246119150834
3.089700996677741,3.9664303265605034
3.1096345514950166,3.9461491076735347
3.129568106312292,3.9222042349488704
3.1495016611295683,3.8946233360334572
3.169435215946844,3.8634384061554385
3.1893687707641196,3.8286858330627433
3.2093023255813957,3.790406428467408
3.2292358803986714,3.7486454674625227
3.249169435215947,3.7034527377030004
3.2691029900332227,3.6548826005320594
3.289036544850499,3.6029940667108002
3.3089700996677744,3.5478508899910715
3.32890365448505,3.489521682489123
3.3488372093023258,3.4280800567088967
3.3687707641196014,3.3636048001737824
3.388704318936877,3.296180090019132
3.4086378737541527,3.2258957566537902
3.428571428571429,3.1528476078249486
3.4485049833887045,3.0771378272559606
3.46843853820598,2.9988754656571897
3.4883720930232562,2.9181770465809027
3.508305647840532,2.8351673156288153
3.5282392026578075,2.749980169360758
3.548172757475083,2.6627598104725942
3.5681063122923593,2.573662189178907
3.588039867109635,2.4828568082637634
3.60797342192691,2.390528992269923
3.6279069767441863,2.2968827514688592
3.647840531561462,2.202144410665277
3.6677740863787376,2.10656722392907
3.6877076411960132,2.010437261388963
3.7076411960132893,1.9140809347499455
3.727574750830565,1.8178746227605487
3.7475083056478407,1.7222569576884144
3.7674418604651168,1.6277444139839634
3.787375415282392,1.5349508424499587
3.807308970099668,1.4446113951922408
3.8272425249169437,1.3576106531117624
3.8471760797342194,1.2750132875354176
3.867109634551495,1.1980926416200746
3.887043189368771,1.128347526993697
3.9069767441860463,1.0674902337686085
3.9269102990033224,1.017381462543054
3.9468438538205985,0.9798874821638401
3.9667774086378738,0.9566527878140795
3.98671096345515,0.948824706132629
4.0066445182724255,0.9568177767919425
4.026578073089701,0.980219861290844
4.046511627906977,1.0178862393456023
4.0664451827242525,1.0681752545529326
4.086378737541528,1.1292235426926975
4.106312292358805,1.199173133365272
4.1262458471760795,1.27631410053038
4.146179401993356,1.3591495361846626
4.166112956810632,1.4464075308573325
4.186046511627907,1.5370244181248478
4.205980066445183,1.6301162548695458
4.225913621262459,1.7249482231664623
4.245847176079734,1.820906559310004
4.26578073089701,1.9174746755607144
4.2857142857142865,2.0142136630417866
4.305647840531561,2.110746731887576
4.325581395348838,2.206746946968363
4.345514950166113,2.3019276195209057
4.365448504983389,2.3960347948738474
4.385382059800665,2.4888413760192183
4.40531561461794,2.5801425171114087
4.425249169435216,2.669752001315062
4.445182724252492,2.757499382321782
4.465116279069767,2.8432277197864435
4.485049833887043,2.9267917782660637
4.50498338870432,3.0080565893571576
4.524916943521594,3.086896299691795
4.544850498338871,3.163193244948475
4.5647840531561465,3.2368372033781587
4.584717607973422,3.3077247925483864
4.604651162790698,3.375758980835129
4.624584717607974,3.4408486912204057
4.644518272425249,3.5029084796176013
4.664451827242526,3.5618582735709308
4.6843853820598005,3.617623160007622
4.704318936877076,3.670133212943579
4.724252491694353,3.719323353797533
4.7441860465116275,3.7651332383599962
4.764119601328904,3.807507165572271
4.78405315614618,3.8463940041608535
4.803986710963455,3.881747133889622
4.823920265780731,3.913524398773881
4.8438538205980075,3.941688070076013
4.863787375415282,3.9662048172927693
4.883720930232559,3.9870456856686336
4.9036544850498345,4.004186079040345
4.92358803986711,4.017605747047483
4.943521594684386,4.027288775940425
4.963455149501661,4.0332235823882066
4.983388704318937,4.035402909840979
5.003322259136213,4.033823827138981
5.023255813953488,4.028487729189071
5.043189368770764,4.019400339651405
5.063122923588041,4.006571715700546
5.083056478405315,3.99001625504795
5.102990033222592,3.9697527055411532
5.122923588039868,3.9458041777942725
5.142857142857143,3.9181981614568686
5.162790697674419,3.886966545901152
5.182724252491695,3.8521456463065507
5.20265780730897,3.813776236351458
5.222591362126246,3.7719035889970045
5.242524916943522,3.7265775271750154
5.262458471760797,3.6778524865871955
5.282392026578074,3.62578759330396
5.3023255813953485,3.5704467594393923
5.322259136212625,3.5118988009046137
5.342192691029901,3.450217582141454
5.362126245847176,3.385482193860139
5.382059800664452,3.317777171210903
5.4019933554817285,3.2471927615926184
5.421926910299003,3.1738252535466493
5.44186046511628,3.0977773810447427
5.4617940199335555,3.0191588211390905
5.48172757475083,2.938086807649511
5.501661129568107,2.8546868896432986
5.5215946843853825,2.769093871353544
5.541528239202658,2.6814529804603238
5.561461794019934,2.591921325092941
5.5813953488372094,2.5006697175092567
5.601328903654485,2.4078849654826975
5.621262458471762,2.313772762649092
5.641196013289036,2.2185613484789655
5.661129568106313,2.122506159484243
5.681063122923589,2.025895758022498
5.700996677740864,1.9290594049538623
5.72093023255814,1.8323767357248584
5.740863787375416,1.7362900970179143
5.760797342192691,1.6413201773272263
5.780730897009967,1.5480855606378048
5.800664451827243,1.4573266248679841
5.820598006644518,1.3699335607442633
5.840531561461795,1.2869767942752364
5.8604651162790695,1.2097351481622354
5.880398671096346,1.139712019221799
5.900332225913622,1.0786226539022425
5.920265780730897,1.0283285109714937
5.940199335548173,0.9906945154452395
5.960132890365449,0.9673629568127681
5.980066445182724,0.9594803493459328
6.0,0.9674639080061888
6.0199335548172765,0.9909079831302703
6.039867109634551,1.0286762052109595
6.059800664451828,1.0791341402025099
6.0797342192691035,1.1404222795656067
6.099667774086379,1.2106824980718094
6.119601328903655,1.2882013388799687
6.139534883720931,1.3714761502286683
6.159468438538206,1.4592281841184906
6.179401993355482,1.550386667399688
6.1993355481727574,1.6440607935852616
6.219269102990033,1.7395093905384347
6.23920265780731,1.8361129531308142
6.259136212624584,1.933349773770224
6.279069767441861,2.0307764049236092
6.299003322259137,2.128012037691122
6.318936877076412,2.2247261705047174
6.338870431893688,2.3206289364074566
6.3588039867109645,2.4154635327771388
6.378737541528239,2.509000294466503
6.398671096345516,2.6010320443974075
6.418604651162791,2.691370435398486
6.438538205980066,2.7798430617537577
6.458471760797343,2.8662911698306477
6.4784053156146175,2.9505678365479104
6.498338870431894,3.0325365146538164
6.51827242524917,3.1120698668537523
6.538205980066445,3.189048828422109
6.558139534883721,3.263361851365994
6.578073089700998,3.334904293487161
6.598006644518272,3.403577923579021
6.617940199335549,3.4692905200769624
6.6378737541528245,3.531955545187301
6.6578073089701,3.5914918801805986
6.677740863787376,3.647823610395613
6.6976744186046515,3.7008798507462557
6.717607973421927,3.7505946042972744
6.737541528239203,3.796906647881055
6.7574750830564785,3.839759439850243
6.777408637873754,3.879101045960803
6.797342192691031,3.9148840801061473
6.8172757475083055,3.947065657212024
6.837209302325582,3.975607356082767
6.857142857142858,4.000475190385648
6.877076411960133,4.021639586287708
6.897009966777409,4.039075365534526
6.9169435215946855,4.052761732992682
6.93687707641196,4.062682267876934
6.956810631229236,4.068824918056862
6.9767441860465125,4.071181996991693
6.996677740863787,4.069750182981888
7.016611295681064,4.064530520556064
7.036544850498339,4.055528423936418
7.056478405315615,4.042753682648486
7.076411960132891,4.0262204694658426
7.096345514950166,4.005947351011307
7.116279069767442,3.981957301476801
7.136212624584719,3.9542777200796677
7.156146179401993,3.922940453048767
7.17607973421927,3.8879818211353054
7.196013289036546,3.849442653878859
7.21594684385382,3.807368332137467
7.235880398671097,3.761808840723227
7.2558139534883725,3.7128188333861427
7.275747508305648,3.6604577128768607
7.295681063122924,3.604789729415826
7.3156146179402,3.545884101632523
7.335548172757475,3.483815164950189
7.355481727574752,3.418662553528096
7.3754152823920265,3.3505114232981374
7.395348837209303,3.2794527254264496
7.415282392026579,3.2055835418033305
7.435215946843854,3.1290074970557544
7.45514950166113,3.049835265274758
7.475083056478406,2.968185194401391
7.495016611295681,2.884184077348465
7.514950166112956,2.7979681068865174
7.5348837209302335,2.7096840616690554
7.554817275747508,2.6194907842782476
7.574750830564784,2.5275610298392506
7.5946843853820605,2.4340837868792686
7.614617940199336,2.339267202337703
7.634551495016611,2.2433422819678164
7.6544850498338874,2.146567588060004
7.674418604651163,2.0492352206053495
7.694352159468439,1.9516784468005215
7.714285714285715,1.8542814350899566
7.73421926910299,1.757491644006131
7.754152823920266,1.6618354865359912
7.774086378737542,1.5679378776452202
7.794019933554818,1.476546052449393
7.813953488372093,1.3885573813500975
7.83388704318937,1.3050494042851197
7.853820598006645,1.2273073670544628
7.8737541528239205,1.1568395475719435
7.893687707641197,1.0953636300916814
7.913621262458472,1.0447405748897847
7.9335548172757475,1.0068325084739285
7.953488372093024,0.9832789462043103
7.9734219269103,0.9752272001401249
7.9933554817275745,0.9831016546401244
8.013289036544851,1.0065099274619733
8.033222591362128,1.0443312775629103
8.053156146179402,1.0949442823591466
8.073089700996679,1.1564963933715373
8.093023255813954,1.2271296289277942
8.11295681063123,1.305125098293364
8.132890365448505,1.3889711336151176
8.152823920265782,1.4773782383912406
8.172757475083056,1.569264498372493
8.192691029900331,1.6637283892667938
8.21262458471761,1.7600188606054523
8.232558139534884,1.8575075247666977
8.252491694352159,1.9556647939578515
8.272425249169435,2.054040272763524
8.292358803986712,2.1522470347250335
8.312292358803987,2.2499491817413024
8.332225913621263,2.3468520673080935
8.352159468438538,2.4426946329929877
8.372093023255815,2.53724340082303
8.392026578073091,2.630287755383287
8.411960132890366,2.721636228293357
8.43189368770764,2.8111135620954357
8.451827242524917,2.8985583814679217
8.471760797342194,2.9838213391854076
8.491694352159469,3.0667636346217106
8.511627906976745,3.1472558258364076
8.53156146179402,3.2251768740450717
8.551495016611296,3.3004133728503717
8.571428571428573,3.3728589250131624
8.591362126245848,3.4424136375360908
8.611295681063122,3.508983711998309
8.6312292358804,3.572481111856384
8.651162790697676,3.632823292143497
8.67109634551495,3.6899329799053753
8.691029900332227,3.7437379959950223
8.710963455149502,3.7941711106517575
8.730897009966778,3.8411699267216504
8.750830564784053,3.884676785518767
8.77076411960133,3.924638691243138
8.790697674418604,3.961007250610788
8.81063122923588,3.993738624951531
8.830564784053157,4.022793492520354
8.850498338870432,4.048137019171947
8.870431893687707,4.069738835882328
8.890365448504983,4.087573021881789
8.91029900332226,4.101618092400568
8.930232558139535,4.111856990232053
8.950166112956811,4.11827708049533
8.970099667774086,4.120870148136541
8.990033222591363,4.119632397850812
9.00996677740864,4.114564456239787
9.029900332225914,4.105671376146613
9.049833887043189,4.0929626432357615
9.069767441860467,4.0764521850126005
9.089700996677742,4.056158382611049
9.109634551495017,4.032104085821748
9.129568106312293,4.0043166319915535
9.14950166112957,3.972827869604897
9.169435215946844,3.937674187562922
9.189368770764121,3.8988965514168825
9.209302325581396,3.856540548096099
9.22923588039867,3.810656441009735
9.249169435215949,3.7612992378110754
9.269102990033224,3.708528773609049
9.289036544850498,3.6524098130204314
9.308970099667773,3.59301217520419
9.328903654485051,3.530410886947088
9.348837209302326,3.464686370024436
9.368770764119601,3.395924670506358
9.388704318936878,3.3242177395003556
9.408637873754152,3.2496637771243946
9.428571428571429,3.1723676544328154
9.448504983388705,3.092441431758643
9.46843853820598,3.0100049967374396
9.488372093023255,2.9251868514685553
9.508305647840533,2.83812508628306
9.528239202657808,2.748968587999603
9.548172757475083,2.657878544115222
9.56810631229236,2.5650303220884836
9.588039867109636,2.4706158259994124
9.60797342192691,2.374846463018048
9.627906976744187,2.277956891205401
9.647840531561462,2.1802097703408405
9.667774086378738,2.081901800660909
9.687707641196015,1.9833714113854524
9.70764119601329,1.8850085491309705
9.727574750830565,1.7872671053323634
9.747508305647841,1.6906805843577417
9.767441860465118,1.5958815893103169
9.787375415282392,1.5036254671165812
9.807308970099669,1.4148177774323556
9.827242524916944,1.3305437396388757
9.84717607973422,1.2520949019711007
9.867109634551497,1.1809833921070927
9.887043189368772,1.1189273257556982
9.906976744186046,1.067784514751813
9.926910299003321,1.0294119644228115
9.9468438538206,1.0054460306837598
9.966777408637874,0.997038066411735
9.986710963455149,1.004627197897041
10.006644518272426,1.0278450910435128
10.026578073089702,1.0655979896951913
10.046511627906977,1.1162866392898367
10.066445182724253,1.1780707803813408
10.086378737541528,1.2490939262528096
10.106312292358805,1.3276299627842374
10.126245847176081,1.4121544235278758
10.146179401993356,1.5013623018243178
10.16611295681063,1.5941555193181238
10.186046511627907,1.6896169817267315
10.205980066445184,1.7869812988098317
10.225913621262459,1.8856072137644981
10.245847176079735,1.9849537530045922
10.26578073089701,2.0845605157378486
10.285714285714286,2.1840317991130727
10.305647840531563,2.2830239950702946
10.325581395348838,2.3812356588303087
10.345514950166113,2.478399706726672
10.36544850498339,2.5742772885993235
10.385382059800666,2.6686529681729403
10.40531561461794,2.76133092239398
10.425249169435217,2.852131934606601
10.445182724252492,2.9408910073030405
10.465116279069768,3.027455459866192
10.485049833887045,3.1116834073497173
10.50498338870432,3.193442539848085
10.524916943521594,3.2726091400148465
10.544850498338871,3.3490672900805385
10.564784053156147,3.422708230307639
10.584717607973422,3.493429838966954
10.604651162790697,3.5611362102119837
10.624584717607974,3.6257373111078293
10.64451827242525,3.687148702872025
10.664451827242525,3.74529131435914
10.684385382059801,3.800091258160179
10.704318936877076,3.8514796815359507
10.724252491694353,3.8993926458718144
10.74418604651163,3.94377102951307
10.764119601328904,3.984560449781357
10.784053156146179,4.021711200731593
