Time (s),Filtered Signal
0.0,-0.026667909267461997
0.03337004405286344,0.12197970725946493
0.06674008810572687,0.16927318096080957
0.10011013215859031,0.05842321041760314
0.13348017621145375,-0.1962168723460566
0.16685022026431717,-0.5104245704344558
0.20022026431718062,-0.7604569463001963
0.23359030837004408,-0.831540427502909
0.2669603524229075,-0.6650364410173293
0.3003303964757709,-0.28405289311325943
0.33370044052863435,0.21406421964447583
0.3670704845814978,0.6950527823950493
0.40044052863436125,1.0377255935601877
0.43381057268722467,1.1740841092710548
0.46718061674008815,1.1030776365753248
0.5005506607929515,0.8756610248073643
0.533920704845815,0.563063231035294
0.5672907488986785,0.22683094044626576
0.6006607929515418,-0.09481642663206344
0.6340308370044053,-0.38138512150248666
0.6674008810572687,-0.6143159449060644
0.7007709251101322,-0.7654434107080275
0.7341409691629956,-0.8000630810262008
0.767511013215859,-0.694258013198415
0.8008810572687225,-0.455623371131441
0.834251101321586,-0.1329106947565472
0.8676211453744493,0.1941856810825098
0.9009911894273128,0.44231238482420554
0.9343612334801763,0.5557858621869155
0.9677312775330397,0.526337125450775
1.001101321585903,0.39206487679015606
1.0344713656387665,0.21762872915688766
1.06784140969163,0.06694949652451292
1.1012114537444935,-0.01812093973930733
1.134581497797357,-0.02498010031579556
1.1679515418502202,0.03598418325780614
1.2013215859030837,0.14335659698904554
1.2346916299559472,0.2733105657474766
1.2680616740088106,0.4004323518160245
1.3014317180616741,0.4934716303402263
1.3348017621145374,0.5135786904829258
1.3681718061674009,0.421687688959759
1.4015418502202643,0.19534006657575953
1.4349118942731278,-0.15260616521050685
1.4682819383259913,-0.5649913822572992
1.5016519823788548,-0.949777284618551
1.535022026431718,-1.2077122180740647
1.5683920704845815,-1.2681110777952977
1.601762114537445,-1.1172335618109703
1.6351321585903085,-0.8060806734132364
1.668502202643172,-0.4333279662780596
1.7018722466960352,-0.10999065088897327
1.7352422907488987,0.0799681245079819
1.7686123348017622,0.10768225319429829
1.8019823788546256,0.005848181617241929
1.8353524229074891,-0.1477544931225518
1.8687224669603526,-0.26223591372287314
1.9020925110132159,-0.26816852652760303
1.9354625550660793,-0.14164229261850755
1.9688325991189428,0.0904883444198922
2.002202643171806,0.36468729237848774
2.0355726872246698,0.6071890677100656
2.068942731277533,0.7616523978138308
2.1023127753303967,0.8073589166390394
2.13568281938326,0.7619143798389622
2.1690528634361232,0.6689250084574369
2.202422907488987,0.5768499441118459
2.23579295154185,0.5180920436549549
2.269162995594714,0.49658866779881294
2.302533039647577,0.48831870395626303
2.3359030837004404,0.45390515481368854
2.369273127753304,0.35785950040773645
2.4026431718061674,0.18659793017166004
2.436013215859031,-0.04209203581295176
2.4693832599118943,-0.2822048609853599
2.5027533039647576,-0.47454474452624024
2.5361233480176213,-0.5681932182912994
2.5694933920704845,-0.54018209251557
2.6028634361233483,-0.40545461730711024
2.6362334801762115,-0.21275155597535117
2.6696035242290748,-0.027612155733289154
2.7029735682819385,0.09100729637649922
2.7363436123348017,0.1112379566668831
2.7697136563876654,0.03777677478124053
2.8030837004405287,-0.09319218321144215
2.8364537444933924,-0.23097349722652288
2.8698237885462556,-0.3315122278680333
2.903193832599119,-0.37336255218723274
2.9365638766519826,-0.36173473492098773
2.969933920704846,-0.3196747137760945
3.0033039647577096,-0.271741218525208
3.036674008810573,-0.22927043845968126
3.070044052863436,-0.18539601708028333
3.1034140969162998,-0.12260745197041091
3.136784140969163,-0.02842152019415636
3.1701541850220267,0.09034561396109339
3.20352422907489,0.20405743733521706
3.2368942731277532,0.2711081809070375
3.270264317180617,0.25846723792961046
3.30363436123348,0.16114995741932422
3.337004405286344,0.009673884047576393
3.370374449339207,-0.13942584522171303
3.4037444933920704,-0.2261257410546904
3.437114537444934,-0.21191342033183255
3.4704845814977974,-0.09568513558905398
3.503854625550661,0.0861745895965884
3.5372246696035243,0.27452638119482564
3.5705947136563876,0.4096024618741269
3.6039647577092513,0.4509652665689511
3.6373348017621145,0.3882339388061854
3.6707048458149782,0.2405928353613974
3.7040748898678415,0.0477595453901101
3.737444933920705,-0.14277833568522816
3.7708149779735685,-0.2880265105051595
3.8041850220264317,-0.3588721451484098
3.8375550660792954,-0.3456786795584298
3.8709251101321587,-0.25959111852194844
3.9042951541850224,-0.12906892673904152
3.9376651982378856,0.00822137498666022
3.971035242290749,0.1165074594469577
4.004405286343612,0.1727178397976017
4.037775330396476,0.17316773471096913
4.0711453744493395,0.13355834684329942
4.104515418502203,0.08234893107932294
4.137885462555066,0.050223029287011695
4.171255506607929,0.05970127656574215
4.2046255506607935,0.11839689764401722
4.237995594713657,0.21748491324714797
4.27136563876652,0.3348224899576036
4.304735682819383,0.44086782068402836
4.3381057268722465,0.505470632873036
4.371475770925111,0.504334353626324
4.404845814977974,0.42464316265245833
4.438215859030837,0.2693682062099726
4.4715859030837,0.0591594975985602
4.504955947136564,-0.16977738591885724
4.538325991189428,-0.372936704466791
4.571696035242291,-0.509205806293784
4.605066079295154,-0.5538090272951126
4.638436123348018,-0.507570428339372
4.671806167400881,-0.3979727231708833
4.705176211453745,-0.27043086170361336
4.738546255506608,-0.17251489974968007
4.7719162995594715,-0.1373280694613561
4.805286343612335,-0.17286450232133121
4.838656387665198,-0.2614265874998441
4.872026431718062,-0.3684874278236134
4.905396475770925,-0.4562886668413177
4.938766519823789,-0.49610000569443896
4.972136563876652,-0.47484603245085055
5.005506607929515,-0.3952740207108892
5.038876651982379,-0.27176753225405725
5.072246696035243,-0.12481879234619041
5.105616740088106,0.02385206380426215
5.138986784140969,0.1551818649147149
5.172356828193832,0.2561475864636915
5.2057268722466965,0.3227048336686663
5.23909691629956,0.3612646645683741
5.272466960352423,0.3871381117394387
5.305837004405286,0.41913488925144027
5.3392070484581495,0.47143167310520917
5.372577092511014,0.5458705140799018
5.405947136563877,0.6286009634370362
5.43931718061674,0.6935705834537521
5.4726872246696034,0.7121997988560893
5.506057268722468,0.6652908452154217
5.539427312775331,0.5517380263433718
5.572797356828194,0.38987155504031923
5.606167400881057,0.21064760976464486
5.639537444933921,0.045636569816612405
5.672907488986785,-0.08495386987791562
5.706277533039648,-0.17910109227354587
5.739647577092511,-0.2518040298947035
5.7730176211453745,-0.32645319815589513
5.806387665198238,-0.42229179706633224
5.839757709251102,-0.5431630073067252
5.873127753303965,-0.672451781550806
5.9064977973568284,-0.7769749767116576
5.939867841409692,-0.8191306105672819
5.973237885462555,-0.7729592908070473
6.006607929515419,-0.6373540658660398
6.039977973568282,-0.439887687095519
6.073348017621146,-0.22819261260703183
6.106718061674009,-0.051545309892872995
6.140088105726872,0.05932864929923128
6.173458149779736,0.10433302983611487
6.2068281938325995,0.1114351513337345
6.240198237885463,0.12037034329013772
6.273568281938326,0.16107803470082674
6.306938325991189,0.23841841237632816
6.3403083700440535,0.33119710517196665
6.373678414096917,0.4053266164717024
6.40704845814978,0.4330376187202229
6.440418502202643,0.40720778962932414
6.4737885462555065,0.34356173793074873
6.507158590308371,0.2709875901616204
6.540528634361234,0.21663900616631376
6.573898678414097,0.19420493637417474
6.60726872246696,0.2005296206247122
6.640638766519824,0.22044293058243894
6.674008810572688,0.23563925393093074
6.707378854625551,0.23254991432873318
6.740748898678414,0.2060069427786654
6.774118942731278,0.15838945799708282
6.807488986784141,0.09616030138418484
6.840859030837005,0.026349961141877223
6.874229074889868,-0.04527607800511297
6.9075991189427315,-0.11414720986544685
6.940969162995595,-0.17595857747324323
6.974339207048458,-0.2262855563119987
7.007709251101322,-0.26152037738480505
7.041079295154185,-0.2807777488634661
7.074449339207049,-0.2875239591872416
7.107819383259912,-0.28962676141873717
7.141189427312775,-0.2973732687577172
7.174559471365639,-0.32020686501233575
7.207929515418503,-0.3636367828352888
7.241299559471366,-0.42745528653744924
7.274669603524229,-0.5053605355393554
7.308039647577092,-0.5852858190171973
7.3414096916299565,-0.649958239549211
7.37477973568282,-0.6782532304479872
7.408149779735683,-0.6486406280054432
7.441519823788546,-0.5453357202674303
7.47488986784141,-0.3656948651067543
7.508259911894274,-0.12527848223805663
7.541629955947137,0.14336812181102337
7.575,0.39988675252966466
7.608370044052863,0.6107431073844123
7.641740088105728,0.7629967109578331
7.675110132158591,0.8697925336191581
7.708480176211454,0.9630947847297465
7.741850220264317,1.0752357177392398
7.775220264317181,1.2171742528987355
7.808590308370045,1.3644869057129225
7.841960352422908,1.4598380203892043
7.875330396475771,1.433420700879692
7.9087004405286345,1.233784794529984
7.942070484581498,0.8551567112172378
7.975440528634362,0.3475562593465938
8.008810572687224,-0.1965857556793896
8.042180616740088,-0.6743120873278796
8.075550660792953,-1.0082736764903328
8.108920704845815,-1.170859339287326
8.142290748898679,-1.1864660506986522
8.175660792951541,-1.113092435351366
8.209030837004406,-1.0138650837032548
8.24240088105727,-0.9321667930282101
8.275770925110132,-0.8800988283944741
8.309140969162996,-0.8422949085979823
8.342511013215859,-0.7901506681961069
8.375881057268723,-0.6984334150581935
8.409251101321587,-0.5573636900424868
8.44262114537445,-0.3768323803830493
8.475991189427313,-0.18307736253702067
8.509361233480176,-0.010344024341691032
8.54273127753304,0.10943671582445032
8.576101321585904,0.15638505823278823
8.609471365638766,0.12982685039580016
8.64284140969163,0.0511745591429699
8.676211453744493,-0.03885701126810417
8.709581497797357,-0.08927374534955025
8.742951541850221,-0.05302199610662269
8.776321585903084,0.0967810025777325
8.809691629955948,0.35365358734194696
8.84306167400881,0.6731322424273551
8.876431718061674,0.9805348961244409
8.909801762114538,1.1909429388636046
8.9431718061674,1.2362437297765736
8.976541850220265,1.0901495255467548
9.009911894273127,0.7813082413519065
9.043281938325991,0.3878998584476643
9.076651982378856,0.013714880741574098
9.110022026431718,-0.24673276590767285
9.143392070484582,-0.34119951804715065
9.176762114537445,-0.277613369242852
9.210132158590309,-0.11911423772864509
9.243502202643173,0.04222291008916472
9.276872246696035,0.12229953944155114
9.3102422907489,0.07724621045275193
9.343612334801762,-0.08200469462265991
9.376982378854626,-0.29774175629115585
9.41035242290749,-0.4910834360052733
9.443722466960352,-0.5932424048264919
9.477092511013216,-0.5695973972453452
9.510462555066079,-0.4284930173286419
9.543832599118943,-0.21403492963358403
9.577202643171807,0.011737235547979551
9.61057268722467,0.18938333659158024
9.643942731277534,0.2784323304440747
9.677312775330396,0.265691676941243
9.71068281938326,0.1646943943312931
9.744052863436124,0.007814777977023428
9.777422907488987,-0.16581009141890807
9.81079295154185,-0.3223938524122936
9.844162995594713,-0.441437033554559
9.877533039647577,-0.5168270770049771
9.910903083700441,-0.5515367986042778
9.944273127753304,-0.5496270588934977
9.977643171806168,-0.5106629836083689
10.01101321585903,-0.4299810567646381
10.044383259911895,-0.3042998388117448
10.077753303964759,-0.13847778691036838
10.111123348017621,0.05166231510153146
10.144493392070485,0.24290945302497735
10.177863436123348,0.4127534925949241
10.211233480176212,0.54700489910246
10.244603524229076,0.6422560751048272
10.277973568281938,0.7019555876192412
10.311343612334802,0.729119513094826
10.344713656387665,0.7208925405882942
10.378083700440529,0.6688842324673487
10.411453744493393,0.5653548150814456
10.444823788546255,0.41145451575930403
10.47819383259912,0.2222958067156356
10.511563876651982,0.02546757118097746
10.544933920704846,-0.1465974053829153
10.57830396475771,-0.26664128647780766
10.611674008810573,-0.3202753557062665
10.645044052863437,-0.30838565282407454
10.678414096916299,-0.24439748342244824
10.711784140969163,-0.149046478094123
10.745154185022027,-0.04578884652548424
10.77852422907489,0.041619484194450745
10.811894273127754,0.09027902287818998
10.845264317180618,0.08039033606509262
10.87863436123348,0.00021612192099649288
10.912004405286345,-0.1471568114336963
10.945374449339207,-0.33880537436953534
10.978744493392071,-0.5329724283004623
11.012114537444935,-0.6782772874291024
11.045484581497798,-0.729342483244122
11.078854625550662,-0.6632420590825192
11.112224669603524,-0.48969659335479776
11.145594713656388,-0.24983958676888773
11.178964757709252,-0.0030698351576826685
11.212334801762115,0.19308323059996077
11.245704845814979,0.30170048332897337
11.279074889867841,0.3159223811125799
11.312444933920705,0.2557059625267785
11.34581497797357,0.1548312143829146
11.379185022026432,0.04581825773154144
11.412555066079296,-0.049293188047841656
11.445925110132158,-0.11876355732041341
11.479295154185023,-0.15443236049634804
11.512665198237887,-0.14553457863620167
11.546035242290749,-0.07928594256091875
11.579405286343613,0.05095604272237348
11.612775330396476,0.2354182328023406
11.64614537444934,0.44359728900147943
11.679515418502204,0.6308463802005674
11.712885462555066,0.7538843470162355
11.74625550660793,0.7872328518157582
11.779625550660793,0.7316161328179458
11.812995594713657,0.6101003211586222
11.846365638766521,0.454989710704012
11.879735682819383,0.29347491494860595
11.913105726872248,0.13975551493166175
11.94647577092511,-0.0035029599712106505
11.979845814977974,-0.13746204221530078
12.013215859030838,-0.25951132346920736
12.0465859030837,-0.36111198078027407
12.079955947136565,-0.43223303585644646
12.113325991189427,-0.46899110970124036
12.146696035242291,-0.4788994384954987
12.180066079295155,-0.479434464994907
12.213436123348018,-0.4896287297161433
12.246806167400882,-0.5188096497348262
12.280176211453744,-0.5588615551907162
12.313546255506608,-0.5850470296451564
12.346916299559473,-0.5660533274149596
12.380286343612335,-0.4789109688848492
12.413656387665199,-0.3215989684675458
12.447026431718061,-0.11707267259675555
12.480396475770926,0.09347684083519335
12.51376651982379,0.26534511868507665
12.547136563876652,0.3667820975609942
12.580506607929516,0.3904069101681305
12.613876651982379,0.3550331767816486
12.647246696035243,0.2973408231453741
12.680616740088107,0.256895841383908
12.71398678414097,0.2605635392816485
12.747356828193833,0.31235674693167853
12.780726872246696,0.3922982558049867
12.81409691629956,0.4641861383153333
12.847466960352424,0.48891426407971267
12.880837004405286,0.43841278678657125
12.91420704845815,0.30556172416034205
12.947577092511013,0.1070924374968203
12.980947136563877,-0.12115889363599616
13.014317180616741,-0.33483570377866934
13.047687224669604,-0.4937474993666424
13.081057268722468,-0.5722604351980458
13.11442731277533,-0.5641145018394454
13.147797356828194,-0.4809638556274117
13.181167400881058,-0.34662653761500906
13.21453744493392,-0.19025143926491125
13.247907488986785,-0.040744321717082185
13.281277533039647,0.07724266541107401
13.314647577092511,0.14688932024781753
13.348017621145376,0.16310762717715654
13.381387665198238,0.13566972290455592
13.414757709251102,0.08883232595641609
13.448127753303964,0.055067082411680415
13.481497797356829,0.06327579626819688
13.514867841409693,0.1256607683110069
13.548237885462555,0.22973240341840304
13.58160792951542,0.3407911752713171
13.614977973568282,0.4155739456747834
13.648348017621146,0.42176799110464175
13.68171806167401,0.3540691225174013
13.715088105726872,0.23800196568745774
13.748458149779736,0.1181896827028497
13.781828193832599,0.03581789778653149
13.815198237885463,0.006554415798918605
13.848568281938327,0.011207163143249287
13.88193832599119,0.005458624398580673
13.915308370044054,-0.05539480386127955
13.948678414096916,-0.18986817726951644
13.98204845814978,-0.3769766347666426
14.015418502202644,-0.5641368717980345
14.048788546255507,-0.6919305672150655
14.08215859030837,-0.7215497186002547
14.115528634361233,-0.6496753245749758
14.148898678414097,-0.5038413506957704
14.182268722466961,-0.32348239813468327
14.215638766519824,-0.13996004495336511
14.249008810572688,0.03209745855657367
14.28237885462555,0.1887528731189168
14.315748898678414,0.3232764901208193
14.349118942731279,0.41758323828875205
14.382488986784141,0.44708015771611914
14.415859030837005,0.39724370060975134
14.449229074889868,0.28075876041627823
14.482599118942732,0.14186573063959093
14.515969162995596,0.04151681187037863
14.549339207048458,0.028870920268575486
14.582709251101322,0.11408242007351689
14.616079295154185,0.25823316704762983
14.649449339207049,0.3877718059582185
14.682819383259913,0.42773181819846606
14.716189427312775,0.33771607753432875
14.74955947136564,0.13281399216502413
14.782929515418502,-0.12095478799759656
14.816299559471366,-0.3345863389811067
14.84966960352423,-0.4343216763967231
14.883039647577093,-0.3927614199367425
14.916409691629957,-0.2393998898125486
14.94977973568282,-0.046754212442077704
14.983149779735683,0.1011270196966015
15.016519823788547,0.14392779485504362
15.04988986784141,0.06924468221910755
15.083259911894274,-0.08416102098646462
15.116629955947138,-0.2450083747141063
15.15,-0.3417300953141103
15.183370044052865,-0.3340296070301591
15.216740088105727,-0.22959528924274689
15.250110132158591,-0.07836837577342881
15.283480176211455,0.05280546809244324
15.316850220264318,0.11286007126775133
15.350220264317182,0.09061906605273327
15.383590308370044,0.018718981355273095
15.416960352422908,-0.04413000893528989
15.450330396475772,-0.043317742750002726
15.483700440528635,0.044039547373972435
15.517070484581499,0.19713683116118813
15.550440528634361,0.3602600721730567
15.583810572687225,0.46756461369001484
15.61718061674009,0.47221843838807176
15.650550660792952,0.3670313640318562
15.683920704845816,0.18797517714424408
15.717290748898678,-0.00048354385543342756
15.750660792951543,-0.13176592794657513
15.784030837004407,-0.16414512499784245
15.817400881057269,-0.09713431386750733
15.850770925110133,0.029278871073814286
15.884140969162996,0.15184450065489383
15.91751101321586,0.2101075930832913
15.950881057268724,0.17018132563669816
15.984251101321586,0.036465211436450734
16.01762114537445,-0.15287133511454956
16.050991189427315,-0.3435544849541286
16.084361233480177,-0.4873229914724148
16.11773127753304,-0.5584035544525127
16.151101321585905,-0.5576464347677549
16.184471365638768,-0.5040805082007509
16.21784140969163,-0.41992551546750884
16.251211453744492,-0.31800823295813746
16.284581497797358,-0.19855899920513162
16.31795154185022,-0.056570375276261055
16.351321585903083,0.10553690183192138
16.38469162995595,0.2686372649266614
16.41806167400881,0.3981033781680493
16.451431718061674,0.45666755879411397
16.48480176211454,0.4230980303899832
16.518171806167402,0.30665411690439176
16.551541850220264,0.1484647323519502
16.584911894273127,0.007227048295246508
16.618281938325993,-0.06516229527735902
16.651651982378855,-0.04660839407567554
16.685022026431717,0.04512568727409527
16.718392070484583,0.16095073864269083
16.751762114537446,0.24401849329166891
16.785132158590308,0.2569680497421579
16.818502202643174,0.1992180256984679
16.851872246696036,0.1053624974742166
16.8852422907489,0.02526121587167657
16.91861233480176,-0.003996589764551472
16.951982378854627,0.020503372468843598
16.98535242290749,0.06440170082325582
17.01872246696035,0.0735462818388987
17.052092511013218,0.0034599304238741467
17.08546255506608,-0.15429914088943172
17.118832599118942,-0.36255097858591384
17.152202643171808,-0.5508046066504937
17.18557268722467,-0.6436640442738045
17.218942731277533,-0.5920614906710644
17.2523127753304,-0.3935692912121573
17.28568281938326,-0.09399343017893395
