Time (s),Filtered Signal
0.0,0.02000657664920904
0.03337004405286344,-0.22911687644823678
0.06674008810572687,-0.5012268764949926
0.10011013215859031,-0.8022277353785053
0.13348017621145375,-1.1106462600440588
0.16685022026431717,-1.3779258402013999
0.20022026431718062,-1.5409319732254312
0.23359030837004408,-1.543473460943032
0.2669603524229075,-1.3595231505872707
0.3003303964757709,-1.0087818670532132
0.33370044052863435,-0.5568449797420864
0.3670704845814978,-0.09777638533825322
0.40044052863436125,0.27547662111625487
0.43381057268722467,0.5012650165811593
0.46718061674008815,0.5673218404476338
0.5005506607929515,0.5090779870420021
0.533920704845815,0.3895082206699307
0.5672907488986785,0.2702245638277239
0.6006607929515418,0.18716926275905474
0.6340308370044053,0.14144629351493967
0.6674008810572687,0.10819158839913592
0.7007709251101322,0.05775832246760592
0.7341409691629956,-0.02207665332860516
0.767511013215859,-0.11430038176513387
0.8008810572687225,-0.17747653849221345
0.834251101321586,-0.16536851410915776
0.8676211453744493,-0.05226844642082602
0.9009911894273128,0.1483347372625269
0.9343612334801763,0.3817815157972427
0.9677312775330397,0.5698797621195658
1.001101321585903,0.6421101025545363
1.0344713656387665,0.5674553112623226
1.06784140969163,0.3723246690048412
1.1012114537444935,0.13489982566086406
1.134581497797357,-0.04409872192730302
1.1679515418502202,-0.08359175565918307
1.2013215859030837,0.04033864910216705
1.2346916299559472,0.2789752051303663
1.2680616740088106,0.5266879906361146
1.3014317180616741,0.6634868606446919
1.3348017621145374,0.6069883453956617
1.3681718061674009,0.3503329531634068
1.4015418502202643,-0.03248818542665545
1.4349118942731278,-0.41784627682444014
1.4682819383259913,-0.6866000573985571
1.5016519823788548,-0.7758657875305629
1.535022026431718,-0.7037635079105968
1.5683920704845815,-0.5553532539219728
1.601762114537445,-0.4367872364998548
1.6351321585903085,-0.4201130006824941
1.668502202643172,-0.5057048400023758
1.7018722466960352,-0.6209340013642782
1.7352422907488987,-0.6564437573302279
1.7686123348017622,-0.5232739573050675
1.8019823788546256,-0.20346396199859973
1.8353524229074891,0.23117353542397479
1.8687224669603526,0.6430838106849278
1.9020925110132159,0.8864159186604531
1.9354625550660793,0.8717590277110974
1.9688325991189428,0.6075470561157316
2.002202643171806,0.19810474302850467
2.0355726872246698,-0.2009661904304268
2.068942731277533,-0.4490017207508406
2.1023127753303967,-0.4773586615836865
2.13568281938326,-0.31212516917546385
2.1690528634361232,-0.05438665307142297
2.202422907488987,0.17020401743914523
2.23579295154185,0.2678624493052172
2.269162995594714,0.21378310730340622
2.302533039647577,0.055459246510339295
2.3359030837004404,-0.11589839269658628
2.369273127753304,-0.2100777015888309
2.4026431718061674,-0.17753921121091956
2.436013215859031,-0.027370451390542054
2.4693832599118943,0.18190902187550223
2.5027533039647576,0.3717951146897499
2.5361233480176213,0.4785732046492776
2.5694933920704845,0.47771054554589465
2.6028634361233483,0.38828878580086584
2.6362334801762115,0.25773350749101703
2.6696035242290748,0.1360182510875059
2.7029735682819385,0.0525394256955337
2.7363436123348017,0.006431379653358018
2.7697136563876654,-0.026228408485523987
2.8030837004405287,-0.07332088862462133
2.8364537444933924,-0.14623132747199474
2.8698237885462556,-0.2288338853703382
2.903193832599119,-0.28190314566234864
2.9365638766519826,-0.26152434307928385
2.969933920704846,-0.1434193835956447
3.0033039647577096,0.05800378912775329
3.036674008810573,0.28545807669760687
3.070044052863436,0.45334713686593436
3.1034140969162998,0.47737728874658825
3.136784140969163,0.3087432670885709
3.1701541850220267,-0.040729271642981214
3.20352422907489,-0.49398038454328846
3.2368942731277532,-0.9289454738697653
3.270264317180617,-1.2179906743536244
3.30363436123348,-1.272263599097017
3.337004405286344,-1.0733761345213078
3.370374449339207,-0.6791647315826324
3.4037444933920704,-0.20101101691332085
3.437114537444934,0.23738452141102967
3.4704845814977974,0.5419714771239583
3.503854625550661,0.6740206252777612
3.5372246696035243,0.6514070563423713
3.5705947136563876,0.5294623270952619
3.6039647577092513,0.373829201864136
3.6373348017621145,0.23848841754477196
3.6707048458149782,0.15586376226613943
3.7040748898678415,0.13749781907186912
3.737444933920705,0.17878716070979386
3.7708149779735685,0.26226952665765707
3.8041850220264317,0.359068174251065
3.8375550660792954,0.43254277595459395
3.8709251101321587,0.4479584536935603
3.9042951541850224,0.38690180107746647
3.9376651982378856,0.25918572625054703
3.971035242290749,0.10327749014800991
4.004405286343612,-0.028683727728381098
4.037775330396476,-0.09587850972763716
4.0711453744493395,-0.09078043246268389
4.104515418502203,-0.04473514971907137
4.137885462555066,-0.011895995035262669
4.171255506607929,-0.03858618011406284
4.2046255506607935,-0.1344066016376753
4.237995594713657,-0.26179547826678695
4.27136563876652,-0.3515359491407842
4.304735682819383,-0.33775418200528695
4.3381057268722465,-0.19492554182532637
4.371475770925111,0.04256550442656332
4.404845814977974,0.28949676287901116
4.438215859030837,0.4444704564037845
4.4715859030837,0.4342630466804927
4.504955947136564,0.24693025513061004
4.538325991189428,-0.062047884580807205
4.571696035242291,-0.39349437894694317
4.605066079295154,-0.6469407660946576
4.638436123348018,-0.7619320802730739
4.671806167400881,-0.7394957102178173
4.705176211453745,-0.6350661829304466
4.738546255506608,-0.528003272183832
4.7719162995594715,-0.483421531679119
4.805286343612335,-0.5241830313916016
4.838656387665198,-0.6241614982151916
4.872026431718062,-0.7226511337863543
4.905396475770925,-0.7504557543293194
4.938766519823789,-0.6552588272339827
4.972136563876652,-0.4174988524730233
5.005506607929515,-0.05445971272750947
5.038876651982379,0.3849258647569548
5.072246696035243,0.8311200575162654
5.105616740088106,1.208952947150666
5.138986784140969,1.455423502589735
5.172356828193832,1.5374625698997677
5.2057268722466965,1.4636918438232045
5.23909691629956,1.2832161303747758
5.272466960352423,1.068269259178906
5.305837004405286,0.8853856918772907
5.3392070484581495,0.7674017440028281
5.372577092511014,0.7006799345842896
5.405947136563877,0.635785994687827
5.43931718061674,0.5176672730122225
5.4726872246696034,0.31971467321084035
5.506057268722468,0.06220291214243408
5.539427312775331,-0.1970399217132735
5.572797356828194,-0.39635154296439784
5.606167400881057,-0.5098011182801898
5.639537444933921,-0.5686117216582612
5.672907488986785,-0.6490688919283514
5.706277533039648,-0.830305126923713
5.739647577092511,-1.1437148453933645
5.7730176211453745,-1.54263480605049
5.806387665198238,-1.911522969150025
5.839757709251102,-2.112885279473029
5.873127753303965,-2.049281036907951
5.9064977973568284,-1.7087480836372018
5.939867841409692,-1.1701896860941927
5.973237885462555,-0.5663053634613827
6.006607929515419,-0.023979339485415994
6.039977973568282,0.3866345626967284
6.073348017621146,0.6689128995331655
6.106718061674009,0.8765032788973081
6.140088105726872,1.0660821439257586
6.173458149779736,1.2544651007401764
6.2068281938325995,1.4044611160121985
6.240198237885463,1.446610015710366
6.273568281938326,1.3235177637759536
6.306938325991189,1.0311962402417425
6.3403083700440535,0.6338450503107076
6.373678414096917,0.24310464375392568
6.40704845814978,-0.028290782394886287
6.440418502202643,-0.11533937473452877
6.4737885462555065,-0.028002585753126287
6.507158590308371,0.1559965766310769
6.540528634361234,0.32842981657194814
6.573898678414097,0.3991884433022438
6.60726872246696,0.3331546893717213
6.640638766519824,0.15929567558089874
6.674008810572688,-0.04960280857951498
6.707378854625551,-0.21401788572029484
6.740748898678414,-0.2823196474192501
6.774118942731278,-0.24727115421228696
6.807488986784141,-0.13993144567865953
6.840859030837005,-0.00865529580068119
6.874229074889868,0.10280496289387006
6.9075991189427315,0.16659778098799521
6.940969162995595,0.16883856615029502
6.974339207048458,0.10092923518966893
7.007709251101322,-0.04577321753815634
7.041079295154185,-0.2755916197222952
7.074449339207049,-0.5762780384349683
7.107819383259912,-0.9076937006779788
7.141189427312775,-1.2015387408538811
7.174559471365639,-1.3769882167678908
7.207929515418503,-1.3682741704955967
7.241299559471366,-1.1527761843453797
7.274669603524229,-0.7661294451813699
7.308039647577092,-0.29555237319038746
7.3414096916299565,0.14795260672796187
7.37477973568282,0.4680493824649633
7.408149779735683,0.616266117983472
7.441519823788546,0.6058281035592747
7.47488986784141,0.5004251827924611
7.508259911894274,0.3834204699221811
7.541629955947137,0.3217481179129187
7.575,0.3408307014850488
7.608370044052863,0.42117880563300497
7.641740088105728,0.5165690262571897
7.675110132158591,0.5831028188185015
7.708480176211454,0.6033762440737025
7.741850220264317,0.5930845852501818
7.775220264317181,0.5870849925467876
7.808590308370045,0.6131857688434148
7.841960352422908,0.668776968960118
7.875330396475771,0.7141670202116278
7.9087004405286345,0.6876930295502974
7.942070484581498,0.5359142522743736
7.975440528634362,0.2437480693419251
8.008810572687224,-0.15113036781805264
8.042180616740088,-0.5675871347048228
8.075550660792953,-0.9102202215305751
8.108920704845815,-1.1051418306289942
8.142290748898679,-1.1265664580632901
8.175660792951541,-1.0035104745422696
8.209030837004406,-0.8052114273434111
8.24240088105727,-0.6125703481223543
8.275770925110132,-0.4874662793044205
8.309140969162996,-0.45122291015483873
8.342511013215859,-0.47905893975863467
8.375881057268723,-0.5112746994851687
8.409251101321587,-0.4764111164967298
8.44262114537445,-0.31822134673274166
8.475991189427313,-0.017710871289176228
8.509361233480176,0.39648842054287214
8.54273127753304,0.8524611156139563
8.576101321585904,1.2529249488826857
8.609471365638766,1.5018378436573279
8.64284140969163,1.5322041323349334
8.676211453744493,1.326716643229024
8.709581497797357,0.9243277922456503
8.742951541850221,0.4098239142085747
8.776321585903084,-0.11082129398521949
8.809691629955948,-0.5411167365091113
8.84306167400881,-0.819921854313205
8.876431718061674,-0.9334914304088958
8.909801762114538,-0.9104522033110576
8.9431718061674,-0.803576107798206
8.976541850220265,-0.6671828849372068
9.009911894273127,-0.5395056817883761
9.043281938325991,-0.435556619225963
9.076651982378856,-0.3504108975249743
9.110022026431718,-0.2685732471063783
9.143392070484582,-0.17412279056366617
9.176762114537445,-0.05824968559405653
9.210132158590309,0.07657016052800905
9.243502202643173,0.21531657084209097
9.276872246696035,0.332308131913001
9.3102422907489,0.3974615940212974
9.343612334801762,0.3874495685220135
9.376982378854626,0.29925172575482906
9.41035242290749,0.16000840137185915
9.443722466960352,0.025980162618201626
9.477092511013216,-0.033158699291688486
9.510462555066079,0.038699491863189564
9.543832599118943,0.2564696651845134
9.577202643171807,0.5789890348201059
9.61057268722467,0.9160452088630124
9.643942731277534,1.1567999920871812
9.677312775330396,1.2088641548696046
9.71068281938326,1.0319839399093564
9.744052863436124,0.6526559496571793
9.777422907488987,0.15452149136992852
9.81079295154185,-0.35039078867311313
9.844162995594713,-0.7574333442769966
9.877533039647577,-0.9987756696217585
9.910903083700441,-1.0574647469615037
9.944273127753304,-0.9640978998408717
9.977643171806168,-0.7804144083754169
10.01101321585903,-0.5773737785612223
10.044383259911895,-0.41509754672705873
10.077753303964759,-0.3295875774214312
10.111123348017621,-0.32806034786128646
10.144493392070485,-0.3922376367036526
10.177863436123348,-0.48738679818391384
10.211233480176212,-0.5741265144839995
10.244603524229076,-0.6197316551831992
10.277973568281938,-0.6058684401686767
10.311343612334802,-0.5306311606262882
10.344713656387665,-0.4046092724671554
10.378083700440529,-0.24309264654886978
10.411453744493393,-0.058354714823465305
10.444823788546255,0.14395112743596425
10.47819383259912,0.36232775508205994
10.511563876651982,0.592399172064824
10.544933920704846,0.8198391533359053
10.57830396475771,1.0185718754906607
10.611674008810573,1.1571780641681508
10.645044052863437,1.2117221581449793
10.678414096916299,1.1785746980275102
10.711784140969163,1.0791872606834798
10.745154185022027,0.9519030308499608
10.77852422907489,0.8328221699804753
10.811894273127754,0.7349033361964239
10.845264317180618,0.6373978199354227
10.87863436123348,0.4937482175384082
10.912004405286345,0.25651262371677097
10.945374449339207,-0.09227003384386553
10.978744493392071,-0.521481304456707
11.012114537444935,-0.9540382066981941
11.045484581497798,-1.2933010881258833
11.078854625550662,-1.4610207721090192
11.112224669603524,-1.4286867168725637
11.145594713656388,-1.227286788241699
11.178964757709252,-0.9314120500423524
11.212334801762115,-0.6263809013561619
11.245704845814979,-0.37487538639730905
11.279074889867841,-0.19859936986181537
11.312444933920705,-0.0816370506470361
11.34581497797357,0.009370944976825897
11.379185022026432,0.10107095221683195
11.412555066079296,0.1984717231762326
11.445925110132158,0.2857602581158391
11.479295154185023,0.3399456427021203
11.512665198237887,0.34770991567259074
11.546035242290749,0.31520111888363006
11.579405286343613,0.26558077503902056
11.612775330396476,0.22652468099617443
11.64614537444934,0.21531835703674643
11.679515418502204,0.2299751081275067
11.712885462555066,0.25100478311512153
11.74625550660793,0.2525302829127269
11.779625550660793,0.21665537241500396
11.812995594713657,0.14365035536908913
11.846365638766521,0.05296587605215984
11.879735682819383,-0.02526577812406349
11.913105726872248,-0.06415131606051441
11.94647577092511,-0.05302336073372511
11.979845814977974,-0.0037060353539291203
12.013215859030838,0.05289352256249732
12.0465859030837,0.07893873119952169
12.079955947136565,0.04603568541231061
12.113325991189427,-0.050828608409442
12.146696035242291,-0.1881905692135174
12.180066079295155,-0.32131903046264393
12.213436123348018,-0.4021440092393842
12.246806167400882,-0.4009144570438042
12.280176211453744,-0.32142141980269284
12.313546255506608,-0.2010696302539813
12.346916299559473,-0.09365471017350242
12.380286343612335,-0.04182632962027198
12.413656387665199,-0.052949120166795836
12.447026431718061,-0.09195819570025787
12.480396475770926,-0.0969813582008095
12.51376651982379,-0.011645793676318905
12.547136563876652,0.181622897641919
12.580506607929516,0.44498597074604723
12.613876651982379,0.6957181770150768
12.647246696035243,0.84104737513802
12.680616740088107,0.821598526994208
12.71398678414097,0.6419959668175715
12.747356828193833,0.37214607849687176
12.780726872246696,0.11664295821792392
12.81409691629956,-0.034012276059984685
12.847466960352424,-0.04650776945040867
12.880837004405286,0.04003270271181031
12.91420704845815,0.13534257015666626
12.947577092511013,0.14576172265875578
12.980947136563877,0.0240991724706867
13.014317180616741,-0.2045099404774434
13.047687224669604,-0.4546381404207536
13.081057268722468,-0.6243565230258702
13.11442731277533,-0.6476812756521857
13.147797356828194,-0.5280345438002418
13.181167400881058,-0.33544789236712036
13.21453744493392,-0.16967112248616398
13.247907488986785,-0.10913148304559467
13.281277533039647,-0.17237323372187396
13.314647577092511,-0.3111481396822427
13.348017621145376,-0.43734054505386116
13.381387665198238,-0.4687042591886747
13.414757709251102,-0.3697617211639947
13.448127753303964,-0.16798251989441643
13.481497797356829,0.061210676537211524
13.514867841409693,0.23138030086206082
13.548237885462555,0.2848024251345299
13.58160792951542,0.21611015984163162
13.614977973568282,0.07034159601969509
13.648348017621146,-0.0812183273831845
13.68171806167401,-0.17417987101168542
13.715088105726872,-0.1773834035417412
13.748458149779736,-0.10152030021824054
13.781828193832599,0.011693982133027643
13.815198237885463,0.1126252201174611
13.848568281938327,0.16719524903405256
13.88193832599119,0.16998735739714071
13.915308370044054,0.1422978960697781
13.948678414096916,0.11809593798326501
13.98204845814978,0.12617874328837708
14.015418502202644,0.17738244885222465
14.048788546255507,0.2618493104357711
14.08215859030837,0.35572858667697926
14.115528634361233,0.4324886118363042
14.148898678414097,0.47305647345669743
14.182268722466961,0.47096231648286563
14.215638766519824,0.4317776827568188
14.249008810572688,0.36856860956373994
14.28237885462555,0.29600616745763225
14.315748898678414,0.22548732206726171
14.349118942731279,0.1628445418170918
14.382488986784141,0.10932594398144448
14.415859030837005,0.0653520661762205
14.449229074889868,0.035014117554775244
14.482599118942732,0.02801404688723411
14.515969162995596,0.056013330549280684
14.549339207048458,0.12298963693966414
14.582709251101322,0.21347572787604754
14.616079295154185,0.2860494749149275
14.649449339207049,0.27931289215858074
14.682819383259913,0.13260026483356996
14.716189427312775,-0.18446845733993966
14.74955947136564,-0.64643713296241
14.782929515418502,-1.1646018420369069
14.816299559471366,-1.6056290460830338
14.84966960352423,-1.832650127639565
14.883039647577093,-1.7541512773169763
14.916409691629957,-1.3608735931190057
14.94977973568282,-0.7346866883418719
14.983149779735683,-0.024557421686951665
15.016519823788547,0.6016251381677843
15.04988986784141,1.0105861829745955
15.083259911894274,1.1418976176701858
15.116629955947138,1.0173474159524791
15.15,0.7206537819221837
15.183370044052865,0.3591271686498594
15.216740088105727,0.025130078199994032
15.250110132158591,-0.22726269923654974
15.283480176211455,-0.3842002449905445
15.316850220264318,-0.45717292898926304
15.350220264317182,-0.4628580935929855
15.383590308370044,-0.40952156866084133
15.416960352422908,-0.2961996321321613
15.450330396475772,-0.1229234241044147
15.483700440528635,0.09592586621934444
15.517070484581499,0.3246584447242701
15.550440528634361,0.5119024495847362
15.583810572687225,0.6084867054140974
15.61718061674009,0.5905257722745472
15.650550660792952,0.47669960185300403
15.683920704845816,0.3295104961919962
15.717290748898678,0.23609264938487592
15.750660792951543,0.2731583534240851
15.784030837004407,0.4693127780282071
15.817400881057269,0.7819886379214023
15.850770925110133,1.1025894755858574
15.884140969162996,1.292246077069049
15.91751101321586,1.2361277113220959
15.950881057268724,0.8935414249660419
15.984251101321586,0.3205002369827271
16.01762114537445,-0.34719468262703274
16.050991189427315,-0.9439296458098436
16.084361233480177,-1.3350350125122523
16.11773127753304,-1.4614325678252251
16.151101321585905,-1.3502443977242928
16.184471365638768,-1.0905160082454473
16.21784140969163,-0.7889131173675452
16.251211453744492,-0.5270041905944028
16.284581497797358,-0.3377413324490225
16.31795154185022,-0.20770839122667561
16.351321585903083,-0.09968731369363992
16.38469162995595,0.01778437919115841
16.41806167400881,0.14851920561679444
16.451431718061674,0.2642842186534859
16.48480176211454,0.3192557242563352
16.518171806167402,0.2760453061706631
16.551541850220264,0.1306468588435606
16.584911894273127,-0.07629759295221133
16.618281938325993,-0.2689111197138133
16.651651982378855,-0.36404813528639085
16.685022026431717,-0.30670690517809424
16.718392070484583,-0.09703719920015125
16.751762114537446,0.20459042646942557
16.785132158590308,0.49874296520540434
16.818502202643174,0.6862033701879605
16.851872246696036,0.7078360923351369
16.8852422907489,0.5663980762805656
16.91861233480176,0.3201167826043267
16.951982378854627,0.05183935390027791
16.98535242290749,-0.17029139976221128
17.01872246696035,-0.320846300352532
17.052092511013218,-0.4204357743617536
17.08546255506608,-0.5140688669343583
17.118832599118942,-0.6370801707814339
17.152202643171808,-0.7872284045443926
17.18557268722467,-0.9180787182057591
17.218942731277533,-0.9577266449910132
17.2523127753304,-0.8439097570169876
17.28568281938326,-0.558027738816439
17.319052863436124,-0.14077537259223
17.352422907488986,0.3190531161344613
