Frequency (Hz),Amplitude
0.0,0.06897613847786532
0.019801980198019802,0.10142109771659122
0.039603960396039604,0.16386020085974076
0.0594059405940594,0.23320499175011736
0.07920792079207921,0.30460061041055686
0.09900990099009901,0.3766836422179498
0.1188118811881188,0.44890889426554526
0.13861386138613863,0.5209930035273375
0.15841584158415842,0.5927563423479829
0.1782178217821782,0.664067041448518
0.19801980198019803,0.7348178523564822
0.21782178217821782,0.8049154367757537
0.2376237623762376,0.8742749660756964
0.25742574257425743,0.942817213642447
0.27722772277227725,1.0104669086061473
0.297029702970297,1.0771517680138127
0.31683168316831684,1.1428019128571223
0.33663366336633666,1.2073495106987144
0.3564356435643564,1.2707285569479814
0.37623762376237624,1.3328747435845183
0.39603960396039606,1.3937253844569404
0.4158415841584158,1.4532193779591174
0.43564356435643564,1.5112971948116767
0.45544554455445546,1.5679008829072831
0.4752475247524752,1.6229740838300022
0.495049504950495,1.6764620573612785
0.5148514851485149,1.7283117114002484
0.5346534653465347,1.7784716354720957
0.5544554455445545,1.8268921365049753
0.5742574257425742,1.8735252759071928
0.594059405940594,1.9183249072224902
0.613861386138614,1.9612467138168943
0.6336633663366337,2.0022482461772797
0.6534653465346534,2.0412889584947433
0.6732673267326733,2.07833024427465
0.6930693069306931,2.1133354707665606
0.7128712871287128,2.146270012046971
0.7326732673267327,2.177101280617506
0.7524752475247525,2.205798757405208
0.7722772277227723,2.232334020069755
0.7920792079207921,2.256680769537713
0.8118811881188118,2.2788148546958693
0.8316831683168316,2.298714295185733
0.8514851485148516,2.3163593022498303
0.8712871287128713,2.331732297587303
0.891089108910891,2.344817930183081
0.9108910891089109,2.35560309107965
0.9306930693069307,2.364076926066184
0.9504950495049505,2.3702308462636856
0.9702970297029703,2.3740585365893425
0.99009900990099,2.375555962087185
1.00990099009901,2.3747213721157907
1.0297029702970297,2.3715553023877507
1.0495049504950495,2.366060574859015
1.0693069306930694,2.3582422954700815
1.0891089108910892,2.348107849744552
1.108910891089109,2.3356668962546916
1.1287128712871286,2.3209313579672917
1.1485148514851484,2.303915411487748
1.1683168316831685,2.284635474224702
1.188118811881188,2.2631101895027106
1.2079207920792079,2.239360409655947
1.227722772277228,2.2134091771425304
1.2475247524752475,2.185281703726062
1.2673267326732673,2.15500534777987
1.2871287128712872,2.1226095897792576
1.3069306930693068,2.0881260060594826
1.3267326732673268,2.0515882409320176
1.3465346534653466,2.0130319772700402
1.3663366336633662,1.9724949056972316
1.3861386138613863,1.9300166925434437
1.405940594059406,1.8856389467684678
1.4257425742574257,1.8394051861042833
1.4455445544554455,1.7913608027310945
1.4653465346534653,1.7415530288885295
1.4851485148514851,1.6900309029399214
1.504950495049505,1.6368452365662263
1.5247524752475248,1.5820485839860938
1.5445544554455446,1.5256952144058933
1.5643564356435644,1.4678410893409948
1.5841584158415842,1.4085438470801797
1.6039603960396038,1.3478627974892448
1.6237623762376237,1.2858589317287386
1.6435643564356437,1.2225949535564902
1.6633663366336633,1.1581353421385288
1.683168316831683,1.0925464614574847
1.7029702970297032,1.0258967398222267
1.7227722772277227,0.9582569570825374
1.7425742574257426,0.8897007015469078
1.7623762376237624,0.8203051023550204
1.782178217821782,0.7501520248408817
1.801980198019802,0.6793300767505561
1.8217821782178218,0.6079381054628444
1.8415841584158414,0.5360916018975966
1.8613861386138615,0.4639351891466764
1.881188118811881,0.3916690268673746
1.900990099009901,0.319610836044993
1.920792079207921,0.24836359387969317
1.9405940594059405,0.17936510814212286
1.9603960396039604,0.11720656672072638
1.98019801980198,0.08038600772686473
2.0,0.10189481358521703
2.01980198019802,0.15966387482992392
2.0396039603960396,0.2274671107774765
2.0594059405940595,0.29838638960151675
2.0792079207920793,0.37045154055888657
2.099009900990099,0.4429001179891912
2.118811881188119,0.515354551391789
2.1386138613861387,0.5875881303595805
2.1584158415841586,0.6594427900488564
2.1782178217821784,0.7307954126605443
2.1980198019801978,0.8015423393960625
2.217821782178218,0.8715916029682191
2.237623762376238,0.9408587590857193
2.257425742574257,1.0092645277947074
2.2772277227722775,1.0767334031051592
2.297029702970297,1.1431928079927893
2.3168316831683167,1.20857257015714
2.336633663366337,1.2728045934820666
2.3564356435643563,1.3358226526938681
2.376237623762376,1.397562267666303
2.3960396039603964,1.4579606303852832
2.4158415841584158,1.5169565673802385
2.4356435643564356,1.5744905263928175
2.455445544554456,1.6305045797814008
2.4752475247524752,1.6849424395457742
2.495049504950495,1.7377494804166256
2.514851485148515,1.788872768494389
2.5346534653465347,1.8382610936282504
2.5544554455445545,1.8858650042130227
2.5742574257425743,1.9316368434231959
2.594059405940594,1.975530786145909
2.6138613861386135,2.017502876049469
2.633663366336634,2.057511062351559
2.6534653465346536,2.0955152359455465
2.673267326732673,2.1314772646138285
2.6930693069306932,2.1653610271103183
2.712871287128713,2.1971324459353303
2.7326732673267324,2.226759518657404
2.7524752475247527,2.2542123476619125
2.7722772277227725,2.27946316822567
2.792079207920792,2.3024863748328794
2.811881188118812,2.323258545660907
2.8316831683168315,2.341758465174952
2.8514851485148514,2.3579671447800443
2.8712871287128716,2.371867841486492
2.891089108910891,2.3834460745520056
2.910891089108911,2.3926896400695004
2.9306930693069306,2.399588623475542
2.9504950495049505,2.404135409959252
2.9702970297029703,2.406324692756416
2.99009900990099,2.406153479318437
3.00990099009901,2.4036210953499944
3.0297029702970297,2.398729186714249
3.0495049504950495,2.3914817192088154
3.0693069306930694,2.3818849762207748
3.089108910891089,2.36994755427409
3.108910891089109,2.3556803564880977
3.128712871287129,2.3390965839721556
3.148514851485148,2.320211725187739
3.1683168316831685,2.2990435433171976
3.1881188118811883,2.275612061686745
3.2079207920792077,2.2499395473014303
3.227722772277228,2.222050492561576
3.2475247524752473,2.1919715952442695
3.267326732673267,2.1597317368506896
3.2871287128712874,2.125361959440807
3.3069306930693068,2.088895441102983
3.3267326732673266,2.0503674702385672
3.346534653465347,2.009815418882334
3.366336633663366,1.9672787153327675
3.386138613861386,1.9227988164336176
3.4059405940594063,1.8764191799373142
3.4257425742574257,1.828185237498054
3.4455445544554455,1.7781443689985845
3.4653465346534653,1.7263458791258355
3.485148514851485,1.6728409773981046
3.504950495049505,1.617682763243777
3.5247524752475248,1.5609262182867967
3.5445544554455446,1.5026282087808531
3.564356435643564,1.4428475022654217
3.5841584158415842,1.3816448041682658
3.603960396039604,1.3190828225311493
3.6237623762376234,1.2552263727442925
3.6435643564356437,1.1901425398977061
3.6633663366336635,1.123900925384279
3.683168316831683,1.0565740189812844
3.702970297029703,0.9882377618717842
3.722772277227723,0.9189724075613406
3.7425742574257423,0.8488638611633555
3.762376237623762,0.7780058129439776
3.7821782178217824,0.7065032427975938
3.801980198019802,0.6344784009890633
3.8217821782178216,0.5620815084061129
3.841584158415842,0.48951104801212686
3.8613861386138613,0.41705512274275763
3.881188118811881,0.3451836983803255
3.9009900990099013,0.2747789117411596
3.9207920792079207,0.20779434610433864
3.9405940594059405,0.14940285062253403
3.96039603960396,0.11415383261603594
3.98019801980198,0.12394503620258827
4.0,0.1712417705893222
4.01980198019802,0.23426123579319053
4.03960396039604,0.30322225495239014
4.0594059405940595,0.3746896953357969
4.079207920792079,0.4472715640948297
4.099009900990099,0.5202938421050488
4.118811881188119,0.5933751076806735
4.138613861386139,0.6662692112441594
4.158415841584159,0.7387991570731602
4.178217821782178,0.8108262961496663
4.198019801980198,0.8822347402845168
4.217821782178218,0.9529229383146035
4.237623762376238,1.0227988734472808
4.257425742574258,1.0917772040794946
4.2772277227722775,1.1597775013644709
4.297029702970297,1.2267231326687784
4.316831683168317,1.2925405395743328
4.336633663366336,1.3571587646206706
4.356435643564357,1.420509139213016
4.376237623762377,1.4825250784574704
4.3960396039603955,1.543141948400733
4.415841584158416,1.6022969831566023
4.435643564356436,1.6599292369031309
4.455445544554455,1.7159795605333052
4.475247524752476,1.7703905958780108
4.4950495049504955,1.8231067825090572
4.514851485148514,1.8740743735467627
4.534653465346535,1.92324145787296
4.554455445544555,1.970557986833458
4.574257425742574,2.0159758039987983
4.594059405940594,2.059448676900731
4.613861386138614,2.1009323299155627
4.633663366336633,2.140384477652247
4.653465346534653,2.177764858342589
4.673267326732674,2.2130352668354245
4.693069306930693,2.246159586876687
4.712871287128713,2.2771038224185185
4.732673267326733,2.3058361277483765
4.752475247524752,2.3323268362666156
4.772277227722772,2.356548487770951
4.792079207920793,2.378475854130097
4.811881188118812,2.3980859632487563
4.8316831683168315,2.4153581212421233
4.851485148514852,2.4302739327519243
4.871287128712871,2.4428173193475637
4.891089108910891,2.452974535966252
4.910891089108912,2.460734185354989
4.930693069306931,2.466087230485483
4.9504950495049505,2.4690270049208243
4.97029702970297,2.469549221120113
4.99009900990099,2.4676519766741296
5.00990099009901,2.463335758472681
5.02970297029703,2.4566034448112717
5.0495049504950495,2.4474603054526556
5.069306930693069,2.4359139996671018
5.089108910891089,2.421974572284242
5.108910891089109,2.4056544477995305
5.128712871287129,2.3869684225898835
5.148514851485149,2.3659336553063395
5.1683168316831685,2.342569655527166
5.188118811881188,2.3168982707731076
5.207920792079208,2.2889436720089678
5.227722772277227,2.258732337781921
5.247524752475248,2.2262930371805174
5.267326732673268,2.191656811838556
5.2871287128712865,2.154856957258969
5.306930693069307,2.115929003797202
5.326732673267327,2.074910697724843
5.346534653465346,2.031841982899258
5.366336633663367,1.986764983700556
5.3861386138613865,1.9397239900746766
5.405940594059405,1.8907654457553218
5.425742574257426,1.839937941049483
5.445544554455446,1.7872922119908414
5.465346534653465,1.732881148236669
5.485148514851486,1.6767598128691097
5.504950495049505,1.6189854783560003
5.524752475247524,1.5596176844687735
5.544554455445545,1.498718326160984
5.564356435643565,1.4363517826115186
5.584158415841584,1.3725851033559169
5.603960396039604,1.307488274508948
5.623762376237624,1.2411345989066096
5.643564356435643,1.1736012408911827
5.663366336633663,1.1049700134425717
5.683168316831684,1.0353285295350965
5.702970297029703,0.9647719139743811
5.7227722772277225,0.8934054011305591
5.742574257425743,0.821348376197766
5.762376237623762,0.7487408516602024
5.782178217821782,0.67575421828403
5.801980198019803,0.6026098489073272
5.821782178217822,0.5296129029584714
5.841584158415841,0.4572173593684083
5.861386138613861,0.3861595646585224
5.881188118811881,0.31775230368131907
5.900990099009901,0.25457037820171985
5.920792079207921,0.20200880892971004
5.9405940594059405,0.17056734020182907
5.96039603960396,0.17244506663606282
5.98019801980198,0.20679868344807148
6.0,0.2610665670757019
6.01980198019802,0.3253249224771865
6.03960396039604,0.39457302905267483
6.0594059405940595,0.46641512467618057
6.079207920792079,0.5396176048291073
6.099009900990099,0.6134809381952224
6.118811881188119,0.6875691102892401
6.138613861386139,0.761585880219287
6.158415841584159,0.8353141008594925
6.178217821782178,0.9085839823803944
6.198019801980198,0.9812555348537665
6.217821782178218,1.053208377534122
6.237623762376237,1.124335577999522
6.257425742574258,1.1945397971037837
6.2772277227722775,1.2637308059929413
6.297029702970296,1.3318238480336035
6.316831683168317,1.3987385369346887
6.336633663366337,1.4643981042920533
6.356435643564356,1.5287288802391965
6.376237623762377,1.5916599328583567
6.396039603960396,1.6531228177070556
6.415841584158415,1.7130514049490733
6.435643564356436,1.7713817619382821
6.455445544554456,1.8280520758923464
6.475247524752475,1.8830026058270035
6.495049504950495,1.9361756560014836
6.514851485148515,1.9875155652512269
6.534653465346534,2.036968708073052
6.554455445544554,2.084483504385065
6.574257425742575,2.1300104356436917
6.594059405940594,2.1735020655536075
6.6138613861386135,2.214913064013197
6.633663366336634,2.2542002332415203
6.653465346534653,2.291322535259767
6.673267326732673,2.3262411200735644
6.693069306930694,2.3589193540343785
6.712871287128713,2.389322847961068
6.732673267326732,2.4174194846824357
6.752475247524753,2.4431794457249776
6.772277227722772,2.4665752369201757
6.792079207920792,2.487581712746563
6.811881188118813,2.5061760992545636
6.8316831683168315,2.522338015449927
6.851485148514851,2.536049493034224
6.871287128712871,2.547294994420994
6.891089108910891,2.556061428962747
6.910891089108911,2.5623381673399344
6.930693069306931,2.5661170540765172
6.9504950495049505,2.567392418160094
6.97029702970297,2.5661610817573064
6.99009900990099,2.5624223670276485
7.00990099009901,2.5561781010519073
7.02970297029703,2.547432618904901
7.0495049504950495,2.536192764916911
7.069306930693069,2.5224678921844323
7.089108910891089,2.5062698604088953
7.108910891089109,2.487613032163142
7.128712871287128,2.4665142677096874
7.148514851485149,2.442992918523676
7.1683168316831685,2.41707081970765
7.188118811881187,2.3887722815272077
7.207920792079208,2.358124080346966
7.227722772277228,2.32515544930919
7.247524752475247,2.2898980691747584
7.267326732673268,2.2523860598436904
7.287128712871287,2.2126559731950564
7.306930693069306,2.170746788042476
7.326732673267327,2.126699908201886
7.346534653465347,2.080559164927392
7.366336633663366,2.032370825309184
7.3861386138613865,1.982183608672194
7.405940594059406,1.9300487136042208
7.425742574257425,1.8760198590333632
7.445544554455446,1.8201533438444206
7.465346534653466,1.7625081309877357
7.485148514851485,1.703145964057627
7.504950495049505,1.642131527150301
7.524752475247524,1.5795326628257491
7.544554455445544,1.5154206687674592
7.564356435643565,1.4498707021455253
7.584158415841584,1.3829623331508563
7.603960396039604,1.314780307946431
7.623762376237624,1.2454156101077105
7.643564356435643,1.1749669547677253
7.663366336633663,1.1035429219368094
7.683168316831684,1.0312650538733186
7.702970297029703,0.9582724404488067
7.7227722772277225,0.8847286604912372
7.742574257425743,0.8108325594764649
7.762376237623762,0.736835468167799
7.782178217821782,0.6630695956306119
7.801980198019803,0.5899964756380484
7.821782178217822,0.5182925620097064
7.841584158415841,0.44900515932238844
7.861386138613862,0.3838403050316603
7.881188118811881,0.3256734106563074
7.900990099009901,0.2792798605620129
7.92079207920792,0.25156792199494854
7.9405940594059405,0.24905709912302285
7.96039603960396,0.2725297113024148
7.980198019801979,0.3162415365935205
8.0,0.37306643477437346
8.01980198019802,0.43780077782595633
8.03960396039604,0.5072638473429372
8.05940594059406,0.5795713338018864
8.07920792079208,0.6535750846415602
8.099009900990099,0.7285400913214126
8.118811881188119,0.8039691140509819
8.138613861386139,0.8795068205762914
8.158415841584159,0.9548858719387794
8.178217821782178,1.029895536806043
8.198019801980198,1.1043627809940966
8.217821782178218,1.1781405019673794
8.237623762376238,1.2510999932385716
8.257425742574258,1.3231259919076994
8.277227722772277,1.3941133493807725
8.297029702970297,1.46396474892362
8.316831683168317,1.5325891144551065
8.336633663366337,1.5999004856149175
8.356435643564357,1.665817213475859
8.376237623762377,1.73026138062206
8.396039603960396,1.7931583806986542
8.415841584158416,1.85443661290855
8.435643564356436,1.9140272604023496
8.455445544554456,1.9718641305718236
8.475247524752476,2.0278835414554406
8.495049504950495,2.082024242765707
8.514851485148515,2.1342273630752397
8.534653465346535,2.184436376856112
8.554455445544555,2.2325970866238816
8.574257425742575,2.2786576165738923
8.594059405940595,2.322568414935221
8.613861386138613,2.3642822628921967
8.633663366336634,2.4037542883929595
8.653465346534654,2.440941983521335
8.673267326732672,2.475805224381586
8.693069306930694,2.5083062926567004
8.712871287128714,2.5384098981658307
8.732673267326732,2.5660832018760007
8.752475247524753,2.5912958389260328
8.772277227722773,2.614019941303449
8.792079207920791,2.6342301598816804
8.811881188118813,2.6519036855801237
8.831683168316832,2.6670202694548943
8.85148514851485,2.679562241566934
8.871287128712872,2.6895145285071
8.891089108910892,2.696864669486973
8.91089108910891,2.70160283093046
8.930693069306932,2.703721819525325
8.950495049504951,2.7032170937169826
8.97029702970297,2.7000867736494776
8.990099009900991,2.6943316495816765
9.00990099009901,2.6859551888305866
9.029702970297029,2.6749635413196833
9.04950495049505,2.6613655438384813
9.06930693069307,2.6451727231517204
9.089108910891088,2.62639929813331
9.10891089108911,2.6050621811432353
9.12871287128713,2.581180978916329
9.148514851485148,2.55477799329272
9.16831683168317,2.5258782221934615
9.188118811881187,2.494509361334441
9.207920792079207,2.4607018072824927
9.227722772277229,2.424488662594739
9.247524752475247,2.385905743953606
9.267326732673267,2.3449915944261677
9.287128712871288,2.3017875012502027
9.306930693069306,2.2563375208996623
9.326732673267326,2.208688513632761
9.346534653465348,2.158890190310716
9.366336633663366,2.1069951750396476
9.386138613861386,2.0530590881961954
9.405940594059407,1.997140655737892
9.425742574257425,1.9393018524983696
9.445544554455445,1.8796080896048728
9.465346534653467,1.8181284594913112
9.485148514851485,1.7549360565942398
9.504950495049505,1.6901083982742702
9.524752475247526,1.6237279796441435
9.544554455445544,1.5558830090883888
9.564356435643564,1.486668390302646
9.584158415841586,1.416187044751811
9.603960396039604,1.3445517104513458
9.623762376237623,1.2718874168324943
9.643564356435645,1.1983349341317753
9.663366336633663,1.1240556508305992
9.683168316831683,1.0492385805401974
9.702970297029704,0.974110602286768
9.722772277227723,0.8989517009603544
9.742574257425742,0.8241180753158364
9.762376237623764,0.7500778039547596
9.782178217821782,0.6774666999953255
9.801980198019802,0.6071763361013769
9.821782178217823,0.5404910457392328
9.841584158415841,0.47928951256439445
9.861386138613861,0.4262945639656982
9.881188118811881,0.3852283975475015
9.900990099009901,0.3604546640451153
9.92079207920792,0.3555793976062444
9.94059405940594,0.37148295686448085
9.96039603960396,0.4057444371593402
9.98019801980198,0.4541771162191346
10.0,0.5126779883447414
10.01980198019802,0.5780567418190231
10.03960396039604,0.6480637813572804
10.05940594059406,0.721158491670814
10.07920792079208,0.7962797157438314
10.099009900990099,0.8726796633984084
10.118811881188119,0.9498149800390451
10.138613861386139,1.02727738376936
10.158415841584159,1.1047495518980937
10.178217821782178,1.1819767492058277
10.198019801980198,1.258748277481937
10.217821782178218,1.3348851229926666
10.237623762376238,1.410231578988371
10.257425742574258,1.4846494637771632
10.277227722772277,1.5580140648558907
10.297029702970297,1.6302112515089797
10.316831683168317,1.7011353919655479
10.336633663366337,1.7706878334681946
10.356435643564357,1.838775782099516
10.376237623762377,1.9053114704493745
10.396039603960396,1.9702115351939566
10.415841584158416,2.033396549552452
10.435643564356436,2.094790671236297
10.455445544554454,2.154321377351602
10.475247524752476,2.2119192653299207
10.495049504950495,2.26751790437585
10.514851485148514,2.321053725811794
10.534653465346535,2.3724659435307296
10.554455445544555,2.421696497846777
10.574257425742573,2.4686900175755477
10.594059405940595,2.5133937963316026
10.613861386138614,2.555757779903072
10.633663366336632,2.595734562228609
10.653465346534654,2.6332793880131207
10.673267326732674,2.668350160414795
10.693069306930692,2.700907452545323
