Frequency (Hz),Amplitude
0.0,0.9229711252250754
0.019867549668874173,0.9236721763964796
0.039735099337748346,0.9257693901645998
0.059602649006622516,0.9292450919625854
0.07947019867549669,0.9340702977529571
0.09933774834437085,0.9402053950054342
0.11920529801324503,0.9476010405333386
0.13907284768211922,0.9561992266540538
0.15894039735099338,0.9659344619950355
0.17880794701986755,0.9767350127513068
0.1986754966887417,0.9885241537444884
0.2185430463576159,1.001221385271632
0.23841059602649006,1.0147435803124083
0.2582781456953642,1.0290060360495654
0.27814569536423844,1.0439234128768613
0.2980132450331126,1.0594105524013815
0.31788079470198677,1.075383172941198
0.33774834437086093,1.0917584464804877
0.3576158940397351,1.1084554649691103
0.3774834437086093,1.1253956063831576
0.3973509933774834,1.1425028123122303
0.4172185430463576,1.1597037892564972
0.4370860927152318,1.1769281455460237
0.45695364238410596,1.1941084750545405
0.4768211920529801,1.2111803978521176
0.49668874172185434,1.2280825667691098
0.5165562913907285,1.2447566476325402
0.5364238410596026,1.2611472797590109
0.5562913907284769,1.2772020221926659
0.5761589403973509,1.292871290188113
0.5960264900662252,1.3081082855693975
0.6158940397350993,1.3228689238473512
0.6357615894039735,1.3371117603441875
0.6556291390728477,1.3507979170463238
0.6754966887417219,1.3638910114728882
0.695364238410596,1.3763570884960898
0.7152317880794702,1.3881645557687776
0.7350993377483444,1.399284123193529
0.7549668874172186,1.4096887466957218
0.7748344370860927,1.419353576432706
0.7947019867549668,1.428255909473883
0.8145695364238411,1.4363751469163053
0.8344370860927152,1.4436927553522867
0.8543046357615894,1.4501922325741927
0.8741721854304636,1.455859077384349
0.8940397350993378,1.4606807633714223
0.9139072847682119,1.4646467165162171
0.9337748344370861,1.467748296498161
0.9536423841059603,1.4699787815866543
0.9735099337748344,1.471333357018491
0.9933774834437087,1.4718091067817791
1.0132450331125828,1.4714050087485027
1.033112582781457,1.4701219331203534
1.0529801324503312,1.4679626441762081
1.0728476821192052,1.4649318053330764
1.0927152317880795,1.461035987556123
1.1125827814569538,1.456283681175953
1.1324503311258278,1.4506853111930063
1.1523178807947019,1.4442532561685746
1.1721854304635762,1.4370018708187593
1.1920529801324504,1.4289475124410969
1.2119205298013245,1.420108571312175
1.2317880794701985,1.410505505196176
1.2516556291390728,1.400160878098811
1.271523178807947,1.3890994033834207
1.2913907284768211,1.377347991336259
1.3112582781456954,1.3649358012200454
1.3311258278145695,1.351894297785651
1.3509933774834437,1.338257312115738
1.370860927152318,1.3240611065448085
1.390728476821192,1.3093444432298442
1.410596026490066,1.2941486557263704
1.4304635761589404,1.2785177226456175
1.4503311258278146,1.2624983421195861
1.4701986754966887,1.2461400053690868
1.4900662251655628,1.2294950671447555
1.5099337748344372,1.212618810179382
1.5298013245033113,1.1955695000438
1.5496688741721854,1.178408425930768
1.5695364238410596,1.1611999219040525
1.5894039735099337,1.1440113620532717
1.609271523178808,1.1269131218157293
1.6291390728476822,1.1099784965097124
1.6490066225165563,1.0932835669425585
1.6688741721854303,1.0769070009151698
1.6887417218543048,1.060929778684842
1.7086092715231789,1.0454348301514638
1.728476821192053,1.0305065719166258
1.7483443708609272,1.0162303336750762
1.7682119205298013,1.0026916658832383
1.7880794701986755,0.989975524529191
1.8079470198675496,0.9781653342466702
1.8278145695364238,0.9673419379783877
1.847682119205298,0.9575824497122883
1.8675496688741722,0.948959036047205
1.8874172185430464,0.9415376617781684
1.9072847682119205,0.9353768433583749
1.9271523178807946,0.9305264608566318
1.9470198675496688,0.9270266827272832
1.9668874172185429,0.9249070573618872
1.9867549668874174,0.9241858204097383
2.0066225165562916,0.9248694572204892
2.0264900662251657,0.9269525461229953
2.0463576158940397,0.9304178918802878
2.066225165562914,0.9352369412724855
2.086092715231788,0.9413704562494813
2.1059602649006623,0.9487694062068861
2.1258278145695364,0.9573760309823023
2.1456953642384105,0.9671250208379752
2.165562913907285,0.9779447590202912
2.185430463576159,0.9897585759131455
2.205298013245033,1.002485970371572
2.2251655629139075,1.0160437623808238
2.2450331125827816,1.0303471505907718
2.2649006622516556,1.0453106575425661
2.2847682119205297,1.0608489538006736
2.3046357615894038,1.076877559269425
2.324503311258278,1.0933134255024
2.3443708609271523,1.1100754068001175
2.364238410596027,1.1270846304715907
2.384105960264901,1.1442647780241386
2.403973509933775,1.161542289491386
2.423841059602649,1.1788465028574036
2.443708609271523,1.1961097398050047
2.463576158940397,1.2132673479931133
2.4834437086092715,1.2302577088957167
2.5033112582781456,1.2470222190206892
2.52317880794702,1.2635052511449931
2.543046357615894,1.2796541011010614
2.562913907284768,1.295418924654757
2.5827814569536423,1.3107526681402157
2.6026490066225163,1.3256109957627529
2.622516556291391,1.3399522158423574
2.642384105960265,1.3537372077380567
2.662251655629139,1.366929350756119
2.6821192052980134,1.3794944559903757
2.7019867549668874,1.3914007017597398
2.7218543046357615,1.402618573084341
2.741721854304636,1.4131208054685043
2.76158940397351,1.4228823331265479
2.781456953642384,1.4318802416892484
2.801324503311258,1.4400937253575978
2.821192052980132,1.4475040484216322
2.8410596026490067,1.4540945110302763
2.8609271523178808,1.459850419080655
2.8807947019867552,1.4647590580882204
2.9006622516556293,1.4688096709006286
2.9205298013245033,1.4719934391265146
2.9403973509933774,1.4743034681630443
2.9602649006622515,1.475734775723193
2.9801324503311255,1.4762842837831158
3.0,1.4759508138914623
3.0198675496688745,1.474735085805441
3.0397350993377485,1.472639719441924
3.0596026490066226,1.4696692401559697
3.0794701986754967,1.4658300873826207
3.0993377483443707,1.4611306267011084
3.119205298013245,1.455581165402208
3.1390728476821192,1.4491939716595046
3.1589403973509933,1.441983297422685
3.1788079470198674,1.4339654051645896
3.198675496688742,1.4251585986226798
3.218543046357616,1.4155832576782008
3.23841059602649,1.4052618775106245
3.2582781456953644,1.3942191121488583
3.2781456953642385,1.382481822510834
3.2980132450331126,1.370079128976466
3.3178807947019866,1.3570424684705154
3.3377483443708607,1.343405655936744
3.3576158940397347,1.329204949956513
3.3774834437086096,1.3144791220958585
3.3973509933774837,1.2992695293465035
3.4172185430463577,1.283620188748764
3.437086092715232,1.2675778529355888
3.456953642384106,1.2511920849066966
3.47682119205298,1.2345153298162739
3.4966887417218544,1.2176029809261797
3.5165562913907285,1.2005134361285115
3.5364238410596025,1.1833081405715418
3.556291390728477,1.1660516099305003
3.576158940397351,1.148811427761469
3.596026490066225,1.1316582091867917
3.615894039735099,1.1146655219298958
3.6357615894039736,1.0979097545174377
3.6556291390728477,1.0814699204014342
3.6754966887417218,1.0654273859649859
3.695364238410596,1.0498655100445309
3.7152317880794703,1.0348691829471095
3.7350993377483444,1.020524254211912
3.754966887417219,1.006916840812107
3.774834437086093,0.9941325113425766
3.794701986754967,0.9822553471410184
3.814569536423841,0.9713668882595586
3.834437086092715,0.9615449805590173
3.854304635761589,0.9528625495061092
3.8741721854304636,0.945386335802943
3.8940397350993377,0.9391756367985344
3.9139072847682117,0.9342811045768415
3.9337748344370858,0.9307436555066755
3.9536423841059607,0.9285935458716666
3.9735099337748347,0.9278496633552827
3.993377483443709,0.9285190745952798
4.013245033112583,0.9305968553713176
4.033112582781457,0.9340662135144043
4.052980132450331,0.9388988970565314
4.072847682119205,0.9450558633893337
4.0927152317880795,0.9524881710465078
4.112582781456953,0.9611380455119851
4.132450331125828,0.9709400649088974
4.152317880794702,0.9818224105942461
4.172185430463576,0.9937081310282599
4.19205298013245,1.0065163738435292
4.211920529801325,1.0201635496426993
4.231788079470199,1.034564400545033
4.251655629139073,1.0496329558794144
4.271523178807947,1.065283365934986
4.291390728476821,1.081430611858601
4.311258278145695,1.0979910954145244
4.33112582781457,1.114883116388095
4.3509933774834435,1.1320272480532365
4.370860927152318,1.1493466225529456
4.390728476821192,1.166767138510854
4.410596026490066,1.18421760295084
4.43046357615894,1.2016298188731571
4.450331125827815,1.2189386288067394
4.470198675496689,1.2360819234754148
4.490066225165563,1.2530006234898936
4.509933774834438,1.2696386407825884
4.529801324503311,1.2859428253884995
4.549668874172186,1.3018629021690082
4.569536423841059,1.317351401190254
4.589403973509934,1.3323635847038042
4.6092715231788075,1.3468573730314835
4.629139072847682,1.3607932711167603
4.649006622516556,1.374134297062742
4.66887417218543,1.386845913617567
4.688741721854305,1.3988959632810647
4.708609271523179,1.4102546074804494
4.728476821192054,1.4208942700870162
4.748344370860927,1.4307895854123445
4.768211920529802,1.4399173507226994
4.788079470198675,1.4482564832384803
4.80794701986755,1.4557879815360204
4.827814569536423,1.4624948912366558
4.847682119205298,1.4683622748503897
4.867549668874172,1.4733771856341347
4.887417218543046,1.477528645326121
4.9072847682119205,1.480807625626297
4.927152317880794,1.4832070333055427
4.947019867549669,1.4847216988434258
4.966887417218543,1.4853483685143778
4.986754966887418,1.485085699863283
5.006622516556291,1.4839342605353734
5.026490066225166,1.4818965304485492
5.04635761589404,1.4789769073210555
5.066225165562914,1.4751817155911462
5.086092715231788,1.4705192187891065
5.105960264900662,1.4649996354439863
5.125827814569536,1.4586351586281112
5.14569536423841,1.4514399792599932
5.1655629139072845,1.4434303133008608
5.185430463576159,1.4346244329891897
5.205298013245033,1.425042702261312
5.225165562913908,1.4147076165009371
5.245033112582782,1.4036438467452543
5.264900662251656,1.3918782884462286
5.28476821192053,1.379440114840179
5.304635761589404,1.3663608349107474
5.324503311258278,1.3526743558366994
5.344370860927152,1.3384170496882015
5.364238410596027,1.3236278239670474
5.3841059602649,1.3083481953685032
5.403973509933775,1.292622365864773
5.4238410596026485,1.2764972998616024
5.443708609271523,1.2600228007481151
5.463576158940397,1.2432515846325665
5.483443708609272,1.2262393484222778
5.503311258278146,1.209044828652555
5.52317880794702,1.19172984659237
5.543046357615895,1.1743593341518954
5.562913907284768,1.1570013339997403
5.582781456953643,1.1397269660895242
5.602649006622516,1.1226103515416754
5.622516556291391,1.1057284835973475
5.642384105960264,1.0891610342615383
5.662251655629139,1.072990084423611
5.682119205298013,1.0572997648686226
5.701986754966887,1.0421757958941917
5.7218543046357615,1.0277049144755577
5.741721854304636,1.0139741803360038
5.7615894039735105,1.0010701561130924
5.781456953642384,0.9890779622237058
5.801324503311259,0.9780802140466246
5.821192052980132,0.9681558574877867
5.841059602649007,0.9593789284419173
5.860927152317881,0.9518172714027584
5.880794701986755,0.9455312615236042
5.900662251655629,0.9405725816228356
5.920529801324503,0.9369831097615289
5.940397350993377,0.9347939730503929
5.960264900662251,0.9340248186210137
5.980132450331126,0.9346833431495285
6.0,0.9367651085645129
6.0198675496688745,0.9402536548722215
6.039735099337749,0.9451209031471295
6.059602649006623,0.9513278246169561
6.079470198675497,0.9588253372443631
6.099337748344371,0.9675553806631222
6.119205298013245,0.9774521145276895
6.139072847682119,0.9884431843533639
6.158940397350993,1.0004510022212272
6.178807947019867,1.0133939963240008
6.198675496688741,1.0271877920497177
6.218543046357616,1.0417462969526445
6.23841059602649,1.0569826715183643
6.258278145695365,1.072810176319228
6.2781456953642385,1.0891428934920324
6.298013245033113,1.1058963262252228
6.317880794701987,1.122987884106744
6.337748344370861,1.1403372648899608
6.357615894039735,1.1578667447042692
6.377483443708609,1.1755013892255701
6.397350993377484,1.1931691980827586
6.417218543046357,1.2108011940392251
6.437086092715232,1.2283314674431738
6.456953642384105,1.2456971852388499
6.47682119205298,1.2628385725832219
6.496688741721854,1.2796988738969008
6.516556291390729,1.296224299044398
6.5364238410596025,1.312363959314915
6.556291390728477,1.328069796973748
6.5761589403973515,1.3432965113780448
6.596026490066225,1.35800148399296
6.6158940397351,1.372144704096627
6.635761589403973,1.3856886965121527
6.655629139072848,1.3985984523401926
6.675496688741721,1.4108413633742574
6.695364238410596,1.4223871606511924
6.715231788079469,1.4332078574110927
6.735099337748344,1.4432776966054166
6.754966887417219,1.4525731029909574
6.774834437086093,1.4610726397747242
6.794701986754967,1.4687569697242249
6.814569536423841,1.475608820625538
6.8344370860927155,1.4816129549533568
6.854304635761589,1.4867561436101155
6.874172185430464,1.4910271435930949
6.894039735099337,1.4944166794566884
6.913907284768212,1.4969174284505617
6.933774834437086,1.4985240092316334
6.95364238410596,1.4992329740681458
6.973509933774834,1.4990428044761102
6.993377483443709,1.4979539102523436
7.013245033112583,1.4959686318923244
7.033112582781457,1.493091246406397
7.052980132450331,1.4893279765720666
7.072847682119205,1.48468700368453
7.0927152317880795,1.4791784838903552
7.112582781456954,1.472814568210304
7.132450331125828,1.465609426376046
7.152317880794702,1.4575792746204796
7.172185430463576,1.4487424075717865
7.19205298013245,1.4391192344055914
7.211920529801324,1.4287323194056643
7.231788079470198,1.417606427069141
7.251655629139073,1.4057685718645925
7.271523178807947,1.3932480727061978
7.291390728476822,1.3800766121411558
7.311258278145695,1.366288300153924
7.33112582781457,1.3519197423644356
7.3509933774834435,1.3370101122295512
7.370860927152318,1.3216012266392487
7.390728476821192,1.305737624021282
7.410596026490066,1.2894666437177957
7.430463576158941,1.2728385049638054
7.450331125827814,1.2559063832659876
7.470198675496689,1.2387264813393732
7.490066225165562,1.2213580909977637
7.509933774834438,1.2038636415040644
7.52980132450331,1.1863087288678031
7.549668874172186,1.1687621194383329
7.569536423841059,1.1512957199067466
7.589403973509934,1.133984504541761
7.6092715231788075,1.1169063892151008
7.629139072847682,1.1001420406246962
7.649006622516557,1.0837746082421689
7.66887417218543,1.0678893660806372
7.6887417218543055,1.0525732516255941
7.708609271523178,1.0379142904534189
7.728476821192054,1.024000897446152
7.748344370860927,1.0109210493424166
7.768211920529802,0.998761328813827
7.788079470198675,0.9876058473610659
7.80794701986755,0.9775350629198568
7.827814569536423,0.9686245177308722
7.847682119205298,0.9609435320401761
7.8675496688741715,0.9545538985632643
7.887417218543046,0.9495086301687559
7.907284768211921,0.945850817671239
7.927152317880795,0.9436126548801227
7.9470198675496695,0.9428146834351653
7.966887417218543,0.9434653003674444
7.986754966887418,0.9455605573574632
8.006622516556291,0.9490842636038277
8.026490066225167,0.9540083858609903
8.046357615894038,0.9602937215663575
8.066225165562914,0.9678908059473743
8.086092715231787,0.9767410030318295
8.105960264900663,0.9867777243858938
8.125827814569536,0.9979277182698126
8.14569536423841,1.0101123751880352
8.165562913907285,1.023249002524226
8.185430463576159,1.0372520298714554
8.205298013245034,1.052034116567642
8.225165562913906,1.067507142763901
8.245033112582782,1.0835830742882722
8.264900662251655,1.1001746991131007
8.28476821192053,1.1171962391568342
8.304635761589404,1.1345638454358826
8.324503311258278,1.1521959873661771
8.344370860927151,1.1700137485257183
8.364238410596027,1.1879410416913023
8.3841059602649,1.2059047557168572
8.403973509933774,1.2238348460629735
8.42384105960265,1.241664379713662
8.443708609271523,1.2593295439826233
8.463576158940398,1.2767696274311218
8.483443708609272,1.2939269798732465
8.503311258278146,1.3107469572821568
8.52317880794702,1.327177856362716
8.543046357615895,1.3431708426334634
8.562913907284768,1.3586798750668587
8.582781456953642,1.3736616296648665
8.602649006622515,1.388075423787262
8.62251655629139,1.401883142590824
8.642384105960264,1.4150491685658377
8.66225165562914,1.4275403148591446
8.682119205298013,1.4393257628393477
8.701986754966887,1.4503770041786042
8.721854304635762,1.4606677875876708
8.741721854304636,1.4701740702384731
8.76158940397351,1.4788739738348098
8.781456953642383,1.4867477452408555
8.801324503311259,1.4937777215448842
8.821192052980132,1.499948299417226
8.841059602649008,1.5052459086150671
8.86092715231788,1.5096589894883778
8.880794701986755,1.5131779743504445
8.90066225165563,1.5157952725901038
8.920529801324504,1.5175052594211167
8.940397350993377,1.5183042681845085
8.960264900662251,1.5181905861429703
8.980132450331126,1.5171644537304347
9.0,1.5152280672454046
9.019867549668875,1.5123855850019385
9.039735099337747,1.5086431369779072
9.059602649006623,1.504008838024897
9.079470198675496,1.4984928047280164
9.099337748344372,1.4921071760259668
9.119205298013245,1.484866137721379
9.139072847682119,1.476785951027399
9.158940397350994,1.4678849853083324
9.178807947019868,1.458183755177297
9.198675496688743,1.4477049621113456
9.218543046357615,1.436473540731194
9.23841059602649,1.4245167098666465
9.258278145695364,1.4118640284846729
9.27814569536424,1.3985474564923397
9.298013245033111,1.384601420334551
9.317880794701987,1.3700628831805066
9.33774834437086,1.3549714193256275
9.357615894039736,1.3393692922176441
9.37748344370861,1.3233015352365323
9.397350993377483,1.3068160340057395
9.417218543046358,1.2899636085742001
9.437086092715232,1.2727980932713536
9.456953642384107,1.2553764113869743
9.47682119205298,1.2377586410535162
9.496688741721854,1.220008067800982
9.516556291390728,1.2021912182127412
9.536423841059603,1.1843778679415211
9.556291390728477,1.1666410160719456
9.57615894039735,1.1490568164815858
9.596026490066224,1.1317044555281746
9.6158940397351,1.114665964179594
9.635761589403973,1.0980259517526259
9.655629139072847,1.0818712479236972
9.675496688741722,1.0662904398535582
9.695364238410596,1.05137329239431
9.715231788079471,1.037210041700235
9.735099337748345,1.0238905564042107
9.754966887417218,1.011503366033993
9.774834437086092,1.0001345635825312
9.794701986754967,0.989866597958337
9.814569536423841,0.9807769820066577
9.834437086092716,0.9729369521808847
9.854304635761588,0.9664101257360522
9.874172185430464,0.9612512092727603
9.894039735099337,0.9575048172778948
9.913907284768213,0.9552044598391518
9.933774834437086,0.9543717541979545
9.95364238410596,0.9550159051074624
9.973509933774835,0.9571334846698887
9.993377483443709,0.960708524749457
10.013245033112582,0.9657129160475733
10.033112582781456,0.9721070895834918
10.052980132450331,0.9798409406289935
10.072847682119205,0.9888549436342211
10.09271523178808,0.999081400217913
10.112582781456952,1.0104457609961752
10.132450331125828,1.0228679653396495
10.152317880794701,1.0362637500495768
10.172185430463577,1.0505458871582485
10.192052980132452,1.0656253213102544
10.211920529801324,1.081412187356614
10.2317880794702,1.0978166980581596
10.251655629139073,1.114749899616878
10.271523178807948,1.1321242988907527
10.29139072847682,1.149854370581741
10.311258278145695,1.1678569555633391
10.331125827814569,1.1860515630698896
10.350993377483444,1.2043605899795298
10.370860927152318,1.2227094701593342
10.390728476821192,1.2410267660485013
10.410596026490065,1.2592442135392818
10.43046357615894,1.2772967299349645
10.450331125827816,1.295122393438197
10.470198675496688,1.31266240133434
10.490066225165563,1.3298610128341048
10.509933774834437,1.3466654814583425
10.529801324503312,1.3630259808979177
10.549668874172186,1.378895527464226
10.56953642384106,1.3942299015556339
10.589403973509933,1.408987569990169
10.609271523178808,1.4231296105846698
10.629139072847682,1.4366196399790823
10.649006622516556,1.4494237454014793
10.66887417218543,1.4615104208302463
10.688741721854305,1.472850507825607
10.70860927152318,1.483417141162052
