Frequency (Hz),Amplitude
0.0,4.476993226453598
0.020066889632107024,4.475302357595811
0.04013377926421405,4.470232613886469
0.060200668896321065,4.461792589898359
0.0802675585284281,4.449996629958461
0.10033444816053512,4.434864858568535
0.12040133779264213,4.4164232237234256
0.14046822742474915,4.3947035538691335
0.1605351170568562,4.369743629472073
0.1806020066889632,4.341587270414225
0.20066889632107024,4.310284440687665
0.22073578595317725,4.275891372139807
0.24080267558528426,4.238470709319911
0.2608695652173913,4.198091677799077
0.2809364548494983,4.154830278682802
0.3010033444816054,4.108769512405248
0.3210702341137124,4.059999635287504
0.34113712374581934,4.0086184527524225
0.3612040133779264,3.954731653508632
0.3812709030100334,3.898453189431396
0.4013377926421405,3.8399057062569653
0.42140468227424743,3.779221030537432
0.4414715719063545,3.7165407185275514
0.4615384615384615,3.6520166727270533
0.4816053511705685,3.5858118315874727
0.5016722408026756,3.5181009372829024
0.5217391304347826,3.4490713852647747
0.5418060200668896,3.378924157338856
0.5618729096989966,3.3078748369138604
0.5819397993311036,3.236154700484192
0.6020066889632107,3.1640118728367344
0.6220735785953176,3.0917125243232357
0.6421404682274248,3.0195420761364065
0.6622073578595318,2.9478063631397013
0.6822742474916387,2.876832682737342
0.7023411371237458,2.806970632038647
0.7224080267558528,2.7385926041395923
0.7424749163879598,2.672093778540226
0.7625418060200668,2.607891402765614
0.7826086956521738,2.5464231264381603
0.802675585284281,2.488144122355236
0.8227424749163879,2.433522721683096
0.8428093645484949,2.3830343152089033
0.862876254180602,2.3371533441624286
0.882943143812709,2.296343335112085
0.903010033444816,2.261045129553086
0.923076923076923,2.2316637122221286
0.9431438127090299,2.2085543257287124
0.963210702341137,2.1920088244778655
0.983277591973244,2.182243404483293
1.0033444816053512,2.179388883862188
1.0234113712374582,2.183484559598438
1.0434782608695652,2.1944763297307905
1.0635451505016722,2.2122192974875072
1.0836120401337792,2.2364845569161274
1.1036789297658862,2.26696940398779
1.1237458193979932,2.303309909576688
1.1438127090301002,2.345094673858415
1.1638795986622072,2.391878647676784
1.1839464882943145,2.4431961081620637
1.2040133779264215,2.4985721482999392
1.2240802675585283,2.557532321406903
1.2441471571906353,2.6196103266132797
1.2642140468227423,2.684353806821099
1.2842809364548495,2.7513284510723883
1.3043478260869565,2.820120656115513
1.3244147157190636,2.8903390204742063
1.3444816053511706,2.9616149328929433
1.3645484949832773,3.0336024882494343
1.3846153846153846,3.1059779274846466
1.4046822742474916,3.1784387603042448
1.4247491638795986,3.250702694242792
1.4448160535117056,3.3225064631032004
1.4648829431438126,3.393604622441431
1.4849498327759196,3.463768359529108
1.5050167224080266,3.532784349555891
1.5250836120401337,3.6004536780226264
1.5451505016722407,3.6665908406017573
1.5652173913043477,3.73102282553608
1.5852842809364547,3.79358827933914
1.605351170568562,3.854136753678832
1.625418060200669,3.912528029494262
1.6454849498327757,3.9686315133244903
1.6655518394648827,4.02232570029255
1.6856187290969897,4.073497698024562
1.705685618729097,4.122042805868815
1.725752508361204,4.167864144024589
1.745819397993311,4.210872327532367
1.765886287625418,4.250985180471523
1.7859531772575248,4.288127486127926
1.806020066889632,4.322230769312521
1.826086956521739,4.353233107419396
1.846153846153846,4.381078967200835
1.866220735785953,4.4057190646030016
1.8862876254180598,4.427110245348144
1.9063545150501673,4.4452153842669295
1.926421404682274,4.460003301680027
1.9464882943143813,4.471448695402139
1.966555183946488,4.479532087198224
1.9866220735785953,4.484239782761864
2.0066889632107023,4.485563844513816
2.026755852842809,4.483502076736554
2.0468227424749164,4.478058022771978
2.0668896321070234,4.4692409742164845
2.0869565217391304,4.4570659922540115
2.1070234113712374,4.441553941475648
2.1270903010033444,4.422731536747689
2.1471571906354514,4.400631403910733
2.1672240802675584,4.375292155324248
2.1872909698996654,4.346758481516101
2.2073578595317724,4.315081260458432
2.2274247491638794,4.280317686271665
2.2474916387959865,4.242531419460705
2.267558528428094,4.201792761111952
2.2876254180602005,4.158178853828671
2.3076923076923075,4.111773912554467
2.3277591973244145,4.062669488827351
2.3478260869565215,4.010964772415632
2.367892976588629,3.956766934701505
2.3879598662207355,3.9001915185832092
2.408026755852843,3.8413628800390733
2.4280936454849495,3.780414686800963
2.4481605351170566,3.7174904797701167
2.468227424749164,3.652744302803909
2.4882943143812706,3.5863414062078296
2.508361204013378,3.518459028546388
2.5284280936454846,3.449287260056434
2.548494983277592,3.3790299887622393
2.568561872909699,3.3079059270359057
2.5886287625418056,3.236149711415377
2.608695652173913,3.1640130614826605
2.6287625418060196,3.0917659739176937
2.648829431438127,3.019697914796665
2.668896321070234,2.9481189560809717
2.688963210702341,2.877360780395429
2.709030100334448,2.807777451211174
2.7290969899665547,2.739745813547189
2.749163879598662,2.6736653543398314
2.769230769230769,2.60995731425605
2.789297658862876,2.549062808644847
2.809364548494983,2.4914396920037682
2.82943143812709,2.4375578983344854
2.849498327759197,2.3878930222824084
2.869565217391304,2.3429179871376866
2.8896321070234112,2.3030927871563462
2.9096989966555182,2.2688524967625163
2.9297658862876252,2.2405939970954893
2.9498327759197323,2.218662150490368
2.9698996655518393,2.2033364050044897
2.9899665551839463,2.194818970341015
3.0100334448160533,2.193225713285456
3.0301003344481603,2.198580740053545
3.0501672240802673,2.2108152735286373
3.0702341137123748,2.2297709533934467
3.0903010033444813,2.255207181135466
3.1103678929765888,2.286811702448749
3.1304347826086953,2.324213345635935
3.1505016722408024,2.3669957499590946
3.1705685618729094,2.4147110075313267
3.1906354515050164,2.46689235588391
3.210702341137124,2.5230653313624547
3.2307692307692304,2.582757067329934
3.250836120401338,2.6455036548156294
3.270903010033445,2.7108556565195325
3.2909698996655514,2.7783819750916954
3.311036789297659,2.847672331663713
3.3311036789297654,2.918338624098924
3.351170568561873,2.99001542031669
3.3712374581939795,3.062359812308136
3.391304347826087,3.1350508200826965
3.411371237458194,3.2077884977718107
3.4314381270903005,3.2802928600043573
3.451505016722408,3.3523027171818316
3.471571906354515,3.4235744839447535
3.491638795986622,3.493881005746732
3.511705685618729,3.563010433483658
3.531772575250836,3.6307651648653168
3.551839464882943,3.6969608629600477
3.5719063545150496,3.761425556447387
3.591973244147157,3.823998822028552
3.612040133779264,3.8845310467195073
3.632107023411371,3.9428827660270347
3.652173913043478,3.9989240730065996
3.672240802675585,4.052534092710128
3.692307692307692,4.103600516393758
3.712374581939799,4.1520191899533385
3.732441471571906,4.1976937513051125
3.752508361204013,4.240535311769676
3.7725752508361197,4.280462176907137
3.7926421404682276,4.317399602661848
3.8127090301003346,4.351279583086021
3.832775919732441,4.382040666312036
3.852842809364548,4.409627795824668
3.872909698996655,4.433992174444378
3.8929765886287626,4.455091148768518
3.9130434782608696,4.4728881121301525
3.933110367892976,4.487352424424768
3.953177257525083,4.498459347425712
3.9732441471571907,4.506189994462306
3.9933110367892977,4.510531293572687
4.013377926421405,4.5114759634694375
4.033444816053511,4.509022501872917
4.053511705685618,4.503175185977813
4.073578595317726,4.493944085025558
4.093645484949833,4.481345085161919
4.113712374581939,4.465399926968265
4.133779264214047,4.446136256269341
4.153846153846153,4.423587689043139
4.173913043478261,4.397793891491907
4.193979933110368,4.368800676581052
4.214046822742475,4.336660118616571
4.234113712374581,4.301430687714429
4.254180602006689,4.263177406319423
4.274247491638796,4.221972030256785
4.294314381270903,4.177893257149084
4.314381270903009,4.131026965401159
4.334448160535117,4.0814664873447235
4.354515050167224,4.029312920535066
4.374581939799331,3.9746754815935548
4.394648829431437,3.917671907374841
4.414715719063545,3.8584289085795906
4.434782608695651,3.7970826811943907
4.454849498327759,3.7337794812653384
4.474916387959866,3.668676268422477
4.494983277591973,3.6019414231639235
4.5150501672240795,3.5337555420342306
4.535117056856188,3.464312313299068
4.555183946488294,3.393819473270801
4.575250836120401,3.3224998397476786
4.595317725752508,3.250592413676375
4.615384615384615,3.1783535326223826
4.635451505016722,3.1060580493337255
4.655518394648829,3.0340004949405515
4.6755852842809364,2.962496168465954
4.695652173913043,2.891882071754326
4.71571906354515,2.822517581370612
4.735785953177258,2.754784716803164
4.7558528428093645,2.6890878287609756
4.775919732441471,2.6258524954276923
4.795986622073578,2.5655233833716315
4.816053511705686,2.5085608113225533
4.8361204013377925,2.4554357600446535
4.856187290969899,2.4066231131562037
4.8762541806020065,2.3625930053080584
4.896321070234113,2.323800305423605
4.916387959866221,2.2906724744809517
4.936454849498328,2.263596295244055
4.956521739130435,2.242904241705637
4.976588628762541,2.228861486549319
4.996655518394649,2.2216546737588367
5.016722408026756,2.2213835560213298
5.036789297658863,2.228056386304579
5.056856187290969,2.2415895774699557
5.076923076923077,2.261811666699184
5.096989966555184,2.2884711371466917
5.117056856187291,2.32124725409212
5.137123745819398,2.359762836368409
5.157190635451505,2.4035978304147845
5.177257525083611,2.4523026630730835
5.197324414715719,2.5054105684623935
5.217391304347826,2.5624483519484142
5.237458193979933,2.622945316059668
5.257525083612039,2.6864402926413815
5.277591973244148,2.7524868856457307
5.297658862876254,2.8206571286649247
5.317725752508361,2.890543809443719
5.337792642140468,2.9617617232233324
5.357859531772575,3.0339481011265703
5.377926421404682,3.1067624300905154
5.397993311036789,3.1798858454059156
5.418060200668896,3.2530202412423095
5.438127090301003,3.325887211838579
5.458193979933109,3.3982269078593736
5.478260869565218,3.469796869198127
5.498327759197324,3.5403708770334905
5.518394648829431,3.6097378536748543
5.538461538461538,3.677700827992213
5.558528428093646,3.7440759763453406
5.578595317725752,3.8086917432941014
5.598662207357859,3.8713880424647145
5.618729096989966,3.932015535336339
5.638795986622073,3.9904349840583655
5.65886287625418,4.046516673446078
5.678929765886288,4.100139896829578
5.698996655518394,4.151192500296385
5.719063545150501,4.199570479961757
5.739130434782608,4.245177627139938
5.759197324414716,4.28792521661843
5.7792642140468224,4.327731733613488
5.799331103678929,4.364522635382417
5.8193979933110365,4.398230143866432
5.839464882943144,4.428793066126904
5.8595317725752505,4.456156639708949
5.879598662207358,4.480272400417061
5.8996655518394645,4.5010980703156145
5.919732441471571,4.518597464073292
5.9397993311036785,4.5327404120555945
5.959866220735786,4.543502698836066
5.9799331103678925,4.55086601604622
5.999999999999999,4.554817928719969
6.020066889632107,4.55535185451259
6.040133779264214,4.5524670553900695
6.060200668896321,4.546168641594798
6.080267558528428,4.536467587901133
6.100334448160535,4.523380762381495
6.120401337792642,4.5069309681141885
6.1404682274247495,4.487146998479892
6.160535117056856,4.464063706918376
6.180602006688963,4.437722092252451
6.200668896321069,4.408169400935784
6.2207357859531776,4.375459247846892
6.240802675585284,4.339651757535841
6.260869565217391,4.300813728134485
6.280936454849498,4.25901882046643
6.301003344481605,4.214347775238886
6.321070234113712,4.166888661563387
6.341137123745819,4.1167371604315735
6.361204013377926,4.063996887157396
6.381270903010033,4.0087797571760015
6.40133779264214,3.9512063999412157
6.421404682274248,3.8914066259589815
6.441471571906354,3.8295199521903553
6.461538461538461,3.7656961910942313
6.481605351170568,3.700096108372787
6.501672240802676,3.6328921539173296
6.521739130434782,3.5642692693737366
6.54180602006689,3.4944257739497617
6.561872909698996,3.4235743273045935
6.581939799331103,3.3519429642512253
6.60200668896321,3.27977619014034
6.622073578595318,3.207336117665667
6.642140468227424,3.134903614843265
6.662207357859531,3.0627794194305293
6.682274247491639,2.991285156447391
6.702341137123746,2.920764172275725
6.722408026755852,2.851582070938988
6.742474916387959,2.784126806180055
6.762541806020066,2.718808148560717
6.782608695652174,2.656056313368584
6.80267558528428,2.5963195082454913
6.822742474916388,2.5400601474227327
6.842809364548494,2.487749493172105
6.862876254180601,2.4398605371681583
6.882943143812709,2.396859036901707
6.903010033444816,2.359192782487472
6.9230769230769225,2.3272793846192275
6.94314381270903,2.3014931271195356
6.963210702341137,2.2821516811778717
6.983277591973244,2.2695036806857876
7.0033444816053505,2.263718250945306
7.023411371237458,2.264877519548489
7.0434782608695645,2.2729729016508866
7.063545150501672,2.2879055681355207
7.083612040133779,2.309491041507567
7.103678929765886,2.337467411894143
7.123745819397993,2.371506311924421
7.143812709030099,2.411225592903978
7.1638795986622075,2.4562026208463688
7.183946488294314,2.5059872341657297
7.204013377926421,2.5601136239116364
7.224080267558528,2.6181106543907062
7.2441471571906355,2.679510387864548
7.264214046822742,2.7438547798855497
7.2842809364548495,2.8107006578906066
7.304347826086956,2.8796231852321226
7.324414715719063,2.95021805477448
7.34448160535117,3.0221026629088508
7.364548494983278,3.0949164986456257
7.384615384615384,3.1683209536238897
7.404682274247491,3.2419987250281586
7.424749163879598,3.315652949542362
7.444816053511706,3.389006175513346
7.464882943143812,3.4617992538309332
7.48494983277592,3.533790206043332
7.505016722408026,3.6047531107072825
7.525083612040134,3.6744770354093226
7.545150501672239,3.7427650316618317
7.565217391304348,3.809433202345915
7.585284280936455,3.874309845970555
7.605351170568561,3.937234678253964
7.625418060200669,3.998058129005162
7.645484949832775,4.056640710670376
7.665551839464882,4.112852453959261
7.685618729096991,4.166572405488407
7.705685618729096,4.217688182230913
7.725752508361204,4.266095577633319
7.74581939799331,4.311698214478893
7.765886287625418,4.354407239881472
7.785953177257525,4.394141058149343
7.806020066889631,4.4308250976354
7.826086956521739,4.464391608070873
7.846153846153847,4.494779485252692
7.866220735785952,4.521934120312786
7.88628762541806,4.54580727113645
7.906354515050166,4.566356953815781
7.926421404682274,4.583547352322456
7.946488294314381,4.597348744862797
7.966555183946488,4.60773744563963
7.986622073578595,4.6146957609910295
8.006688963210701,4.618211959109082
8.02675585284281,4.61828025276423
8.046822742474916,4.614900794675611
8.066889632107022,4.608079685377733
8.08695652173913,4.597828993641597
8.107023411371236,4.584166789716631
8.127090301003344,4.567117191871443
8.147157190635452,4.546710426928792
8.167224080267557,4.522982905716686
8.187290969899665,4.495977314594526
8.207357859531772,4.465742724464345
8.227424749163879,4.432334718943982
8.247491638795987,4.395815543662868
8.267558528428093,4.356254278944306
8.2876254180602,4.313727038459355
8.307692307692307,4.26831719677694
8.327759197324415,4.220115649088414
8.347826086956522,4.16922110674684
8.367892976588628,4.115740432621797
8.387959866220736,4.0597890206135725
8.408026755852843,4.001491223972767
8.42809364548495,3.9409808372990454
8.448160535117056,3.8784016371971455
8.468227424749163,3.8139079864829895
8.488294314381271,3.747665506465
8.508361204013378,3.679851821051836
8.528428093645484,3.610657375091777
8.548494983277592,3.5402863272140443
8.568561872909697,3.4689575142397375
8.588628762541806,3.3969054796084275
8.608695652173914,3.3243815517960624
8.628762541806019,3.251654949873311
8.648829431438127,3.1790138816026086
8.668896321070234,3.1067665842105376
8.68896321070234,3.0352422386790145
8.709030100334449,2.964791664766064
8.729096989966555,2.8957876761267594
8.749163879598662,2.8286249437630526
8.769230769230768,2.763719183704077
8.789297658862875,2.7015054551441717
8.809364548494983,2.642435334291203
8.82943143812709,2.586972725419601
8.849498327759196,2.535588094791173
8.869565217391303,2.4887509768668012
8.889632107023411,2.446920715624384
8.909698996655518,2.410535571185098
8.929765886287624,2.3800005370228368
8.949832775919733,2.3556744543406616
8.96989966555184,2.3378572396413597
8.989966555183946,2.3267782084295248
9.010033444816054,2.3225865301758035
9.030100334448159,2.325344749793488
9.050167224080267,2.3350260526493742
9.070234113712376,2.3515155670089456
9.09030100334448,2.374615558211378
9.110367892976589,2.4040539578260387
9.130434782608695,2.43949536507046
9.150501672240802,2.4805535032373487
9.17056856187291,2.5268041174102853
9.190635451505017,2.577797432846828
9.210702341137123,2.6330695070044543
9.23076923076923,2.692152049675774
9.250836120401337,2.754580512099649
9.270903010033445,2.8199004302083086
9.290969899665551,2.887672138397295
9.311036789297658,2.9574740496904006
9.331103678929765,3.028904734510365
9.351170568561873,3.1015840348748878
9.37123745819398,3.1751534348858117
9.391304347826086,3.249275881144586
9.411371237458194,3.323635215046927
9.4314381270903,3.3979353472995633
9.451505016722408,3.4718992760940943
9.471571906354516,3.5452680254274314
9.49163879598662,3.617799559430882
9.511705685618729,3.689267712076889
9.531772575250837,3.7594611588119036
9.551839464882942,3.828182446946385
9.57190635451505,3.8952470944424933
9.591973244147155,3.96048276155126
9.612040133779264,4.023728496109974
9.632107023411372,4.084834050842989
9.652173913043477,4.143659269414804
9.672240802675585,4.200073537027234
9.692307692307692,4.253955290853077
9.712374581939798,4.305191585419001
9.732441471571907,4.353677708089731
9.752508361204013,4.399316839989017
9.77257525083612,4.4420197579663085
9.792642140468226,4.481704573543589
9.812709030100335,4.518296505127507
9.832775919732441,4.551727680129802
9.852842809364548,4.581936963992198
9.872909698996656,4.608869813453203
9.89297658862876,4.632478151719151
9.91304347826087,4.6527202635091705
9.933110367892976,4.669560708232343
9.953177257525082,4.682970249826955
9.97324414715719,4.692925802047028
9.993311036789297,4.699410388222938
10.013377926421404,4.702413114752568
10.033444816053512,4.701929157800187
10.053511705685617,4.697959762893691
10.073578595317725,4.690512257320987
10.093645484949834,4.679600075433994
10.113712374581938,4.665242797178278
10.133779264214047,4.647466200378979
10.153846153846153,4.6263023275330015
10.17391304347826,4.601789568084768
10.193979933110368,4.573972757401654
10.214046822742475,4.542903293916535
10.234113712374581,4.5086392761712055
10.254180602006688,4.4712456617763525
10.274247491638796,4.430794450602155
10.294314381270903,4.387364894827287
10.31438127090301,4.341043738801077
10.334448160535118,4.291925492008333
10.354515050167223,4.2401127387618045
10.37458193979933,4.1857164885691995
10.394648829431437,4.12885657141249
10.414715719063544,4.069662082407819
10.434782608695652,4.008271880446068
10.454849498327757,3.9448351453919135
10.474916387959865,3.879511998167699
10.494983277591974,3.8124741874664045
10.515050167224079,3.743905845789507
10.535117056856187,3.6740043158142672
10.555183946488295,3.602981045530621
10.5752508361204,3.5310625468630183
10.595317725752508,3.4584914072483324
10.615384615384615,3.385527336453017
10.635451505016722,3.312448221291137
10.65551839464883,3.2395511483286428
10.675585284280936,3.1671533386259934
10.695652173913043,3.0955929187015006
10.71571906354515,3.025229428098774
10.735785953177256,2.956443936650178
10.755852842809364,2.8896386150495355
10.775919732441471,2.8252355732717156
10.795986622073578,2.763674757027852
10.816053511705684,2.7054106792371257
10.836120401337793,2.6509077699843324
10.856187290969899,2.6006341647488695
10.876254180602006,2.555053826997544
10.896321070234114,2.5146170249425968
10.916387959866219,2.4797493540930717
