Frequency (Hz),Amplitude
0.0,3.8127164843448336
0.019867549668874173,3.8118683123370816
0.039735099337748346,3.809325966097383
0.059602649006622516,3.805095956624503
0.07947019867549669,3.799189141060191
0.09933774834437085,3.7916207308469403
0.11920529801324503,3.782410303029249
0.13907284768211922,3.7715818145713462
0.15894039735099338,3.7591636195162708
0.17880794701986755,3.745188488755129
0.1986754966887417,3.7296936321076273
0.2185430463576159,3.7127207223343914
0.23841059602649006,3.694315920604527
0.2582781456953642,3.6745299028265697
0.27814569536423844,3.653417886113315
0.2980132450331126,3.6310396544893386
0.31788079470198677,3.6074595827596627
0.33774834437086093,3.5827466572374695
0.3576158940397351,3.556974491773518
0.3774834437086093,3.5302213372388263
0.3973509933774834,3.502570082282267
0.4172185430463576,3.4741082428160452
0.4370860927152318,3.4449279372743637
0.45695364238410596,3.4151258442474357
0.4768211920529801,3.384803138619139
0.49668874172185434,3.354065401841461
0.5165562913907285,3.3230225014756365
0.5364238410596026,3.291788434637646
0.5562913907284769,3.2604811295290634
0.5761589403973509,3.2292221988463723
0.5960264900662252,3.1981366385819836
0.6158940397350993,3.1673524656073093
0.6357615894039735,3.1370002875166474
0.6556291390728477,3.1072127985733156
0.6754966887417219,3.0781241962996573
0.695364238410596,3.049869514355426
0.7152317880794702,3.0225838689107705
0.7350993377483444,2.996401617785077
0.7549668874172186,2.971455434209298
0.7748344370860927,2.947875300166374
0.7947019867549668,2.925787427814567
0.8145695364238411,2.905313121396603
0.8344370860927152,2.8865675961210426
0.8543046357615894,2.869658774553388
0.8741721854304636,2.8546860848076747
0.8940397350993378,2.8417392879844563
0.9139072847682119,2.8308973645505295
0.9337748344370861,2.822227490409905
0.9536423841059603,2.8157841330426554
0.9735099337748344,2.811608296143561
0.9933774834437087,2.8097269376503817
1.0132450331125828,2.810152581020002
1.033112582781457,2.8128831333360234
1.0529801324503312,2.817901916678588
1.0728476821192052,2.8251779116124416
1.0927152317880795,2.834666204150869
1.1125827814569538,2.846308620621452
1.1324503311258278,2.8600345289276654
1.1523178807947019,2.875761780099719
1.1721854304635762,2.893397760963993
1.1920529801324504,2.9128405272984237
1.2119205298013245,2.933979986919011
1.2317880794701985,2.9566991035832464
1.2516556291390728,2.9808750951490897
1.271523178807947,3.006380602793362
1.2913907284768211,3.0330848119635276
1.3112582781456954,3.0608545098197304
1.3311258278145695,3.0895550679686834
1.3509933774834437,3.1190513430946845
1.370860927152318,3.1492084915122662
1.390728476821192,3.1798926966089276
1.410596026490066,3.210971810573215
1.4304635761589404,3.2423159137118382
1.4503311258278146,3.2737977960765012
1.4701986754966887,3.3052933670959908
1.4900662251655628,3.336681999500678
1.5099337748344372,3.3678468141000826
1.5298013245033113,3.398674911993862
1.5496688741721854,3.429057560621472
1.5695364238410596,3.4588903397397814
1.5894039735099337,3.4880732530065375
1.609271523178808,3.5165108103786316
1.6291390728476822,3.5441120860367836
1.6490066225165563,3.570790756047164
1.6688741721854303,3.596465119481578
1.6887417218543048,3.621058106252963
1.7086092715231789,3.6444972744912136
1.728476821192053,3.6667147998888368
1.7483443708609272,3.6876474590893493
1.7682119205298013,3.7072366088740836
1.7880794701986755,3.7254281626230172
1.8079470198675496,3.742172565281576
1.8278145695364238,3.757424767853945
1.847682119205298,3.77114420226283
1.8675496688741722,3.7832947572609927
1.8874172185430464,3.793844755950145
1.9072847682119205,3.802766935352671
1.9271523178807946,3.810038428390431
1.9470198675496688,3.8156407485479655
1.9668874172185429,3.819559777433886
1.9867549668874174,3.8217857554003913
2.0066225165562916,3.8223132753354836
2.0264900662251657,3.821141279702873
2.0463576158940397,3.8182730608690316
2.066225165562914,3.8137162647238756
2.086092715231788,3.8074828975682027
2.1059602649006623,3.799589336206863
2.1258278145695364,3.790056341148668
2.1456953642384105,3.778909072770961
2.165562913907285,3.766177110256257
2.185430463576159,3.7518944730483463
2.205298013245033,3.7360996445037475
2.2251655629139075,3.718835597328183
2.2450331125827816,3.7001498202848757
2.2649006622516556,3.6800943455391626
2.2847682119205297,3.658725775858124
2.3046357615894038,3.6361053107132255
2.324503311258278,3.6122987701337257
2.3443708609271523,3.587376614926438
2.364238410596027,3.5614139616107265
2.384105960264901,3.5344905901133545
2.403973509933775,3.5066909419249535
2.423841059602649,3.478104106037784
2.443708609271523,3.4488237895644804
2.463576158940397,3.418948269482802
2.4834437086092715,3.3885803214690866
2.5033112582781456,3.357827121282765
2.52317880794702,3.326800113661838
2.543046357615894,3.2956148432044157
2.562913907284768,3.2643907412726407
2.5827814569536423,3.2332508625964036
2.6026490066225163,3.2023215650190107
2.622516556291391,3.1717321257642057
2.642384105960265,3.141614287773586
2.662251655629139,3.112101730125492
2.6821192052980134,3.083329457368823
2.7019867549668874,3.055433103847698
2.7218543046357615,3.028548150811197
2.741721854304636,3.0028090563315657
2.76158940397351,2.97834830080644
2.781456953642384,2.955295354068952
2.801324503311258,2.9337755738044957
2.821192052980132,2.913909048950306
2.8410596026490067,2.8958094058543447
2.8609271523178808,2.8795825989598507
2.8807947019867552,2.865325711382785
2.9006622516556293,2.853125793657249
2.9205298013245033,2.843058770832872
2.9403973509933774,2.8351884487435357
2.9602649006622515,2.8295656494214163
2.9801324503311255,2.826227503192345
3.0,2.825196920974208
3.0198675496688745,2.8264822648588375
3.0397350993377485,2.830077228475197
3.0596026490066226,2.835960931303596
3.0794701986754967,2.8440982235103975
3.0993377483443707,2.854440190500518
3.119205298013245,2.8669248397181795
3.1390728476821192,2.8814779466694387
3.1589403973509933,2.8980140329882786
3.1788079470198674,2.916437446784273
3.198675496688742,2.9366435145195613
3.218543046357616,2.9585197341667673
3.23841059602649,2.9819469811962453
3.2582781456953644,3.0068007017614997
3.2781456953642385,3.032952070992016
3.2980132450331126,3.0602690982580962
3.3178807947019866,3.0886176653613853
3.3377483443708607,3.1178624875911307
3.3576158940397347,3.1478679912843317
3.3774834437086096,3.178499104810984
3.3973509933774837,3.2096219626976312
3.4172185430463577,3.2411045248750825
3.437086092715232,3.2728171147962946
3.456953642384106,3.304632881453922
3.47682119205298,3.336428191184438
3.4966887417218544,3.3680829556403387
3.5165562913907285,3.3994809025071353
3.5364238410596025,3.43050979550132
3.556291390728477,3.461061609967023
3.576158940397351,3.4910326700429892
3.596026490066225,3.5203237529424087
3.615894039735099,3.5488401654095187
3.6357615894039736,3.5764917969187335
3.6556291390728477,3.603193153683728
3.6754966887417218,3.628863377062192
3.695364238410596,3.653426249487192
3.7152317880794703,3.6768101906346553
3.7350993377483444,3.69894824615293
3.754966887417219,3.7197780709352575
3.774834437086093,3.7392419086099746
3.794701986754967,3.7572865686538908
3.814569536423841,3.7738634023002535
3.834437086092715,3.788928278210226
3.854304635761589,3.802441558704097
3.8741721854304636,3.814368077200866
3.8940397350993377,3.8246771173908605
3.9139072847682117,3.8333423945615213
3.9337748344370858,3.8403420394090233
3.9536423841059607,3.8456585845957267
3.9735099337748347,3.8492789542519983
3.993377483443709,3.8511944565699388
4.013245033112583,3.8514007795921104
4.033112582781457,3.849897990260137
4.052980132450331,3.8466905367526496
4.072847682119205,3.8417872541085543
4.0927152317880795,3.8352013730979038
4.112582781456953,3.8269505322664803
4.132450331125828,3.817056793040392
4.152317880794702,3.805546657730952
4.172185430463576,3.792451090226243
4.19205298013245,3.777805539091158
4.211920529801325,3.7616499627212137
4.231788079470199,3.7440288561030894
4.251655629139073,3.72499127862494
4.271523178807947,3.7045908822488607
4.291390728476821,3.6828859392033717
4.311258278145695,3.659939368172291
4.33112582781457,3.635818757744923
4.3509933774834435,3.6105963856480434
4.370860927152318,3.5843492319998944
4.390728476821192,3.5571589845083116
4.410596026490066,3.5291120331781185
4.43046357615894,3.500299451696786
4.450331125827815,3.4708169622343865
4.470198675496689,3.440764879928233
4.490066225165563,3.410248032832462
4.509933774834438,3.3793756526092373
4.529801324503311,3.348261230739212
4.549668874172186,3.317022334556257
4.569536423841059,3.2857803769957066
4.589403973509934,3.254660333623593
4.6092715231788075,3.2237904003318523
4.629139072847682,3.193301585094231
4.649006622516556,3.163327227438882
4.66887417218543,3.13400243987052
4.688741721854305,3.1054634664317953
4.708609271523179,3.077846954990104
4.728476821192054,3.051289141721678
4.748344370860927,3.025924948667831
4.768211920529802,3.0018869981587093
4.788079470198675,2.979304551298351
4.80794701986755,2.9583023814941756
4.827814569536423,2.9389995980526815
4.847682119205298,2.921508438954205
4.867549668874172,2.9059330558141196
4.887417218543046,2.8923683174480788
4.9072847682119205,2.880898661077886
4.927152317880794,2.8715970217442455
4.947019867549669,2.864523870677029
4.966887417218543,2.859726392033317
4.986754966887418,2.857237824475602
5.006622516556291,2.8570769895841215
5.026490066225166,2.859248023270977
5.04635761589404,2.863740319511643
5.066225165562914,2.870528688253782
5.086092715231788,2.879573721789033
5.105960264900662,2.890822356677762
5.125827814569536,2.9042086119559483
5.14569536423841,2.9196544792016996
5.1655629139072845,2.9370709363511547
5.185430463576159,2.9563590550501138
5.205298013245033,2.9774111707958304
5.225165562913908,3.0001120860296604
5.245033112582782,3.024340278463188
5.264900662251656,3.0499690899753777
5.28476821192053,3.0768678751013887
5.304635761589404,3.1049030921454333
5.324503311258278,3.1339393240228803
5.344370860927152,3.163840219848149
5.364238410596027,3.1944693518685616
5.3841059602649,3.2256909854873954
5.403973509933775,3.257370762761925
5.4238410596026485,3.2893763018856825
5.443708609271523,3.3215777167855602
5.463576158940397,3.353848062122848
5.483443708609272,3.386063709738932
5.503311258278146,3.4181046629931724
5.52317880794702,3.449854815566969
5.543046357615895,3.481202161215747
5.562913907284768,3.512038960695006
5.582781456953643,3.5422618717166947
5.602649006622516,3.5717720473487984
5.622516556291391,3.6004752077871074
5.642384105960264,3.628281689929858
5.662251655629139,3.6551064786927325
5.682119205298013,3.68086922352765
5.701986754966887,3.70549424316361
5.7218543046357615,3.728910521177132
5.741721854304636,3.7510516946272228
5.7615894039735105,3.7718560376555272
5.781456953642384,3.791266441656458
5.801324503311259,3.809230393362639
5.821192052980132,3.8256999519652193
5.841059602649007,3.8406317261947107
5.860927152317881,3.853986852121469
5.880794701986755,3.865730972293897
5.900662251655629,3.8758342167135575
5.920529801324503,3.884271186045963
5.940397350993377,3.8910209373822746
5.960264900662251,3.8960669727969517
5.980132450331126,3.8993972308874736
6.0,3.901004081432332
6.0198675496688745,3.900884323260485
6.039735099337749,3.899039185387004
6.059602649006623,3.8954743314343965
6.079470198675497,3.8901998673244376
6.099337748344371,3.88323035219016
6.119205298013245,3.8745848124194744
6.139072847682119,3.8642867586990755
6.158940397350993,3.852364205877779
6.178807947019867,3.8388496954100226
6.198675496688741,3.823780320070738
6.218543046357616,3.8071977505497405
6.23841059602649,3.789148263434504
6.258278145695365,3.7696827699719297
6.2781456953642385,3.748856844859749
6.298013245033113,3.7267307541529293
6.317880794701987,3.70336948117736
6.337748344370861,3.6788427491188815
6.357615894039735,3.653225038697021
6.377483443708609,3.6265955990382506
6.397350993377484,3.5990384495299264
6.417218543046357,3.570642370063982
6.437086092715232,3.5415008766686253
6.456953642384105,3.5117121790801216
6.47682119205298,3.4813791163306465
6.496688741721854,3.4506090659313733
6.516556291390729,3.4195138217260803
6.5364238410596025,3.3882094349982994
6.556291390728477,3.3568160129601914
6.5761589403973515,3.325457468365873
6.596026490066225,3.2942612137159624
6.6158940397351,3.2633577934021463
6.635761589403973,3.232880447234767
6.655629139072848,3.2029645991650293
6.675496688741721,3.1737472657195194
6.695364238410596,3.1453663797723728
6.715231788079469,3.1179600268457937
6.735099337748344,3.091665593194894
6.754966887417219,3.066618827518284
6.774834437086093,3.04295282122757
6.794701986754967,3.020796915753052
6.814569536423841,3.000275549253456
6.8344370860927155,2.9815070591752826
6.854304635761589,2.9646024611579325
6.874172185430464,2.9496642285410375
6.894039735099337,2.9367850999060114
6.913907284768212,2.926046944369029
6.933774834437086,2.9175197154506933
6.95364238410596,2.9112605240474974
6.973509933774834,2.9073128591730075
6.993377483443709,2.9057059816931035
7.013245033112583,2.9064545113484175
7.033112582781457,2.90955822117384
7.052980132450331,2.9150020463443695
7.072847682119205,2.9227563069440015
7.0927152317880795,2.9327771366595403
7.112582781456954,2.9450071024313798
7.132450331125828,2.9593759940803275
7.152317880794702,2.97580175821195
7.172185430463576,2.9941915474891436
7.19205298013245,3.014442854741134
7.211920529801324,3.0364447012885187
7.231788079470198,3.060078850150374
7.251655629139073,3.085221017216531
7.271523178807947,3.111742056726661
7.291390728476822,3.1395091011933838
7.311258278145695,3.1683866399492193
7.33112582781457,3.1982375245327095
7.3509933774834435,3.2289238929521
7.370860927152318,3.2603080083253917
7.390728476821192,3.292253010397094
7.410596026490066,3.324623580926553
7.430463576158941,3.3572865259231723
7.450331125827814,3.3901112791936803
7.470198675496689,3.4229703327092516
7.490066225165562,3.455739599955408
7.509933774834438,3.488298718755074
7.52980132450331,3.5205313001217595
7.549668874172186,3.5523251295619387
7.569536423841059,3.5835723269598465
7.589403973509934,3.6141694707881262
7.6092715231788075,3.644017691934469
7.629139072847682,3.6730227419467627
7.649006622516557,3.7010950400038567
7.66887417218543,3.7281497024308
7.6887417218543055,3.754106558112322
7.708609271523178,3.778890152722121
7.728476821192054,3.802429744285628
7.748344370860927,3.824659292231371
7.768211920529802,3.845517441761858
7.788079470198675,3.8649475050886823
7.80794701986755,3.882897440825559
7.827814569536423,3.899319832615237
7.847682119205298,3.9141718678792405
7.8675496688741715,3.927415317418867
7.887417218543046,3.9390165164601294
7.907284768211921,3.948946347620724
7.927152317880795,3.9571802261804403
7.9470198675496695,3.9636980879554757
7.966887417218543,3.9684843800094143
7.986754966887418,3.971528054376016
8.006622516556291,3.9728225649200737
8.026490066225167,3.9723658674197044
8.046357615894038,3.9701604229149012
8.066225165562914,3.9662132043306166
8.086092715231787,3.9605357063469455
8.105960264900663,3.9531439584511
8.125827814569536,3.9440585410648956
8.14569536423841,3.933304604595317
8.165562913907285,3.9209118912011496
8.185430463576159,3.906914759005358
8.205298013245034,3.891352208406701
8.225165562913906,3.8742679100538946
8.245033112582782,3.8557102339376783
8.264900662251655,3.8357322789281354
8.28476821192053,3.814391901933951
8.304635761589404,3.7917517456825536
8.324503311258278,3.767879263913821
8.344370860927151,3.7428467425409293
8.364238410596027,3.7167313150577805
8.3841059602649,3.6896149701616383
8.403973509933774,3.6615845492091275
8.42384105960265,3.632731730735233
8.443708609271523,3.603152998839224
8.463576158940398,3.5729495917815832
8.483443708609272,3.542227426650658
8.503311258278146,3.5110969954564073
8.52317880794702,3.4796732275072237
8.543046357615895,3.448075312446318
8.562913907284768,3.4164264778933364
8.582781456953642,3.384853715291104
8.602649006622515,3.353487447339164
8.62251655629139,3.322461130354993
8.642384105960264,3.291910785099535
8.66225165562914,3.2619744500959715
8.682119205298013,3.232791552325244
8.701986754966887,3.204502191458552
8.721854304635762,3.1772463355377045
8.741721854304636,3.1511629282737306
8.76158940397351,3.1263889109100167
8.781456953642383,3.103058164861578
8.801324503311259,3.081300385024266
8.821192052980132,3.061239897622727
8.841059602649008,3.0429944405550837
8.86092715231788,3.0266739281642807
8.880794701986755,3.0123792259464377
8.90066225165563,3.0002009635968423
8.920529801324504,2.9902184166933177
8.940397350993377,2.982498487957497
8.960264900662251,2.977094818210794
8.980132450331126,2.974047054746458
9.0,2.973380300883478
9.019867549668875,2.975104765097496
9.039735099337747,2.9792156216142485
9.059602649006623,2.985693087087041
9.079470198675496,2.994502710423465
9.099337748344372,3.0055958654670607
9.119205298013245,3.0189104295480127
9.139072847682119,3.034371625294911
9.158940397350994,3.051892998844739
9.178807947019868,3.0713775048711596
9.198675496688743,3.0927186677079455
9.218543046357615,3.115801788188898
9.23841059602649,3.140505167469351
9.258278145695364,3.166701321780562
9.27814569536424,3.1942581655011257
9.298013245033111,3.2230401438105454
9.317880794701987,3.2529093002394793
9.33774834437086,3.28372626841112
9.357615894039736,3.3153511809895417
9.37748344370861,3.3476444921812814
9.397350993377483,3.38046771299357
9.417218543046358,3.4136840608009247
9.437086092715232,3.447159026613986
9.456953642384107,3.4807608648086563
9.47682119205298,3.5143610110090804
9.496688741721854,3.5478344343826973
9.516556291390728,3.5810599308628803
9.536423841059603,3.61392036382675
9.556291390728477,3.6463028585792974
9.57615894039735,3.6780989566827587
9.596026490066224,3.709204735765175
9.6158940397351,3.739520899981159
9.635761589403973,3.76895284580963
9.655629139072847,3.797410707380922
9.675496688741722,3.824809385044473
9.695364238410596,3.851068560431202
9.715231788079471,3.8761127008388745
9.735099337748345,3.899871055377798
9.754966887417218,3.922277644962377
9.774834437086092,3.943271247918797
9.794701986754967,3.9627953827016236
9.814569536423841,3.9807982889691185
9.834437086092716,3.997232908056494
9.854304635761588,4.01205686370501
9.874172185430464,4.025232443750228
9.894039735099337,4.0367265833410375
9.913907284768213,4.046510850150097
9.933774834437086,4.054561431942898
9.95364238410596,4.060859126793646
9.973509933774835,4.065389336169916
9.993377483443709,4.068142061051671
10.013245033112582,4.0691119012010555
10.033112582781456,4.068298057656673
10.052980132450331,4.065704338486039
10.072847682119205,4.061339167791997
10.09271523178808,4.055215597930686
10.112582781456952,4.04735132485767
10.132450331125828,4.03776870647444
10.152317880794701,4.026494783795875
10.172185430463577,4.013561304699819
10.192052980132452,3.999004749949592
10.211920529801324,3.9828663610965194
10.2317880794702,3.9651921697703
10.251655629139073,3.9460330277471285
10.271523178807948,3.9254446370459233
10.29139072847682,3.9034875791393766
10.311258278145695,3.8802273421748983
10.331125827814569,3.8557343448781034
10.350993377483444,3.8300839555565314
10.370860927152318,3.8033565043286908
10.390728476821192,3.7756372863747494
10.410596026490065,3.7470165536365525
10.43046357615894,3.717589491988468
10.450331125827816,3.6874561804587374
10.470198675496688,3.6567215286088968
10.490066225165563,3.625495187684712
10.509933774834437,3.593891430649664
10.529801324503312,3.562028995717895
10.549668874172186,3.5300308875432114
10.56953642384106,3.4980241298237726
10.589403973509933,3.4661394627878783
10.609271523178808,3.4345109788798114
10.629139072847682,3.4032756900201546
10.649006622516556,3.3725730201305737
10.66887417218543,3.342544217252302
10.688741721854305,3.313331680612754
10.70860927152318,3.28507819946298
10.728476821192054,3.2579261024654063
10.748344370860927,3.232016318880332
10.7682119205298,3.207487355776042
10.788079470198676,3.1844741989267376
