Frequency (Hz),Amplitude
0.0,6.700544131416427
0.01993355481727575,6.699679750501338
0.0398671096345515,6.69708929724166
0.059800664451827246,6.692780837461644
0.079734219269103,6.686767805382752
0.09966777408637874,6.679068990240653
0.11960132890365449,6.6697085172391395
0.13953488372093023,6.658715822528891
0.159468438538206,6.646125621807088
0.17940199335548174,6.6319778720397435
0.19933554817275748,6.616317725712844
0.21926910299003324,6.599195476919872
0.23920265780730898,6.580666498493487
0.25913621262458475,6.560791169287178
0.27906976744186046,6.53963479061073
0.29900332225913623,6.51726749072096
0.318936877076412,6.493764116169021
0.3388704318936877,6.469204108709109
0.3588039867109635,6.443671366382576
0.37873754152823924,6.417254087310316
0.39867109634551495,6.3900445946572795
0.4186046511627907,6.362139141180818
0.4385382059800665,6.333637691744038
0.4584717607973422,6.304643682171419
0.47840531561461797,6.275263752853091
0.49833887043189373,6.245607455572069
0.5182724252491695,6.215786932142531
0.5382059800664452,6.185916563613489
0.5581395348837209,6.156112589016823
0.5780730897009968,6.126492692928727
0.5980066445182725,6.097175561472956
0.6179401993355482,6.06828040682678
0.637873754152824,6.039926460797986
0.6578073089700996,6.0122324386219645
0.6777408637873754,5.985315974778277
0.6976744186046512,5.959293033337448
0.717607973421927,5.934277296110132
0.7375415282392027,5.910379532664994
0.7574750830564785,5.887706957088665
0.7774086378737541,5.866362577155722
0.7973421926910299,5.846444542330485
0.8172757475083057,5.8280454977040606
0.8372093023255814,5.8112519515469065
0.8571428571428572,5.796143664596204
0.877076411960133,5.7827930694677585
0.8970099667774087,5.7712647286567496
0.9169435215946844,5.761614839449596
0.9368770764119602,5.75389079369646
0.9568106312292359,5.748130799787075
0.9767441860465116,5.7443635733375915
0.9966777408637875,5.742608102050231
1.0166112956810631,5.742873488979098
1.036544850498339,5.745158877061336
1.0564784053156147,5.749453456299386
1.0764119601328903,5.7557365534571625
1.0963455149501662,5.763977802615714
1.1162790697674418,5.774137393474361
1.1362126245847177,5.786166392932956
1.1561461794019936,5.800007134292794
1.176079734219269,5.815593667404688
1.196013289036545,5.832852262298038
1.2159468438538206,5.851701958260299
1.2358803986710964,5.872055150005932
1.255813953488372,5.893818202472288
1.275747508305648,5.916892085891509
1.2956810631229239,5.941173023090468
1.3156146179401993,5.966553141436885
1.3355481727574752,5.992921122447419
1.3554817275747508,6.020162842770281
1.3754152823920267,6.048162001018006
1.3953488372093024,6.076800725724069
1.4152823920265782,6.105960160503066
1.435215946843854,6.135521023283253
1.4551495016611296,6.1653641372331025
1.4750830564784054,6.195370931704048
1.495016611295681,6.225423912149559
1.514950166112957,6.25540709854772
1.5348837209302328,6.285206432348202
1.5548172757475083,6.314710152383218
1.5747508305647842,6.343809140528602
1.5946843853820598,6.37239723817849
1.6146179401993357,6.40037153481094
1.6345514950166113,6.427632630077814
1.6544850498338872,6.454084870957543
1.6744186046511629,6.479636565569504
1.6943521594684385,6.5042001752717855
1.7142857142857144,6.5276924866550035
1.73421926910299,6.55003476501001
1.754152823920266,6.571152890792118
1.7740863787375416,6.590977480533004
1.7940199335548175,6.609443993568403
1.8139534883720931,6.6264928258579
1.8338870431893688,6.642069392075969
1.8538205980066447,6.6561241970525895
1.8737541528239203,6.668612897539977
1.893687707641196,6.679496355179391
1.9136212624584719,6.688740681441016
1.9335548172757475,6.696317275209969
1.9534883720930232,6.702202853593855
1.9734219269102993,6.706379476431547
1.993355481727575,6.708834564889442
2.0132890365448506,6.709560914439545
2.0332225913621262,6.708556702423774
2.0531561461794023,6.705825490319737
2.073089700996678,6.701376220734953
2.0930232558139537,6.695223209068211
2.1129568106312293,6.687386129688273
2.132890365448505,6.67788999639057
2.1528239202657806,6.6667651368018825
2.1727574750830567,6.654047160310407
2.1926910299003324,6.6397769190042375
2.212624584717608,6.624000461004589
2.2325581395348837,6.606768975481381
2.25249169435216,6.588138728538276
2.2724252491694354,6.568170989052052
2.292358803986711,6.546931943448835
2.312292358803987,6.524492598297455
2.332225913621263,6.500928669500203
2.352159468438538,6.476320456765508
2.3720930232558137,6.450752701957506
2.39202657807309,6.424314429837937
2.4119601328903655,6.397098769649429
2.431893687707641,6.369202755940364
2.4518272425249172,6.340727107005261
2.471760797342193,6.311775979316096
2.4916943521594686,6.2824566963555295
2.511627906976744,6.252879450338767
2.5315614617940203,6.223156975433564
2.551495016611296,6.193404191264256
2.5714285714285716,6.1637378157221665
2.5913621262458477,6.134275946407084
2.611295681063123,6.1051376103972945
2.6312292358803986,6.076442282492354
2.6511627906976742,6.04830937259405
2.6710963455149503,6.020857683485567
2.691029900332226,5.994204840931804
2.7109634551495017,5.968466698746135
2.7308970099667778,5.943756722238809
2.7508305647840534,5.920185354261432
2.770764119601329,5.897859368870142
2.7906976744186047,5.876881218420812
2.810631229235881,5.857348380654357
2.8305647840531565,5.83935271299684
2.850498338870432,5.822979821854792
2.870431893687708,5.808308455098676
2.8903654485049834,5.795409926165285
2.910299003322259,5.7843475782485765
2.9302325581395348,5.775176296865991
2.950166112956811,5.7679420786737
2.9700996677740865,5.762681663755863
2.990033222591362,5.759422237738755
3.0099667774086383,5.758181208999643
3.029900332225914,5.758966064982042
3.0498338870431896,5.761774310232985
3.0697674418604657,5.7665934872906055
3.089700996677741,5.773401280023107
3.1096345514950166,5.782165697507857
3.129568106312292,5.792845335094014
3.1495016611295683,5.805389707963803
3.169435215946844,5.81973965133912
3.1893687707641196,5.835827780505384
3.2093023255813957,5.853579003068304
3.2292358803986714,5.872911075334465
3.249169435215947,5.893735194415932
3.2691029900332227,5.915956617595085
3.289036544850499,5.939475300631939
3.3089700996677744,5.964186547029146
3.32890365448505,5.989981660760609
3.3488372093023258,6.0167485955869715
3.3687707641196014,6.04437259479126
3.388704318936877,6.072736815939517
3.4086378737541527,6.101722936072635
3.428571428571429,6.1312117335403356
3.4485049833887045,6.161083643472906
3.46843853820598,6.191219284631099
3.4883720930232562,6.221499956065699
3.508305647840532,6.251808102644571
3.5282392026578075,6.282027749060143
3.548172757475083,6.312044902411485
3.5681063122923593,6.341747923861619
3.588039867109635,6.3710278702055705
3.60797342192691,6.3997788064510805
3.6279069767441863,6.427898090717825
3.647840531561462,6.455286632908185
3.6677740863787376,6.481849128699931
3.6877076411960132,6.507494270465053
3.7076411960132893,6.532134936736118
3.727574750830565,6.555688361827987
3.7475083056478407,6.578076287184292
3.7674418604651168,6.599225095959872
3.787375415282392,6.619065932276969
3.807308970099668,6.637534806508102
3.8272425249169437,6.654572687845951
3.8471760797342194,6.670125585322469
3.867109634551495,6.684144618338777
3.887043189368771,6.696586077664791
3.9069767441860463,6.707411477765802
3.9269102990033224,6.716587601211839
3.9468438538205985,6.724086535826491
3.9667774086378738,6.729885705133997
3.98671096345515,6.7339678925683994
4.0066445182724255,6.736321259814998
4.026578073089701,6.736939359562977
4.046511627906977,6.735821142857769
4.0664451827242525,6.732970961153021
4.086378737541528,6.728398563073214
4.106312292358805,6.722119085809875
4.1262458471760795,6.714153040985181
4.146179401993356,6.704526294726969
4.166112956810632,6.693270041607977
4.186046511627907,6.6804207720088495
4.205980066445183,6.666020232369522
4.225913621262459,6.6501153776961495
4.245847176079734,6.632758315591381
4.26578073089701,6.614006240974642
4.2857142857142865,6.593921360556192
4.305647840531561,6.572570806026182
4.325581395348838,6.550026534817123
4.345514950166113,6.526365217198698
4.365448504983389,6.501668108368107
4.385382059800665,6.476020904111002
4.40531561461794,6.449513578529327
4.425249169435216,6.422240202268979
4.445182724252492,6.39429873963361
4.465116279069767,6.365790822948865
4.485049833887043,6.3368215025476005
4.50498338870432,6.307498970788152
4.524916943521594,6.277934258600563
4.544850498338871,6.248240903187026
4.5647840531561465,6.218534585688619
4.584717607973422,6.188932737877533
4.604651162790698,6.159554117248616
4.624584717607974,6.130518350268929
4.644518272425249,6.10194544400454
4.664451827242526,6.073955266877979
4.6843853820598005,6.046666999918004
4.704318936877076,6.020198560538141
4.724252491694353,5.994666001614107
4.7441860465116275,5.9701828894084175
4.764119601328904,5.946859664695402
4.78405315614618,5.924802992250478
4.803986710963455,5.90411510465535
4.823920265780731,5.884893147108881
4.8438538205980075,5.867228530587309
4.863787375415282,5.851206301235206
4.883720930232559,5.836904534258235
4.9036544850498345,5.824393760798412
4.92358803986711,5.8137364362793065
4.943521594684386,5.804986458490975
4.963455149501661,5.798188743234212
4.983388704318937,5.793378864658327
5.003322259136213,5.790582766517293
5.023255813953488,5.7898165494562805
5.043189368770764,5.791086338155042
5.063122923588041,5.794388230737893
5.083056478405315,5.79970833135929
5.102990033222592,5.8070228653408815
5.122923588039868,5.816298374726517
5.142857142857143,5.827491990686157
5.162790697674419,5.840551777889535
5.182724252491695,5.855417144825018
5.20265780730897,5.872019313092775
5.222591362126246,5.890281837976864
5.242524916943522,5.910121172108567
5.262458471760797,5.93144726377611
5.282392026578074,5.954164181403116
5.3023255813953485,5.978170755893541
5.322259136212625,6.003361232898954
5.342192691029901,6.02962592757635
5.362126245847176,6.056851875038404
5.382059800664452,6.084923470420898
5.4019933554817285,6.1137230932707265
5.421926910299003,6.143131711763364
5.44186046511628,6.173029463063564
5.4617940199335555,6.203296206924267
5.48172757475083,6.2338120503587175
5.501661129568107,6.264457841904348
5.5215946843853825,6.295115634614695
5.541528239202658,6.3256691174619935
5.561461794019934,6.356004015304217
5.5813953488372094,6.386008457967874
5.601328903654485,6.4155733193233235
5.621262458471762,6.444592527487394
5.641196013289036,6.4729633474842725
5.661129568106313,6.5005866378357435
5.681063122923589,6.527367082643271
5.700996677740864,6.553213400772695
5.72093023255814,6.578038533765332
5.740863787375416,6.601759814081857
5.760797342192691,6.6242991152440185
5.780730897009967,6.645582985378606
5.800664451827243,6.665542765592844
5.820598006644518,6.684114694524373
5.840531561461795,6.7012400003150825
5.8604651162790695,6.716864981159609
5.880398671096346,6.730941075477925
5.900332225913622,6.743424922658942
5.920265780730897,6.75427841521999
5.940199335548173,6.76346874312575
5.960132890365449,6.7709684309109335
5.980066445182724,6.776755368153598
6.0,6.7808128337504625
6.0199335548172765,6.783129514352555
6.039867109634551,6.78369951722765
6.059800664451828,6.782522377725911
6.0797342192691035,6.77960306143588
6.099667774086379,6.774951961029197
6.119601328903655,6.768584887703509
6.139534883720931,6.760523057043761
6.159468438538206,6.750793069031459
6.179401993355482,6.739426881839549
6.1993355481727574,6.726461778956755
6.219269102990033,6.7119403290891
6.23920265780731,6.695910338188313
6.259136212624584,6.678424792856295
6.279069767441861,6.659541794272761
6.299003322259137,6.639324481689676
6.318936877076412,6.6178409444323
6.338870431893688,6.5951641212436485
6.3588039867109645,6.571371685708966
6.378737541528239,6.546545916400931
6.398671096345516,6.5207735502983715
6.418604651162791,6.494145617953452
6.438538205980066,6.466757258819444
6.458471760797343,6.438707515107161
6.4784053156146175,6.410099102518161
6.498338870431894,6.381038156212896
6.51827242524917,6.35163395041767
6.538205980066445,6.321998590162985
6.558139534883721,6.292246673783211
6.578073089700998,6.2624949250017306
6.598006644518272,6.232861793681463
6.617940199335549,6.203467024644972
6.6378737541528245,6.174431194364947
6.6578073089701,6.145875215797281
6.677740863787376,6.117919812176131
6.6976744186046515,6.0906849612104805
6.717607973421927,6.064289311808993
6.737541528239203,6.038849576204638
6.7574750830564785,6.014479901138849
6.777408637873754,5.991291222578065
6.797342192691031,5.969390609250903
6.8172757475083055,5.948880601084876
6.837209302325582,5.929858549357211
6.857142857142858,5.912415966022883
6.877076411960133,5.896637890210455
6.897009966777409,5.882602280250644
6.9169435215946855,5.8703794397937745
6.93687707641196,5.860031486555258
6.956810631229236,5.85161187198517
6.9767441860465125,5.84516495967872
6.996677740863787,5.840725669630065
7.016611295681064,5.8383191944927395
7.036544850498339,5.837960792869597
7.056478405315615,5.839655663344196
7.076411960132891,5.843398901528082
7.096345514950166,5.8491755408806885
7.116279069767442,5.856960676515519
7.136212624584719,5.866719669691323
7.156146179401993,5.878408429253384
7.17607973421927,5.891973764986038
7.196013289036546,5.907353806704692
7.21594684385382,5.924478481984992
7.235880398671097,5.9432700447219
7.2558139534883725,5.963643646240626
7.275747508305648,5.985507940446305
7.295681063122924,6.008765714489566
7.3156146179402,6.033314536621373
7.335548172757475,6.059047413288632
7.355481727574752,6.085853448051809
7.3754152823920265,6.1136184955538555
7.395348837209303,6.142225804504728
7.415282392026579,6.171556644432858
7.435215946843854,6.201490911766821
7.45514950166113,6.231907711618453
7.475083056478406,6.262685912421281
7.495016611295681,6.293704671317312
7.514950166112956,6.324843928866522
7.5348837209302335,6.355984872267808
7.554817275747508,6.3870103668218805
7.574750830564784,6.417805355833473
7.5946843853820605,6.4482572295422464
7.614617940199336,6.47825616399225
7.634551495016611,6.50769543100317
7.6544850498338874,6.536471680597465
7.674418604651163,6.564485197373959
7.694352159468439,6.5916401324051295
7.714285714285715,6.617844712280964
7.73421926910299,6.643011426931289
7.754152823920266,6.66705719783911
7.774086378737542,6.689903528213472
7.794019933554818,6.711476636628042
7.813953488372093,6.731707575554694
7.83388704318937,6.750532336134012
7.853820598006645,6.767891940429889
7.8737541528239205,6.7837325223159555
7.893687707641197,6.798005398039455
7.913621262458472,6.810667127405377
7.9335548172757475,6.82167956642083
7.953488372093024,6.831009912138339
7.9734219269103,6.838630740336789
7.9933554817275745,6.84452003658123
8.013289036544851,6.848661221106897
8.033222591362128,6.851043167879254
8.053156146179402,6.851660218089838
8.073089700996679,6.850512188257092
8.093023255813954,6.847604373011503
8.11295681063123,6.84294754255521
8.132890365448505,6.836557934696547
8.152823920265782,6.828457241269871
8.172757475083056,6.8186725886597905
8.192691029900331,6.807236512055744
8.21262458471761,6.794186922968165
8.232558139534884,6.779567069440087
8.252491694352159,6.763425488288768
8.272425249169435,6.745815948610043
8.292358803986712,6.7267973856745105
8.312292358803987,6.706433824239784
8.332225913621263,6.68479429019754
8.352159468438538,6.66195270936968
8.372093023255815,6.6379877921660695
8.392026578073091,6.612982902719232
8.411960132890366,6.587025911021813
8.43189368770764,6.560209026514216
8.451827242524917,6.53262861150589
8.471760797342194,6.504384972769484
8.491694352159469,6.475582129627394
8.511627906976745,6.446327556860925
8.53156146179402,6.4167319008197
8.551495016611296,6.386908667199851
8.571428571428573,6.356973879100609
8.591362126245848,6.327045704167229
8.611295681063122,6.297244049890052
8.6312292358804,6.267690126460391
8.651162790697676,6.238505976989167
8.67109634551495,6.209813975374887
8.691029900332227,6.181736292665763
8.710963455149502,6.154394333392721
8.730897009966778,6.127908144049964
8.750830564784053,6.102395796658076
8.77076411960133,6.077972751146142
8.790697674418604,6.054751201116022
8.81063122923588,6.032839408379684
8.830564784053157,6.012341032462255
8.850498338870432,5.99335446200848
8.870431893687707,5.975972155685262
8.890365448504983,5.960280000703924
8.91029900332226,5.946356697460376
8.930232558139535,5.934273178978057
8.950166112956811,5.9240920738141005
8.970099667774086,5.9158672208331415
8.990033222591363,5.9096432437585245
9.00996677740864,5.905455192676213
9.029900332225914,5.90332825870582
9.049833887043189,5.903277566887793
9.069767441860467,5.905308051000202
9.089700996677742,5.90941441255508
9.109634551495017,5.9155811646825915
9.129568106312293,5.923782760045486
9.14950166112957,5.933983800391929
9.169435215946844,5.94613932390464
9.189368770764121,5.960195165188819
9.209302325581396,5.976088381599494
9.22923588039867,5.993747738675806
9.249169435215949,6.0130942467441635
9.269102990033224,6.034041740286153
9.289036544850498,6.056497491439365
9.308970099667773,6.0803628489991
9.328903654485051,6.105533894497427
9.348837209302326,6.131902107327406
9.368770764119601,6.1593550314233765
9.388704318936878,6.1877769366711695
9.408637873754152,6.217049468969216
9.428571428571429,6.247052283662935
9.448504983388705,6.277663657896838
9.46843853820598,6.30876107824783
9.488372093023255,6.340221800794778
9.508305647840533,6.371923381525466
9.528239202657808,6.403744175669868
9.548172757475083,6.4355638051673525
9.56810631229236,6.4672635940212855
9.588039867109636,6.498726971762591
9.60797342192691,6.529839845638475
9.627906976744187,6.560490942462717
9.647840531561462,6.5905721213176305
9.667774086378738,6.6199786584880895
9.687707641196015,6.64860950614338
9.70764119601329,6.676367526368111
9.727574750830565,6.703159702187642
9.747508305647841,6.728897327240841
9.767441860465118,6.753496175732086
9.787375415282392,6.776876654248563
9.807308970099669,6.798963936965187
9.827242524916944,6.819688085680777
9.84717607973422,6.838984156040426
9.867109634551497,6.856792291202668
9.887043189368772,6.873057804109368
9.906976744186046,6.887731249412924
9.926910299003321,6.900768486011232
9.9468438538206,6.912130731037199
9.966777408637874,6.9217846060470185
9.986710963455149,6.929702176050723
10.006644518272426,6.935860981929879
10.026578073089702,6.940244066690806
10.046511627906977,6.942839995906998
10.066445182724253,6.94364287261178
10.086378737541528,6.942652346810638
10.106312292358805,6.939873619691757
10.126245847176081,6.935317442523427
10.146179401993356,6.929000110136028
10.16611295681063,6.920943448795116
10.186046511627907,6.9111747981796325
10.205980066445184,6.89972698708472
10.225913621262459,6.886638302372246
10.245847176079735,6.8719524505934775
10.26578073089701,6.855718511606315
10.285714285714286,6.8379908834065155
10.305647840531563,6.81882921728557
10.325581395348838,6.798298342320766
10.345514950166113,6.776468178094755
10.36544850498339,6.753413634433995
10.385382059800666,6.72921449685079
10.40531561461794,6.70395529627238
10.425249169435217,6.6777251615478965
10.445182724252492,6.650617653140949
10.465116279069768,6.622730576348241
10.485049833887045,6.594165772336063
10.50498338870432,6.565028885262937
10.524916943521594,6.535429103763877
10.544850498338871,6.505478875115815
10.564784053156147,6.4752935904919715
10.584717607973422,6.444991239852602
10.604651162790697,6.414692035216756
10.624584717607974,6.384518001322759
10.64451827242525,6.354592533018285
10.664451827242525,6.325039919130422
10.684385382059801,6.295984833053785
10.704318936877076,6.267551790862153
10.724252491694353,6.239864578392925
10.74418604651163,6.213045649468802
10.764119601328904,6.187215498197143
10.784053156146179,6.162492009109704
10.803986710963457,6.138989789755464
10.823920265780732,6.1168194912124
10.843853820598007,6.096087122813021
10.863787375415283,6.076893368151005
10.88372093023256,6.059332910119115
10.903654485049834,6.0434937732855545
10.923588039867111,6.029456692314087
10.943521594684386,6.017294515339859
