Time (s),Filtered Signal
0.0,-0.003560573363567599
0.0334075723830735,0.5334826210279049
0.066815144766147,0.9294470732942138
0.1002227171492205,1.084112396549706
0.133630289532294,0.9661052988692821
0.1670378619153675,0.6167013410406217
0.200445434298441,0.13026530304364994
0.23385300668151449,-0.3797334242630454
0.267260579064588,-0.8153477227482374
0.3006681514476615,-1.1169799018247137
0.334075723830735,-1.2685871715385315
0.3674832962138085,-1.2876973354914263
0.400890868596882,-1.2083229201175398
0.4342984409799555,-1.065605647643596
0.46770601336302897,-0.8875178912952791
0.5011135857461025,-0.6939251766086282
0.534521158129176,-0.4996536684285545
0.5679287305122495,-0.31738526323515986
0.601336302895323,-0.1578670318989989
0.6347438752783965,-0.027524112757847413
0.66815144766147,0.07451729910447236
0.7015590200445435,0.15757804198567388
0.734966592427617,0.23726374558544625
0.7683741648106905,0.33010383453065584
0.801781737193764,0.44664522383378974
0.8351893095768375,0.5856223518571279
0.868596881959911,0.7318318973338404
0.9020044543429845,0.8591927212835553
0.9354120267260579,0.9384283688410022
0.9688195991091315,0.9467060380767209
1.002227171492205,0.8754792918440416
1.0356347438752784,0.733371878290032
1.069042316258352,0.5429862838758035
1.1024498886414256,0.33304486735142214
1.135857461024499,0.12912520295862634
1.1692650334075725,-0.053303139004541616
1.202672605790646,-0.21088639205913912
1.2360801781737194,-0.3488648293791703
1.269487750556793,-0.47374404756867966
1.3028953229398665,-0.5855247459604014
1.33630289532294,-0.6732026724718736
1.3697104677060135,-0.7160975660162123
1.403118040089087,-0.6912239060716314
1.4365256124721606,-0.5841500559479215
1.469933184855234,-0.39871162752449046
1.5033407572383075,-0.16066370118187484
1.536748329621381,0.08755798945854831
1.5701559020044544,0.29987448915621645
1.603563474387528,0.44226577231014713
1.6369710467706016,0.5040610744549693
1.670378619153675,0.49933670639705097
1.7037861915367485,0.45762718166103283
1.737193763919822,0.4085477555831832
1.7706013363028954,0.3679876655565039
1.804008908685969,0.33246801650133084
1.8374164810690425,0.28371611073059394
1.8708240534521159,0.20019886181331714
1.9042316258351895,0.06929710703363862
1.937639198218263,-0.10558548930009999
1.9710467706013366,-0.30528057865218916
2.00445434298441,-0.5009082071488741
2.0378619153674835,-0.661949187173984
2.071269487750557,-0.7628068283422469
2.1046770601336307,-0.7863233026996259
2.138084632516704,-0.724960268834402
2.1714922048997773,-0.5814404979343127
2.204899777282851,-0.3699791130448698
2.2383073496659245,-0.11734717364688009
2.271714922048998,0.13864731962474663
2.3051224944320716,0.355568504391004
2.338530066815145,0.4975434367053441
2.3719376391982183,0.5475219442884596
2.405345211581292,0.5144999210733318
2.4387527839643655,0.43062098176720703
2.472160356347439,0.3377685448583485
2.5055679287305126,0.2692668896623586
2.538975501113586,0.23582617714446416
2.5723830734966593,0.22321121266908153
2.605790645879733,0.202823708459489
2.6391982182628064,0.1491503684840327
2.67260579064588,0.05431096345129188
2.7060133630289536,-0.06800580862185397
2.739420935412027,-0.190515769985682
2.7728285077951007,-0.2867687185719591
2.806236080178174,-0.3434692277337221
2.8396436525612474,-0.364155907061274
2.873051224944321,-0.3632326225769851
2.9064587973273945,-0.3548473150894116
2.939866369710468,-0.3434641929455202
2.9732739420935417,-0.32122235714268305
3.006681514476615,-0.27284797329618354
3.0400890868596884,-0.18479561119823756
3.073496659242762,-0.05368059657875864
3.1069042316258355,0.10968706334795393
3.140311804008909,0.2816644675605231
3.1737193763919826,0.4313283080959684
3.207126948775056,0.5282535051142428
3.2405345211581293,0.5507328819577836
3.273942093541203,0.49270507258055374
3.3073496659242765,0.3672817398493378
3.34075723830735,0.20480612938337805
3.3741648106904236,0.04484764023863861
3.407572383073497,-0.07570490987997722
3.4409799554565703,-0.13383971911586107
3.474387527839644,-0.12606305843417587
3.5077951002227175,-0.06624608756158269
3.541202672605791,0.02246061532137342
3.5746102449888646,0.11670361791002391
3.608017817371938,0.1979955344553913
3.6414253897550113,0.25185705568609135
3.674832962138085,0.2634274084040671
3.7082405345211584,0.21473366293807777
3.7416481069042318,0.08818696947199638
3.7750556792873056,-0.12302422123314208
3.808463251670379,-0.40202399698570424
3.8418708240534527,-0.7005104377142156
3.875278396436526,-0.943340077720537
3.9086859688195994,-1.0479148065663695
3.942093541202673,-0.9537357555219784
3.9755011135857465,-0.6510687758379571
4.00890868596882,-0.19538746178770233
4.042316258351893,0.3017988459431028
4.075723830734967,0.7057908966395774
4.109131403118041,0.9044640391690086
4.142538975501114,0.849151116676661
4.1759465478841875,0.5734071669643669
4.209354120267261,0.1809387948889779
4.242761692650334,-0.19303870764614836
4.276169265033408,-0.4311877991682756
4.309576837416482,-0.4737608434879478
4.342984409799555,-0.33300755940467464
4.3763919821826285,-0.07853804683747842
4.409799554565702,0.19707217173099986
4.443207126948775,0.4154491044484153
4.476614699331849,0.5363931265270402
4.510022271714923,0.5610551115940369
4.543429844097996,0.5174187060225118
4.5768374164810695,0.4386827710701453
4.610244988864143,0.34628309455856615
4.643652561247216,0.2446048554005244
4.67706013363029,0.1272024895583377
4.710467706013364,-0.011467294589330223
4.743875278396437,-0.1665514590041959
4.77728285077951,-0.3207703052406555
4.810690423162584,-0.4502111531894148
4.844097995545657,-0.5339885663470607
4.877505567928731,-0.5622513042980456
4.910913140311805,-0.5386290997797171
4.944320712694878,-0.4766364786754325
4.977728285077951,-0.39267783128627265
5.011135857461025,-0.2995786608599502
5.044543429844098,-0.20371841730337695
5.077951002227172,-0.10665322679961294
5.111358574610246,-0.00976782471818254
5.144766146993319,0.08103991816787359
5.178173719376392,0.1537860952518971
5.211581291759466,0.19368355288198133
5.244988864142539,0.19045442147185807
5.278396436525613,0.14616977548835594
5.311804008908687,0.07884586593268111
5.34521158129176,0.018327790615312207
5.378619153674833,-0.0052781246690040895
5.412026726057907,0.024062522210744845
5.445434298440981,0.09847165481698973
5.478841870824054,0.18691736294672837
5.512249443207128,0.24787532467883733
5.545657015590201,0.2489770403159503
5.579064587973274,0.18441495255100382
5.612472160356348,0.08103616959341822
5.645879732739422,-0.011021043978986527
5.679287305122495,-0.03987812013899923
5.712694877505569,0.023862138399050013
5.746102449888642,0.17162432590146046
5.779510022271715,0.35787245642000354
5.812917594654789,0.5177601569720152
5.846325167037863,0.5935063552599823
5.879732739420936,0.5572195792430731
5.91314031180401,0.41969468434242785
5.946547884187083,0.22195582176819414
5.979955456570156,0.015150007199718379
6.01336302895323,-0.16017405128017315
6.046770601336304,-0.28538604223426783
6.080178173719377,-0.3622189622569556
6.1135857461024505,-0.40258555875665997
6.146993318485524,-0.41807105230375907
6.180400890868597,-0.4156659387651057
6.213808463251671,-0.40055079035277485
6.247216035634745,-0.381233153500877
6.280623608017818,-0.3708336162297164
6.3140311804008915,-0.3816810739849164
6.347438752783965,-0.4161006729851104
6.380846325167038,-0.4602053337790649
6.414253897550112,-0.48661419242007614
6.447661469933186,-0.4665531678313498
6.481069042316259,-0.38524976898570923
6.5144766146993325,-0.2514527409658265
6.547884187082406,-0.09473104017279103
6.581291759465479,0.04857770271308322
6.614699331848553,0.15291735025641762
6.648106904231627,0.21456814344763836
6.6815144766147,0.25027845651034497
6.7149220489977735,0.2850449498833284
6.748329621380847,0.33668560229034006
6.78173719376392,0.4059318647216195
6.815144766146994,0.47676478715908904
6.848552338530068,0.5256239439741995
6.881959910913141,0.5336771765666558
6.915367483296214,0.4956751141868808
6.948775055679288,0.42162092626862213
6.982182628062361,0.33147295174854824
7.015590200445435,0.24620249756143758
7.048997772828509,0.17963262162426427
7.082405345211582,0.13460329562866227
7.115812917594655,0.10477860209815779
7.149220489977729,0.0806815324389607
7.182628062360802,0.05633132793701042
7.216035634743876,0.03229349662796231
7.24944320712695,0.01275464870985959
7.282850779510023,-0.0020583348614960865
7.316258351893096,-0.023093709653884447
7.34966592427617,-0.07312268851830796
7.383073496659243,-0.17742511482937992
7.416481069042317,-0.3470154596167015
7.449888641425391,-0.5627248805186947
7.4832962138084635,-0.7704163280407725
7.516703786191537,-0.8936975454153497
7.550111358574611,-0.8619886758382984
7.583518930957685,-0.6429485848348754
7.616926503340758,-0.26408455212874726
7.650334075723832,0.18826296408757676
7.683741648106905,0.59459797065108
7.717149220489978,0.8432223593448384
7.750556792873052,0.8697898087710224
7.783964365256126,0.6792505190035749
7.817371937639199,0.34176457324341214
7.850779510022273,-0.03471912370881256
7.884187082405346,-0.3432814659086389
7.917594654788419,-0.5127596285322441
7.951002227171493,-0.5259243471582884
7.984409799554567,-0.4163333451685767
8.01781737193764,-0.24785797616190317
8.051224944320714,-0.08712002027097243
8.084632516703786,0.019547882199293175
8.118040089086861,0.0566815778348648
8.151447661469934,0.03654168853579325
8.184855233853007,-0.012772258862956338
8.218262806236082,-0.06024930717830037
8.251670378619155,-0.08008956460943296
8.285077951002227,-0.05398011085367264
8.318485523385302,0.029074584389918317
8.351893095768375,0.17083738918451513
8.385300668151448,0.35822165901087266
8.418708240534523,0.5572966742397084
8.452115812917596,0.7135972103367894
8.485523385300668,0.7642030599704193
8.518930957683743,0.6609401658071655
8.552338530066816,0.3960490307419517
8.585746102449889,0.016779585214734476
8.619153674832964,-0.38225934822551166
8.652561247216036,-0.6902341367534329
8.68596881959911,-0.8230369459688941
8.719376391982184,-0.7579838207766422
8.752783964365257,-0.5422086387516207
8.78619153674833,-0.26929843143135707
8.819599109131405,-0.03539669709957659
8.853006681514477,0.10285902715956392
8.88641425389755,0.14738392610072087
8.919821826280625,0.14647576060051432
8.953229398663698,0.16034432897538842
8.98663697104677,0.2245442170380524
9.020044543429846,0.3308813405193399
9.053452115812918,0.4340561338077515
9.086859688195991,0.47762719858900815
9.120267260579066,0.4233848632974158
9.153674832962139,0.26861662533891323
9.187082405345212,0.04452457504080628
9.220489977728286,-0.19991865827964478
9.25389755011136,-0.4177007294641693
9.287305122494432,-0.5768236772560791
9.320712694877507,-0.6627357652661774
9.35412026726058,-0.6732800066346026
9.387527839643653,-0.6126793119443763
9.420935412026727,-0.48937451555582656
9.4543429844098,-0.3178682154636319
9.487750556792873,-0.12085518094458693
9.521158129175948,0.07248699887767417
9.55456570155902,0.2331711680444755
9.587973273942094,0.3411771010356711
9.621380846325168,0.391428555933037
9.654788418708241,0.3934075526353563
9.688195991091314,0.3646616591103462
9.721603563474389,0.32219686514523604
9.755011135857462,0.2768873886162354
9.788418708240535,0.23376841674707408
9.82182628062361,0.19687608692526468
9.855233853006682,0.1739735479305161
9.888641425389755,0.17636731288870267
9.92204899777283,0.21234336669509282
9.955456570155903,0.2775342396697861
9.988864142538976,0.3487212829343427
10.02227171492205,0.38695580892024467
10.055679287305123,0.35137650963358036
10.089086859688196,0.21889444768505203
10.12249443207127,0.00038586543087119137
10.155902004454344,-0.255972764168582
10.189309576837417,-0.47838312915014236
10.222717149220491,-0.598034056980997
10.256124721603564,-0.5775101394960064
10.289532293986637,-0.42801462324453654
10.322939866369712,-0.20711401968753215
10.356347438752785,0.0023441458562562093
10.389755011135858,0.12297741247577268
10.423162583518932,0.11031829086093549
10.456570155902005,-0.03361666549785323
10.489977728285078,-0.26450659501843293
10.523385300668153,-0.5140599208235659
10.556792873051226,-0.7139362095161684
10.590200445434299,-0.8158015512465776
10.623608017817373,-0.8010450785978311
10.657015590200446,-0.6789397697625831
10.69042316258352,-0.47711377638017294
10.723830734966594,-0.2306603791011335
10.757238307349667,0.025134892412740542
10.790645879732741,0.25756873739875874
10.824053452115814,0.437809571368237
10.857461024498887,0.5445234737787608
10.890868596881962,0.5707792729638257
10.924276169265035,0.530877650150536
10.957683741648108,0.4614706972663031
10.991091314031182,0.41306661402084943
11.024498886414255,0.4328815502314483
11.057906458797328,0.5450709498592154
11.091314031180403,0.736731014421253
11.124721603563476,0.9565070890776555
11.158129175946549,1.1279931358482116
11.191536748329623,1.1743535502202396
11.224944320712696,1.0459079808810086
11.25835189309577,0.740501228092026
11.291759465478844,0.30826703789473286
11.325167037861917,-0.1623057395932653
11.35857461024499,-0.5728910884898301
11.391982182628064,-0.8480044946606093
11.425389755011137,-0.958986048245968
11.45879732739421,-0.9295254651623471
11.492204899777285,-0.8207067030701517
11.525612472160358,-0.7025447485653308
11.55902004454343,-0.6248837576711084
11.592427616926505,-0.6003569638648111
11.625835189309578,-0.6059877940914696
11.659242761692651,-0.6010652920422385
11.692650334075726,-0.5515558304144119
11.726057906458799,-0.44890917890122833
11.759465478841872,-0.31450823794150096
11.792873051224946,-0.1882861555774349
11.82628062360802,-0.10763818658402735
11.859688195991092,-0.08722893380961402
11.893095768374167,-0.10978844507473663
11.92650334075724,-0.13287954697631307
11.959910913140313,-0.1091290205667446
11.993318485523387,-0.010696021345869241
12.02672605790646,0.15414830039477462
12.060133630289533,0.3416627040737999
12.093541202672608,0.4917901892409253
12.12694877505568,0.5572136026542595
12.160356347438753,0.5273157995643222
12.193763919821828,0.4336380670826607
12.227171492204901,0.33315778792115236
12.260579064587974,0.2783390219227202
12.293986636971049,0.29066420337501825
12.327394209354122,0.3521399443118428
12.360801781737194,0.41842009989312207
12.39420935412027,0.44466660225361
12.427616926503342,0.408836338440382
12.461024498886415,0.3200926409615417
12.49443207126949,0.20964389527377206
12.527839643652563,0.11108117601061766
12.561247216035635,0.04181780335619946
12.59465478841871,-0.0048454170237761905
12.628062360801783,-0.05382414457963867
12.661469933184856,-0.13218659944131003
12.69487750556793,-0.25115297088588984
12.728285077951004,-0.39526227489843835
12.761692650334076,-0.5247377057796825
12.795100222717151,-0.5909666236035149
12.828507795100224,-0.5583000965202158
12.861915367483297,-0.42158675147004476
12.895322939866372,-0.21058391805437823
12.928730512249444,0.020887676825522974
12.962138084632517,0.21530461559142244
12.995545657015592,0.3312656788905849
13.028953229398665,0.35430035744070926
13.062360801781738,0.2960658568678927
13.095768374164813,0.18544817244356307
13.129175946547885,0.05777087558127415
13.162583518930958,-0.05331131803100181
13.195991091314033,-0.12054030087405132
13.229398663697106,-0.12659740381171858
13.262806236080179,-0.06843852069080213
13.296213808463254,0.03848942401801506
13.329621380846326,0.1600062467282351
13.3630289532294,0.2508581864121765
13.396436525612474,0.2703756200063916
13.429844097995547,0.20043481270086325
13.46325167037862,0.056253444024649976
13.496659242761694,-0.11780600800858691
13.530066815144767,-0.26796631353544265
13.56347438752784,-0.3576291225451661
13.596881959910915,-0.3867145140396805
13.630289532293988,-0.3919890505668231
13.66369710467706,-0.4262891587839976
13.697104677060135,-0.526369929872833
13.730512249443208,-0.6862744986877082
13.763919821826281,-0.8512872599346791
13.797327394209356,-0.9374613804969706
13.830734966592429,-0.8687108934100954
13.864142538975502,-0.6142662484901306
13.897550111358576,-0.20845425587948052
13.93095768374165,0.2574293404838638
13.964365256124722,0.668671366310181
13.997772828507797,0.9318374040622801
14.03118040089087,1.0108235061269755
14.064587973273943,0.937958509067125
14.097995545657017,0.7951350075166285
14.13140311804009,0.6740810490744357
14.164810690423163,0.6350190531390255
14.198218262806238,0.6835952921960851
14.23162583518931,0.7762153599220546
14.265033407572384,0.8486885996354152
14.298440979955458,0.8508380436574919
14.331848552338531,0.7676720623753148
14.365256124721604,0.6171146091884967
14.398663697104679,0.4292746564123978
14.432071269487752,0.22328118871748026
14.465478841870825,-0.002129655276849813
14.4988864142539,-0.25854026042908756
14.532293986636972,-0.5463889362494274
14.565701559020045,-0.8382273637286621
14.59910913140312,-1.0799367398680482
14.632516703786193,-1.211567735669892
14.665924276169266,-1.1967819704426164
14.69933184855234,-1.0439684645030514
14.732739420935413,-0.8063608744741306
14.766146993318486,-0.5600961498375918
14.79955456570156,-0.37126539767896616
14.832962138084634,-0.26884183896118286
14.866369710467707,-0.23696468197144466
14.899777282850781,-0.22958396638110326
14.933184855233854,-0.19875120663637993
14.966592427616927,-0.12108593524917198
15.0,-0.008528311527637077
