Time (s),Filtered Signal
0.0,-0.04939322790965783
0.03337000366703337,-0.036764894924753905
0.06674000733406674,0.02433808578215597
0.1001100110011001,0.16218205409311562
0.13348001466813347,0.37300157406384904
0.16685001833516683,0.6211276887494322
0.2002200220022002,0.8511229345577401
0.2335900256692336,1.0068613793289334
0.26696002933626695,1.049974657764715
0.3003300330033003,0.971087066834665
0.33370003667033366,0.7909930453992751
0.36707004033736707,0.5530308785698039
0.4004400440044004,0.31022737590235044
0.4338100476714338,0.11093603808617473
0.4671800513384672,-0.014069221617648392
0.5005500550055005,-0.060383844942554256
0.5339200586725339,-0.05180328739571544
0.5672900623395672,-0.032978334829149705
0.6006600660066006,-0.05328828614114348
0.634030069673634,-0.14648640381832198
0.6674000733406673,-0.3141551376920059
0.7007700770077008,-0.5211564451768116
0.7341400806747341,-0.7069495272516023
0.7675100843417675,-0.8093963326584395
0.8008800880088008,-0.7910836148644541
0.8342500916758342,-0.6559738659679628
0.8676200953428675,-0.4480032313625816
0.9009900990099009,-0.2315494190017141
0.9343601026769344,-0.06247046484579505
0.9677301063439677,0.03676090883067589
1.001100110011001,0.08592479837247902
1.0344701136780343,0.1353911853538684
1.0678401173450678,0.23903866828143003
1.1012101210121013,0.42425173417039486
1.1345801246791345,0.6731367026138964
1.167950128346168,0.9241615759374849
1.2013201320132012,1.0941468337536295
1.2346901356802347,1.1112370023044291
1.268060139347268,0.9445329681386776
1.3014301430143014,0.6177160224165302
1.3348001466813346,0.2012835745435729
1.368170150348368,-0.2126585104420982
1.4015401540154016,-0.5420757263786624
1.4349101576824348,-0.7403858563812913
1.4682801613494683,-0.8064729808288671
1.5016501650165015,-0.7772837431011967
1.535020168683535,-0.7079642851831853
1.5683901723505682,-0.648663630811018
1.6017601760176017,-0.6271894714826762
1.6351301796846351,-0.6431741632967586
1.6685001833516684,-0.6741198590812117
1.7018701870187019,-0.6889408488222037
1.735240190685735,-0.6622691402428441
1.7686101943527686,-0.5835579754699709
1.8019801980198018,-0.45825035360883165
1.8353502016868353,-0.3022690598827327
1.8687202053538687,-0.1338709034468322
1.902090209020902,0.032765595940868544
1.9354602126879354,0.1898707572305291
1.9688302163549687,0.33491771651816854
2.002200220022002,0.4684691273107888
2.0355702236890356,0.5932550166549162
2.0689402273560686,0.7145465628503022
2.102310231023102,0.8396563329498167
2.1356802346901356,0.9741187714013485
2.169050238357169,1.1145001087825661
2.2024202420242025,1.2414069095001705
2.2357902456912355,1.318274872801463
2.269160249358269,1.2997898514921746
2.3025302530253025,1.14872028634641
2.335900256692336,0.854470068763906
2.369270260359369,0.4443356057160748
2.4026402640264024,-0.019025395175946928
2.436010267693436,-0.45427242322840594
2.4693802713604693,-0.7861076123888424
2.502750275027503,-0.9684218820278394
2.536120278694536,-0.9971148933911342
2.5694902823615693,-0.9083231233844742
2.6028602860286028,-0.7635586715873104
2.636230289695636,-0.6278239821738482
2.6696002933626692,-0.5485836395568067
2.7029702970297027,-0.5423851262430365
2.736340300696736,-0.5928228548245722
2.7697103043637696,-0.6596925765391151
2.803080308030803,-0.6956860403058815
2.836450311697836,-0.6646585706393315
2.8698203153648696,-0.5550046847546481
2.903190319031903,-0.3833512879022317
2.9365603226989365,-0.18734156250989106
2.96993032636597,-0.010560310236780935
3.003300330033003,0.11414960680153431
3.0366703337000365,0.1761604892878147
3.07004033736707,0.18893076838011325
3.1034103410341034,0.1821663379728119
3.1367803447011364,0.188251251442961
3.17015034836817,0.2289752809696316
3.2035203520352034,0.30788435649168155
3.236890355702237,0.4107188634097168
3.2702603593692703,0.5128023347987454
3.3036303630363033,0.589464948117633
3.3370003667033368,0.6247672509320223
3.3703703703703702,0.6152048783332826
3.4037403740374037,0.5679327335415281
3.4371103777044367,0.4957487622162228
3.47048038137147,0.4120707790661832
3.5038503850385037,0.32796659063529554
3.537220388705537,0.25103234389431206
3.5705903923725706,0.1844643057524248
3.6039603960396036,0.12529524950001336
3.637330399706637,0.06294433833079278
3.6707004033736705,-0.019104272515013468
3.704070407040704,-0.13650887499674141
3.7374404107077375,-0.29363693559567916
3.7708104143747705,-0.47486956968808836
3.804180418041804,-0.6442256239881808
3.8375504217088374,-0.7565716611828517
3.870920425375871,-0.7770302038689276
3.904290429042904,-0.699119576658929
3.9376604327099374,-0.5509719979793207
3.971030436376971,-0.3843730672511614
4.004400440044004,-0.2508126718744308
4.037770443711038,-0.17668338354669463
4.071140447378071,-0.15107935887793808
4.104510451045105,-0.13307190040089809
4.137880454712137,-0.07453320122735825
4.171250458379171,0.05401373751671346
4.204620462046204,0.24827964448227205
4.237990465713238,0.4729199817835345
4.271360469380271,0.6789110352834514
4.304730473047305,0.8248751411293935
4.338100476714338,0.8909616085554689
4.3714704803813715,0.879717158466643
4.404840484048405,0.806467876554803
4.438210487715438,0.687042028741763
4.471580491382471,0.5305508239268436
4.5049504950495045,0.34040729658517305
4.538320498716538,0.12119562197532936
4.571690502383571,-0.11425777518518833
4.605060506050605,-0.3427979846146566
4.638430509717638,-0.5356743200472853
4.671800513384672,-0.66785851939113
4.705170517051705,-0.7271648776386953
4.738540520718738,-0.7185903492526293
4.771910524385771,-0.6619500170490143
4.805280528052805,-0.5843584527929891
4.838650531719838,-0.5113563906460515
4.872020535386872,-0.4603154174784112
4.905390539053905,-0.4376126497242591
4.938760542720939,-0.43869397400338406
4.972130546387972,-0.4492913778941323
5.005500550055006,-0.4471621178629755
5.038870553722038,-0.4055315071032982
5.072240557389072,-0.29996945273645736
5.105610561056105,-0.11862130406867367
5.138980564723139,0.12758415482632718
5.172350568390172,0.40048475283159224
5.2057205720572055,0.6408832318718559
5.239090575724239,0.7859102693647952
5.272460579391272,0.7922300603885772
5.305830583058306,0.6557118552598067
5.3392005867253385,0.4183845291217767
5.372570590392372,0.15818291038003307
5.405940594059405,-0.03588671565014964
5.439310597726439,-0.09426002036364417
5.472680601393472,0.008492259155117523
5.506050605060506,0.2441295774678265
5.539420608727539,0.5398487455377736
5.572790612394573,0.8025315399131376
5.606160616061606,0.9492906954707544
5.63953061972864,0.9335831176203099
5.672900623395672,0.7580787616502813
5.706270627062706,0.4703318844431554
5.739640630729739,0.14346466363516902
5.773010634396773,-0.15049371591797076
5.806380638063806,-0.36430219320186336
5.83975064173084,-0.4873311879251222
5.873120645397873,-0.5417860830042218
5.9064906490649065,-0.5663737301072246
5.93986065273194,-0.5956430755966282
5.9732306563989725,-0.6443769765080147
6.006600660066006,-0.7031876499373962
6.0399706637330395,-0.7458085941825334
6.073340667400073,-0.7434594853893932
6.106710671067106,-0.6793704947166294
6.14008067473414,-0.5575494989342803
6.173450678401173,-0.40293467801761285
6.206820682068207,-0.2534130071246369
6.24019068573524,-0.146620266159144
6.273560689402273,-0.10574177022127088
6.306930693069306,-0.12892964322506362
6.34030069673634,-0.1864386191272229
6.373670700403373,-0.2277931355898444
6.407040704070407,-0.1980789507086244
6.44041070773744,-0.05857460304589903
6.473780711404474,0.1958478370826472
6.507150715071507,0.5300010101417572
6.540520718738541,0.8761676456025764
6.573890722405573,1.154398550074031
6.607260726072607,1.2979489220770424
6.64063072973964,1.2741419011137693
6.6740007334066735,1.0928339981791293
6.707370737073707,0.7999226207486566
6.7407407407407405,0.4595295218895032
6.774110744407774,0.13274933414340312
6.807480748074807,-0.13868438017755558
6.840850751741841,-0.33868967292086116
6.8742207554088735,-0.47293602764452575
6.907590759075907,-0.558738814618877
6.94096076274294,-0.6142499712627387
6.974330766409974,-0.6512276598740443
7.007700770077007,-0.6729676144985178
7.041070773744041,-0.6764236206850319
7.074440777411074,-0.6562003908398373
7.107810781078108,-0.6081486745254855
7.141180784745141,-0.5312732241478426
7.174550788412174,-0.42791775750261585
7.207920792079207,-0.30312326433627507
7.241290795746241,-0.16424158613638146
7.274660799413274,-0.02120417889175195
7.308030803080308,0.11330655192172846
7.341400806747341,0.2252580267085344
7.3747708104143745,0.3031488317818085
7.408140814081408,0.3434359109519049
7.4415108177484415,0.3546464052002057
7.474880821415475,0.35693816877628104
7.5082508250825075,0.37577770919216186
7.541620828749541,0.4316309930718083
7.5749908324165744,0.5300535994741322
7.608360836083608,0.6566904796154374
7.641730839750641,0.7794397563288642
7.675100843417675,0.856910318754341
7.708470847084708,0.8501182514158929
7.741840850751742,0.7339260917778904
7.775210854418775,0.5054818573621728
7.808580858085808,0.18776811244246192
7.841950861752841,-0.1731241813006987
7.875320865419875,-0.5176001006822484
7.908690869086908,-0.7877030821243521
7.942060872753942,-0.9435610412010381
7.975430876420975,-0.974833655140406
8.008800880088009,-0.9017710515626194
8.042170883755041,-0.7649052298474094
8.075540887422076,-0.6081709778017932
8.108910891089108,-0.4637713623409549
8.142280894756142,-0.345860913115377
8.175650898423175,-0.25470240680692185
8.20902090209021,-0.18675569204700385
8.242390905757242,-0.1430714554992169
8.275760909424275,-0.13019176628760534
8.309130913091309,-0.1531622760782005
8.342500916758341,-0.20577122662317218
8.375870920425376,-0.2653608145081465
8.409240924092408,-0.2971594190840631
8.442610927759443,-0.2674326381124422
8.475980931426475,-0.15912645364982106
8.50935093509351,0.018560689392017365
8.542720938760542,0.2325484816086121
8.576090942427575,0.439708174106294
8.60946094609461,0.6051967351668034
8.642830949761642,0.7155773818652118
8.676200953428676,0.7798469190967995
8.709570957095709,0.818426281739412
8.742940960762743,0.8470753600211549
8.776310964429776,0.8653361872370852
8.80968096809681,0.8559584366082412
8.843050971763843,0.7950058742136968
8.876420975430875,0.6663170427030349
8.90979097909791,0.4721914697749372
8.943160982764942,0.23508301150775326
8.976530986431976,-0.009684997737052177
9.009900990099009,-0.2258761677897743
9.043270993766043,-0.38730713120128063
9.076640997433076,-0.4836861104800022
9.11001100110011,-0.5201701849745874
9.143381004767143,-0.5122939346519896
9.176751008434175,-0.4794117528391571
9.21012101210121,-0.4395399436639914
9.243491015768242,-0.40684095767863715
9.276861019435277,-0.39104402196814286
9.31023102310231,-0.3971459551208881
9.343601026769344,-0.42441694768117355
9.376971030436376,-0.46541964572541705
9.41034103410341,-0.5069060101622568
9.443711037770443,-0.5338509369687766
9.477081041437476,-0.5356675485818793
9.51045104510451,-0.5113938389171176
9.543821048771543,-0.47019312431770716
9.577191052438577,-0.42559571359792964
9.61056105610561,-0.38553735523166865
9.643931059772644,-0.3433238031828979
9.677301063439677,-0.275233944016261
9.710671067106711,-0.14789693319965524
9.744041070773743,0.06614948528186283
9.777411074440776,0.3709273485800969
9.81078107810781,0.7358029190740584
9.844151081774843,1.097124243294725
9.877521085441877,1.374207007378938
9.91089108910891,1.4949591115091478
9.944261092775944,1.4217578110282578
9.977631096442977,1.167147806621324
10.011001100110011,0.7922093475770348
10.044371103777044,0.387023479653118
10.077741107444076,0.04003999889135734
10.11111111111111,-0.1917833563028167
10.144481114778143,-0.299920596657107
10.177851118445178,-0.32123402984126526
10.21122112211221,-0.31647571048223394
10.244591125779245,-0.340178995043929
10.277961129446277,-0.4157935100560689
10.311331133113312,-0.5273859201460701
10.344701136780344,-0.6311183573035742
10.378071140447377,-0.679957981985495
10.411441144114411,-0.6486562413024461
10.444811147781444,-0.5463382165429704
10.478181151448478,-0.410882239320488
10.51155115511551,-0.28892421370895943
10.544921158782545,-0.21256809187858103
10.578291162449577,-0.18494033043541838
10.611661166116612,-0.18133982634326423
10.645031169783644,-0.1641981828317029
10.678401173450677,-0.1031832706058136
10.711771177117711,0.009939273218786708
10.745141180784744,0.15829044904035242
10.778511184451778,0.3087224402810561
10.81188118811881,0.426936801275058
10.845251191785845,0.49127800644645203
10.878621195452878,0.49941548386321466
10.911991199119912,0.46610011258388107
10.945361202786945,0.41414272714498956
10.978731206453979,0.3631847089792365
11.012101210121012,0.3211786558347687
11.045471213788044,0.28199585875844835
11.078841217455079,0.2299097204287228
11.112211221122111,0.14883098254490268
11.145581224789145,0.032137191148903434
11.178951228456178,-0.11143835251724653
11.212321232123212,-0.2588556508758482
11.245691235790245,-0.3807770093007552
11.27906123945728,-0.45329241139373927
11.312431243124312,-0.46804451638682243
11.345801246791344,-0.43575529791879114
11.379171250458379,-0.38106716540581054
11.412541254125411,-0.33092253618091627
11.445911257792446,-0.30220012207501934
11.479281261459478,-0.29491297107037723
11.512651265126513,-0.294337617074619
11.546021268793545,-0.2804682081241228
11.57939127246058,-0.23905568547950723
11.612761276127612,-0.16775530950763248
11.646131279794645,-0.07412737862594564
11.67950128346168,0.03249663716593443
11.712871287128712,0.14924344955140678
11.746241290795746,0.28180953609801485
11.779611294462779,0.4381579192361767
11.812981298129813,0.6171538368051801
11.846351301796846,0.7993646866519696
11.87972130546388,0.9468343921817007
11.913091309130913,1.0139737560413526
11.946461312797945,0.9653791319542352
11.97983131646498,0.7920712805464103
12.013201320132012,0.5179291067161518
12.046571323799046,0.19291382856264225
12.079941327466079,-0.12369758681359654
12.113311331133113,-0.38217541103577435
12.146681334800146,-0.5551465148115711
12.18005133846718,-0.6401296493265162
12.213421342134213,-0.6530835830882068
12.246791345801245,-0.6181240975454523
12.28016134946828,-0.5589319751053857
12.313531353135312,-0.4946575958914618
12.346901356802347,-0.43950293392832235
12.38027136046938,-0.4030475889518627
12.413641364136414,-0.3889457460564404
12.447011367803446,-0.39215309905991225
12.48038137147048,-0.39735161063443136
12.513751375137513,-0.3817744554385133
12.547121378804546,-0.3235376191206393
12.58049138247158,-0.21292847662158082
12.613861386138613,-0.06109179254904664
12.647231389805647,0.09970505872926332
12.68060139347268,0.22677619715427416
12.713971397139714,0.2856129726919028
12.747341400806746,0.2681137167062822
12.78071140447378,0.20061649037612644
12.814081408140813,0.13564105039103802
12.847451411807846,0.1291357424535979
12.88082141547488,0.2131491416321763
12.914191419141913,0.3775061435782434
12.947561422808947,0.5706386499376759
12.98093142647598,0.7205056667072973
13.014301430143014,0.7662626964110103
13.047671433810047,0.685528489781486
13.081041437477081,0.5039640199936075
13.114411441144114,0.2825656979952501
13.147781444811146,0.08911380521225643
13.18115144847818,-0.03209645193371243
13.214521452145213,-0.07768206400946107
13.247891455812248,-0.08205084735745195
13.28126145947928,-0.0964018333854716
13.314631463146315,-0.16103583490523762
13.348001466813347,-0.2847204990217974
13.381371470480381,-0.4405957043388224
13.414741474147414,-0.5795716666264109
13.448111477814447,-0.6537871355714096
13.481481481481481,-0.6384921381702457
13.514851485148514,-0.5423903612876557
13.548221488815548,-0.4026742478932132
13.58159149248258,-0.26825094192354465
13.614961496149615,-0.17942058748866332
13.648331499816647,-0.1527179373625618
13.681701503483682,-0.17633660477135685
13.715071507150714,-0.216681722918798
13.748441510817747,-0.23243068426333796
13.781811514484781,-0.19036202056192264
13.815181518151814,-0.07732484453443565
13.848551521818848,0.09546571653801841
13.88192152548588,0.2968512726765491
13.915291529152915,0.48694251981145287
13.948661532819948,0.63082899792268
13.982031536486982,0.7095700376998653
14.015401540154015,0.7242961243480756
14.048771543821047,0.6920728922733002
14.082141547488082,0.6357265166858241
14.115511551155114,0.5725290086521087
14.148881554822148,0.5071186533259736
14.182251558489181,0.4318575889305311
14.215621562156215,0.3339362756917326
14.248991565823248,0.20492968827242228
14.282361569490282,0.04725642339613665
14.315731573157315,-0.12605458962046132
14.349101576824348,-0.2977564987952897
14.382471580491382,-0.45454595425379646
14.415841584158414,-0.5914520049503308
14.449211587825449,-0.7093562547854243
14.482581591492481,-0.8072485680612265
14.515951595159516,-0.8748427007147245
14.549321598826548,-0.8917238815987758
14.582691602493583,-0.8355059350463694
14.616061606160615,-0.6955544826099391
14.649431609827648,-0.48442269938331706
14.682801613494682,-0.2393320637310773
14.716171617161715,-0.011104668059589111
14.749541620828749,0.15496077851780127
14.782911624495782,0.2369679446129061
14.816281628162816,0.2441694769336834
14.849651631829849,0.21105672293138014
14.883021635496883,0.18132716959793516
14.916391639163916,0.18992602477640513
14.94976164283095,0.2512505157161897
14.983131646497982,0.35738182715963535
15.016501650165015,0.48482741241489363
15.04987165383205,0.6048585506796534
15.083241657499082,0.6924842733158274
15.116611661166116,0.7315063811400644
15.149981664833149,0.71582745361537
15.183351668500183,0.6485250767728215
15.216721672167216,0.5398789642549482
15.25009167583425,0.40453689311862107
15.283461679501283,0.25759772155788735
15.316831683168315,0.11008185110881635
15.35020168683535,-0.03454373907168328
15.383571690502382,-0.18059501423826982
15.416941694169417,-0.3359339398885048
15.45031169783645,-0.5042918077819237
15.483681701503484,-0.6774929340595275
15.517051705170516,-0.8318264930112147
15.55042170883755,-0.9315465333641826
15.583791712504583,-0.93949581502466
15.617161716171616,-0.8315500186073727
15.65053171983865,-0.6094619216648227
15.683901723505683,-0.30660408272842166
15.717271727172717,0.016901487359764673
15.75064173083975,0.28966513961886686
15.784011734506784,0.45101452745819404
15.817381738173816,0.47198730575644177
15.85075174184085,0.3667737595332943
15.884121745507883,0.18859682042382847
15.917491749174916,0.010052208625304818
15.95086175284195,-0.10479503847392559
15.984231756508983,-0.12450466498419398
16.017601760176017,-0.05941487565233655
16.05097176384305,0.04837985257221636
16.084341767510082,0.14885783955755158
16.117711771177117,0.20922482335434953
16.15108177484415,0.2274011777345681
16.184451778511182,0.22741779862834843
16.217821782178216,0.24036510144079287
16.25119178584525,0.28245572704256716
16.284561789512285,0.34305642799919195
16.317931793179316,0.3895234868347924
16.35130179684635,0.3858324211101066
16.384671800513384,0.3140032889438677
16.41804180418042,0.1857688016924421
16.45141180784745,0.03764272176542088
16.484781811514484,-0.08785869926061927
16.51815181518152,-0.16417075082047397
16.55152181884855,-0.19338314717084526
16.584891822515583,-0.2025710771235098
16.618261826182618,-0.22592891386110978
16.651631829849652,-0.2829350115257343
16.685001833516683,-0.3650968317632113
16.718371837183717,-0.43909641296209795
16.75174184085075,-0.46495806445903354
16.785111844517782,-0.4192882152491879
16.818481848184817,-0.31050986108596323
16.85185185185185,-0.17717914486988032
16.885221855518886,-0.06972020215843376
16.918591859185916,-0.025145227441948623
16.95196186285295,-0.04836058451748932
16.985331866519985,-0.1101643417121879
17.01870187018702,-0.16290805735494224
17.05207187385405,-0.16513260679411748
17.085441877521085,-0.1017385587212704
17.11881188118812,0.010919024202239619
17.15218188485515,0.13689182089507138
17.185551888522184,0.2417932777046046
17.21892189218922,0.3107513312236405
17.252291895856253,0.3531980193054149
17.285661899523284,0.39267539548493424
17.319031903190318,0.4485922069107401
17.352401906857352,0.521156073444468
