Frequency (Hz),Amplitude
0.0,2.298803841485276
0.04,2.2992296712688076
0.08,2.300504996853756
0.12,2.30262334567351
0.16,2.3055739921904705
0.19999999999999998,2.309342049756108
0.24,2.3139085967620368
0.27999999999999997,2.319250834736389
0.32,2.325342275515801
0.36,2.3321529541975434
0.39999999999999997,2.3396496642586904
0.44,2.347796211024645
0.48,2.3565536795767383
0.52,2.3658807132027406
0.5599999999999999,2.3757337986050326
0.6,2.386067554276147
0.64,2.396835018715297
0.6799999999999999,2.4079879354763762
0.72,2.419477032391389
0.76,2.4312522926879
0.7999999999999999,2.4432632161006134
0.84,2.4554590684532207
0.88,2.4677891185469165
0.9199999999999999,2.4802028615283938
0.96,2.4926502282167924
1.0,2.5050817801421035
1.04,2.517448890285054
1.0799999999999998,2.529703909709845
1.1199999999999999,2.541800320447395
1.1600000000000001,2.553692875119403
1.2,2.5653377238954853
1.24,2.576692529449553
1.28,2.587716570630829
1.3199999999999998,2.5983708355927324
1.3599999999999999,2.6086181051325483
1.4,2.61842302698946
1.44,2.627752181830875
1.48,2.636574141629705
1.52,2.644859521100721
1.5599999999999998,2.652581022823894
1.5999999999999999,2.6597134766388795
1.64,2.6662338738484674
1.68,2.6721213967212494
1.72,2.6773574437356773
1.76,2.681925650959815
1.7999999999999998,2.685811909913833
1.8399999999999999,2.6890043822160363
1.88,2.6914935112679306
1.92,2.693272031189903
1.9599999999999997,2.6943349731760313
2.0,2.6946796693947657
2.0399999999999996,2.6943057545210003
2.08,2.6932151649446947
2.12,2.6914121356611265
2.1599999999999997,2.6889031948079816
2.2,2.6856971557744584
2.2399999999999998,2.6818051067673636
2.28,2.6772403976782564
2.3200000000000003,2.6720186240542607
2.36,2.666157607932772
2.4,2.6596773752572096
2.44,2.6526001295468498
2.48,2.6449502214492147
2.5199999999999996,2.6367541137583634
2.56,2.6280403414374387
2.6,2.6188394661393066
2.6399999999999997,2.609184024676152
2.68,2.5991084708481718
2.7199999999999998,2.5886491100045195
2.76,2.577844025677737
2.8,2.56673299760803
2.84,2.555357410457642
2.88,2.5437601525111035
2.92,2.5319855036661845
2.96,2.5200790120464953
2.9999999999999996,2.5080873586121544
3.04,2.4960582092132273
3.08,2.4840400536243967
3.1199999999999997,2.472082031221509
3.16,2.4602337431131933
3.1999999999999997,2.4485450507259254
3.2399999999999998,2.4370658610588407
3.28,2.425845899075606
3.32,2.4149344679826634
3.36,2.4043801984530075
3.4,2.394230788187168
3.44,2.3845327335512
3.4799999999999995,2.375331055386098
3.52,2.366669021433115
3.5599999999999996,2.358587868152419
3.5999999999999996,2.3511265250142066
3.64,2.344321344597303
3.6799999999999997,2.33820584202537
3.7199999999999998,2.332810447391578
3.76,2.328162274856392
3.7999999999999994,2.3242849120406084
3.84,2.3211982331708905
3.88,2.318918239165927
3.9199999999999995,2.3174569274809427
3.96,2.3168221940645517
4.0,2.317017769237485
4.04,2.3180431886946673
4.079999999999999,2.319893800181151
4.12,2.3225608057213196
4.16,2.3260313386141145
4.199999999999999,2.3302885737684256
4.24,2.335311869364726
4.28,2.341076937311093
4.319999999999999,2.3475560395292447
4.36,2.354718206770725
4.4,2.3625294764304567
4.4399999999999995,2.3709531456963338
4.4799999999999995,2.3799500363456842
4.5200000000000005,2.3894787675649156
4.56,2.399496033317175
4.6,2.4099568810010585
4.640000000000001,2.420814988417313
4.68,2.432022936375078
4.72,2.4435324746100133
4.76,2.4552947790400514
4.8,2.467260698738367
4.84,2.479380991347089
4.88,2.4916065459808436
4.92,2.503888592970155
4.96,2.516178900066296
5.0,2.5284299549689324
5.039999999999999,2.540595134244453
5.08,2.552628858876479
5.12,2.5644867368317206
5.159999999999999,2.576125693136156
5.2,2.5875040880408546
5.24,2.59858182391646
5.279999999999999,2.6093204415534053
5.319999999999999,2.6196832065642996
5.36,2.6296351865885756
5.3999999999999995,2.6391433199901093
5.4399999999999995,2.6481764767185654
5.48,2.6567055119771044
5.52,2.6647033133045634
5.56,2.6721448416411833
5.6,2.679007166904604
5.64,2.6852694985586996
5.68,2.690913211612269
5.72,2.695921868439081
5.76,2.7002812367651
5.8,2.7039793041238718
5.84,2.707006289036884
5.879999999999999,2.7093546491326284
5.92,2.7110190863758956
5.96,2.711996549537755
5.999999999999999,2.7122862339963105
6.04,2.7118895789189255
6.08,2.7108102618376697
6.119999999999999,2.709054190591277
6.16,2.7066294925687657
6.2,2.7035465011518487
6.239999999999999,2.6998177392151503
6.279999999999999,2.6954578995051968
6.32,2.6904838216808145
6.359999999999999,2.6849144657592725
6.3999999999999995,2.6787708816741196
6.44,2.6720761746125437
6.4799999999999995,2.6648554657625425
6.52,2.6571358480634646
6.56,2.648946336518563
6.6,2.6403178125954163
6.64,2.631282962210603
6.68,2.6218762067700134
6.72,2.6121336267167115
6.76,2.602092877026176
6.8,2.5917930940855145
6.84,2.5812747934007985
6.88,2.570579757597277
6.92,2.559750914212608
6.959999999999999,2.5488322028361114
7.0,2.537868431219111
7.04,2.5269051200749857
7.08,2.5159883364042535
7.119999999999999,2.5051645153211575
7.16,2.494480270524621
7.199999999999999,2.4839821937481177
7.239999999999999,2.473716643738839
7.28,2.463729525554845
7.32,2.454066061225908
7.359999999999999,2.444770553095162
7.3999999999999995,2.4358861414383646
7.4399999999999995,2.4274545582376494
7.4799999999999995,2.4195158792589444
7.52,2.41210827683626
7.5600000000000005,2.4052677759915637
7.599999999999999,2.399028016704801
7.64,2.393420025284092
7.68,2.388471997861209
7.719999999999999,2.3842090990436344
7.76,2.3806532786852905
7.800000000000001,2.377823109589707
7.839999999999999,2.3757336487311513
7.88,2.3743963242739907
7.92,2.373818850294428
7.959999999999999,2.374005170671716
8.0,2.3749554331305247
8.040000000000001,2.3766659938980474
8.08,2.3791294529053024
8.12,2.382334718930246
8.159999999999998,2.386267103568383
8.2,2.390908442441201
8.24,2.3962372416290645
8.28,2.402228846955072
8.32,2.408855633458905
8.36,2.416087212190426
8.399999999999999,2.4238906513234264
8.44,2.4322307085394326
8.48,2.4410700716549627
8.52,2.450369604556338
8.56,2.460088595655109
8.6,2.470185006274068
8.639999999999999,2.4806157166077565
8.68,2.4913367671615725
8.72,2.5023035938492297
8.76,2.513471255209977
8.8,2.5247946504859837
8.84,2.5362287275695077
8.879999999999999,2.5477286800830083
8.92,2.5592501330890305
8.959999999999999,2.570749317137332
9.0,2.582183230542619
9.040000000000001,2.5935097899467072
9.079999999999998,2.6046879693541354
9.12,2.6156779279410136
9.16,2.6264411270248798
9.2,2.636940436650054
9.24,2.647140232290903
9.280000000000001,2.6570064822063038
9.32,2.666506825995019
9.36,2.6756106449055563
9.399999999999999,2.6842891244475386
9.44,2.6925153098364527
9.48,2.7002641547816877
9.52,2.707512564100311
9.559999999999999,2.714239430607659
9.6,2.7204256667012428
9.639999999999999,2.7260542310181037
9.68,2.731110150507848
9.72,2.735580538225156
9.76,2.7394546071068393
9.8,2.742723679959917
9.84,2.7453811958489562
9.879999999999999,2.7474227130333215
9.92,2.7488459085678683
9.959999999999999,2.7496505746444564
10.0,2.749838611715913
10.04,2.7494140184094746
10.079999999999998,2.7483828782023494
10.12,2.74675334279894
10.16,2.744535612116311
10.2,2.7417419107528023
10.24,2.7383864607834862
10.280000000000001,2.7344854506960785
10.319999999999999,2.7300570002519255
10.36,2.725121121029206
10.4,2.719699672379359
10.44,2.713816312504383
10.48,2.707496444341229
10.52,2.7007671559219313
10.559999999999999,2.693657154864204
10.6,2.6861966966382376
10.639999999999999,2.678417506252218
10.68,2.6703526930025907
10.72,2.6620366579465595
10.76,2.653504993774771
10.799999999999999,2.6447943767929276
10.84,2.635942450763326
10.879999999999999,2.6269877024121153
10.92,2.6179693284766334
10.96,2.6089270942500282
11.0,2.5999011836785804
11.04,2.5909320411802423
11.08,2.5820602054815924
11.12,2.573326135913041
11.16,2.5647700317580804
11.2,2.556431645419365
11.24,2.5483500903395666
11.28,2.5405636447951623
11.319999999999999,2.5331095528619607
11.36,2.5260238240276154
11.4,2.5193410330928976
11.44,2.5130941221543184
11.48,2.507314206589426
11.52,2.5020303870666942
11.559999999999999,2.4972695696684295
11.6,2.49305629624229
11.64,2.4894125870803343
11.68,2.486357797961255
11.72,2.4839084934793965
11.759999999999998,2.482078338424129
11.799999999999999,2.480878008766513
11.84,2.4803151235612155
11.879999999999999,2.4803941987857256
11.92,2.481116623823628
11.96,2.4824806609624677
11.999999999999998,2.484481467929281
12.04,2.48711114313851
12.08,2.4903587929875486
12.12,2.494210620214916
12.16,2.498650032043434
12.200000000000001,2.5036577665737587
12.239999999999998,2.5092120356781473
12.28,2.515288682474507
12.32,2.5218613513393326
12.36,2.5289016683452723
12.4,2.5363794299835787
12.44,2.5442627980509123
12.479999999999999,2.552518498639611
12.52,2.5611120232654794
12.559999999999999,2.570007830291634
12.6,2.5791695449547576
12.64,2.588560156464983
12.68,2.5981422108265146
12.719999999999999,2.60787799820732
12.76,2.617729733867793
12.799999999999999,2.627659731835497
12.84,2.6376305706828034
12.88,2.647605250922891
12.92,2.657547343685534
12.959999999999999,2.6674211304656916
12.999999999999998,2.6771917338541567
13.04,2.6868252392603704
13.08,2.696288807723083
13.12,2.705550779975081
13.16,2.7145807719849775
13.2,2.7233497622427763
13.239999999999998,2.7318301710876756
13.28,2.7399959323980547
13.32,2.7478225579752515
13.36,2.755287194956725
13.4,2.7623686765908637
13.44,2.7690475666966656
13.479999999999999,2.7753061981176668
13.52,2.781128705461506
13.559999999999999,2.7865010523957165
13.6,2.7914110537468173
13.64,2.795848392624807
13.68,2.799804632768656
13.719999999999999,2.8032732262814606
13.76,2.806249516896345
13.799999999999999,2.8087307388867973
13.84,2.810716011707874
13.88,2.8122063304281184
13.919999999999998,2.8132045519860163
13.959999999999999,2.81371537728004
14.0,2.8137453290773786
14.04,2.813302725704317
14.08,2.81239765046019
14.120000000000001,2.811041916678166
14.16,2.8092490283390155
14.2,2.8070341361296793
14.239999999999998,2.8044139888265525
14.28,2.8014068798745155
14.32,2.798032589027396
14.36,2.7943123189138075
14.399999999999999,2.790268626394739
14.44,2.7859253485866557
14.479999999999999,2.781307523435931
14.52,2.776441304748417
14.56,2.7713538716017285
14.6,2.7660733320981468
14.64,2.760628621452961
14.68,2.75504939445724
14.719999999999999,2.749365912405096
14.76,2.7436089246340725
14.799999999999999,2.7378095448926825
14.84,2.7319991228213576
14.879999999999999,2.726209110911434
14.919999999999998,2.720470927390481
14.959999999999999,2.714815815570207
15.0,2.709274700284022
15.04,2.703878042133363
15.079999999999998,2.698655690353317
15.120000000000001,2.6936367351965846
15.159999999999998,2.6888493608181863
15.199999999999998,2.684320699718922
15.24,2.6800766898709285
15.28,2.6761419357009717
15.319999999999999,2.6725395741441864
15.36,2.6692911470001652
15.399999999999999,2.666416480822949
15.439999999999998,2.6639335755548776
15.48,2.661858503070393
15.52,2.6602053167294164
15.559999999999999,2.6589859729510383
15.600000000000001,2.658210265707902
15.639999999999999,2.657885774711534
15.679999999999998,2.6580178279113573
15.72,2.6586094787681134
15.76,2.65966149858949
15.799999999999999,2.661172384035827
15.84,2.6631383797209778
15.879999999999999,2.6655535156521353
15.919999999999998,2.6684096590767656
15.96,2.6716965801390136
16.0,2.6754020305953334
16.04,2.679511834703238
16.080000000000002,2.6840099912801048
16.12,2.688878785833152
16.16,2.6940989115879304
16.200000000000003,2.699649598191551
16.24,2.705508746838222
16.279999999999998,2.711653070557461
16.319999999999997,2.7180582384183527
16.36,2.7246990224345606
16.4,2.7315494460021315
16.439999999999998,2.7385829327631632
16.48,2.7457724548604996
16.52,2.7530906796290546
16.56,2.7605101138558235
16.6,2.7680032448303495
16.64,2.7755426774985366
16.68,2.7831012671228255
16.72,2.7906522469394837
16.759999999999998,2.798169350387497
16.799999999999997,2.805626927562068
16.84,2.8130000556183186
16.88,2.8202646429166665
16.919999999999998,2.8273975267601967
16.96,2.8343765646260417
17.0,2.841180718837123
17.04,2.8477901346581427
17.080000000000002,2.854186211830287
17.12,2.860351669583394
17.16,2.8662706051828435
17.2,2.8719285460813078
17.24,2.8773124957538285
17.279999999999998,2.882410973298498
17.32,2.887214046885299
17.36,2.891713361132764
17.4,2.8959021584865954
17.44,2.899775294666885
17.48,2.9033292482416027
17.52,2.906562124373952
17.56,2.909473652780686
17.6,2.912065179927914
17.64,2.9143396554807484
17.68,2.916301613013864
17.72,2.917957144981958
17.759999999999998,2.9193138719428777
17.799999999999997,2.9203809060218573
17.84,2.92116880860364
17.88,2.921689542240478
17.919999999999998,2.9219564167683716
17.96,2.9219840296319917
18.0,2.921788200430767
18.04,2.9213858997147364
18.080000000000002,2.9207951720795777
18.12,2.920035053635579
18.159999999999997,2.91912548395545
18.2,2.9180872126411144
18.24,2.9169417006893807
18.279999999999998,2.9157110168810947
18.32,2.914417729467465
18.36,2.9130847934801913
18.4,2.911735434048839
18.44,2.910393026168164
18.48,2.909080971419492
18.52,2.9078225722126816
18.560000000000002,2.9066409041773626
18.6,2.905558687392792
18.64,2.9045981572037127
18.679999999999996,2.903780935422984
18.72,2.9031279027696186
18.759999999999998,2.9026590734310234
18.799999999999997,2.9023934726697256
18.84,2.9023490184158702
18.88,2.902542407796259
18.919999999999998,2.902989009547522
18.96,2.9037027632441568
19.0,2.9046960862416
19.04,2.9059797891892862
19.080000000000002,2.9075630009097226
19.119999999999997,2.909453103366916
19.159999999999997,2.9116556773623494
19.2,2.914174459500171
19.24,2.9170113108571205
19.279999999999998,2.9201661976789044
19.32,2.923637184305173
19.36,2.9274204384027858
19.4,2.9315102484635127
19.44,2.9358990534006635
19.48,2.940577483961454
19.52,2.945534415560569
19.560000000000002,2.950757032037348
19.6,2.9562308997460764
19.639999999999997,2.961940051307484
19.68,2.9678670782806704
19.72,2.973993231959217
19.759999999999998,2.9802985314533483
19.8,2.986761878191721
19.84,2.9933611759614442
19.88,3.000073455602467
19.919999999999998,3.0068750034816283
19.96,3.013741492891431
20.0,3.0206481175475064
20.04,3.027569726395358
20.08,3.0344809589801316
20.119999999999997,3.041356380681017
20.159999999999997,3.0481706171631417
20.2,3.0548984874532934
20.24,3.0615151350998566
20.279999999999998,3.067996156930979
20.32,3.0743177289773342
20.36,3.0804567291755904
20.4,3.086390856515495
20.44,3.092098746336369
20.48,3.097560081517579
20.52,3.102755699341614
20.560000000000002,3.1076676938375227
20.599999999999998,3.112279513436728
20.639999999999997,3.11657605379218
20.68,3.1205437456258007
20.72,3.1241706374780702
20.759999999999998,3.1274464732376748
20.8,3.1303627643284204
20.84,3.132912856425481
20.88,3.1350919905636583
20.92,3.136897358487088
20.96,3.1383281520728206
21.0,3.139385606640707
21.04,3.14007303793904
21.08,3.1403958725701444
21.119999999999997,3.1403616715929634
21.159999999999997,3.1399801470114306
21.2,3.13926317082828
21.24,3.1382247763152677
21.279999999999998,3.136881151122744
21.32,3.135250621825584
21.36,3.133353629479364
21.4,3.131212695741642
21.44,3.128852379099498
21.48,3.1262992207376006
21.52,3.1235816795821836
21.56,3.120730056067416
21.599999999999998,3.117776404192913
21.639999999999997,3.1147544314765834
21.68,3.1116993864569102
21.72,3.108647933464828
21.759999999999998,3.105638014468888
21.8,3.1027086978993985
21.84,3.09990001447838
21.88,3.097252780223118
21.92,3.0948084069508197
21.96,3.0926087007903345
22.0,3.090695649401643
22.04,3.089111198812652
22.08,3.087897021002385
22.119999999999997,3.087094273585359
22.16,3.0867433531788766
22.2,3.0868836442568837
22.24,3.0875532655044373
22.28,3.088788815878586
22.32,3.090625122747108
22.36,3.0930949946087596
22.4,3.0962289809909675
22.44,3.1000551421664966
22.48,3.1045988313252404
22.519999999999996,3.109882491776875
22.56,3.115925471643377
22.599999999999998,3.1227438583271003
22.639999999999997,3.130350334813117
22.68,3.138754059587674
22.72,3.147960571634897
22.759999999999998,3.1579717216191137
22.8,3.168785629980292
22.84,3.1803966722755788
22.88,3.1927954917022863
22.92,3.205969038347921
22.96,3.219900634341961
23.0,3.2345700637417614
23.04,3.249953685679774
23.08,3.2660245690379246
23.119999999999997,3.2827526467022614
23.16,3.3001048872900367
23.2,3.3180454821327343
23.24,3.336536045241478
23.28,3.3555358239730806
23.32,3.3750019181515656
23.36,3.394889505476262
23.400000000000002,3.4151520711576735
23.44,3.4357416398598883
23.479999999999997,3.4566090081868444
23.519999999999996,3.4777039761229274
23.56,3.498975576020422
23.599999999999998,3.520372297911415
23.639999999999997,3.541842310105391
23.68,3.563333674211779
23.72,3.5847945538957426
23.759999999999998,3.606173416833028
23.8,3.627419229473743
23.84,3.6484816443545554
23.88,3.669311179812776
23.92,3.68985939205472
23.96,3.7100790396139995
23.999999999999996,3.7299242403043653
24.04,3.7493506208263407
24.08,3.768315459228872
24.119999999999997,3.7867778204570017
24.16,3.804698685235558
24.2,3.822041072548011
24.24,3.8387701559700553
24.28,3.85485337411
24.32,3.8702605353938546
24.36,3.884963917412446
24.400000000000002,3.898938361022242
24.439999999999998,3.9121613593608857
24.479999999999997,3.9246131419035466
24.52,3.9362767536474887
24.56,3.9471381294698333
24.599999999999998,3.957186163657849
24.64,3.966412774562312
24.68,3.9748129642725942
24.72,3.9823848731574745
24.759999999999998,3.9891298290580113
24.8,3.9950523908586204
24.84,4.000160386099562
24.88,4.004464942228651
24.92,4.007980511022545
24.959999999999997,4.010724885638511
24.999999999999996,4.01271920968681
25.04,4.013987977642377
25.08,4.014559025843011
25.119999999999997,4.014463513251162
25.16,4.013735891088594
25.2,4.012413860389668
25.24,4.010538316461425
25.28,4.008153279189414
25.32,4.005305808090033
25.36,4.00204590098572
25.4,3.9984263751724045
25.439999999999998,3.994502729962231
25.479999999999997,3.9903329895231057
25.52,3.9859775250035914
25.56,3.981498855031326
25.599999999999998,3.9769614238090294
25.64,3.9724313562080984
25.68,3.9679761894780605
25.72,3.9636645814533105
25.76,3.9595659954468583
25.8,3.955750362374086
25.84,3.952287721044801
25.880000000000003,3.9492478379951677
25.919999999999998,3.946699808695359
25.959999999999997,3.9447116424549233
25.999999999999996,3.9433498338446573
26.04,3.942678923946932
26.08,3.942761055220755
26.119999999999997,3.943655524205529
26.16,3.9454183366706785
26.2,3.9481017701286567
26.24,3.951753948848824
26.28,3.9564184366240025
26.32,3.9621338525372676
26.36,3.9689335148451543
26.4,3.9768451178308903
26.439999999999998,3.9858904460885283
26.479999999999997,3.9960851301831855
26.52,4.007438447006157
26.56,4.019953167424119
26.599999999999998,4.0336254530313
26.64,4.0484448029774365
26.68,4.0643940509904635
26.72,4.081449411868969
26.76,4.099580575913217
26.8,4.118750849019629
26.84,4.138917335503872
26.88,4.160031160159346
26.919999999999998,4.182037725612781
26.959999999999997,4.204877000713853
27.0,4.228483835492806
27.04,4.252788298135422
27.08,4.277716029450997
27.119999999999997,4.303188610434918
27.16,4.329123938739607
27.2,4.355436610150464
27.24,4.382038301501211
27.28,4.4088381518399
27.32,4.435743139057316
27.36,4.462658449600438
27.4,4.48948783930229
27.439999999999998,4.516133983756271
27.479999999999997,4.542498817039621
27.52,4.568483857940939
27.56,4.5939905231664815
27.599999999999998,4.618920427286932
27.64,4.64317566943933
27.68,4.666659107018287
27.72,4.689274616777786
27.76,4.710927343921789
27.8,4.731523939891258
27.839999999999996,4.750972789660076
27.88,4.769184229435832
27.919999999999998,4.786070755727046
27.959999999999997,4.801547226789229
28.0,4.815531057501498
28.04,4.827942408756296
28.08,4.838704372470158
28.12,4.847743153345596
28.16,4.854988248536133
28.2,4.860372626390081
28.240000000000002,4.863832905476118
28.28,4.865309535127009
28.32,4.8647469787786015
28.359999999999996,4.862093901431246
