Frequency (Hz),Amplitude
0.0,4.552772931958856
0.01978021978021978,4.550533885286183
0.03956043956043956,4.543818949873136
0.05934065934065934,4.532634737413091
0.07912087912087912,4.516992260326247
0.0989010989010989,4.4969069211669614
0.11868131868131868,4.472398497815299
0.13846153846153844,4.443491124474044
0.15824175824175823,4.410213268499296
0.17802197802197803,4.37259770309933
0.1978021978021978,4.330681475943905
0.21758241758241756,4.284505873733744
0.23736263736263735,4.234116382788925
0.2571428571428572,4.179562645723954
0.2769230769230769,4.120898414288579
0.2967032967032967,4.058181498465486
0.31648351648351647,3.9914737119306585
0.3362637362637363,3.92084081399959
0.35604395604395606,3.8463524482033824
0.3758241758241758,3.768082077664654
0.3956043956043956,3.68610691747568
0.4153846153846154,3.6005078643219677
0.4351648351648351,3.5113694236478517
0.45494505494505494,3.418779634729676
0.4747252747252747,3.3228299941142625
0.4945054945054945,3.223615378003666
0.5142857142857143,3.121233964335697
0.5340659340659341,3.015787155541732
0.5538461538461538,2.907379503289175
0.5736263736263736,2.7961186369785467
0.5934065934065934,2.6821151984335505
0.6131868131868132,2.565482786203952
0.6329670329670329,2.446337914368162
0.6527472527472528,2.324799992958682
0.6725274725274726,2.2009913406159956
0.6923076923076923,2.0750372456269464
0.7120879120879121,1.9470661005850185
0.7318681318681318,1.8172096512054838
0.7516483516483516,1.685603426448165
0.7714285714285715,1.552387465185033
0.7912087912087912,1.4177075452911814
0.810989010989011,1.2817173005682283
0.8307692307692308,1.1445819877737053
0.8505494505494506,1.006485513919925
0.8703296703296702,0.8676444093567693
0.8901098901098901,0.7283380736374157
0.9098901098901099,0.5889821652960044
0.9296703296703297,0.4503373029179249
0.9494505494505494,0.3142580741940534
0.9692307692307692,0.18755413135424945
0.989010989010989,0.1109640149052769
1.0087912087912088,0.1739582217612862
1.0285714285714287,0.29825380317423644
1.0483516483516484,0.4337831023882962
1.0681318681318681,0.5722871553617968
1.087912087912088,0.7116499552792549
1.1076923076923075,0.8510388637488637
1.1274725274725275,0.9900122242546678
1.1472527472527472,1.1282793603886794
1.1670329670329669,1.2656181237643127
1.1868131868131868,1.4018414647999045
1.2065934065934065,1.536782173217729
1.2263736263736265,1.6702852726377664
1.2461538461538462,1.8022039712061135
1.2659340659340659,1.9323973972606325
1.2857142857142858,2.060729288979961
1.3054945054945055,2.1870672208852753
1.3252747252747252,2.3112821457362296
1.3450549450549452,2.43324812851316
1.3648351648351649,2.552842200956396
1.3846153846153846,2.669944293660351
1.4043956043956045,2.7844372190424185
1.4241758241758242,2.8962066881610213
1.443956043956044,3.0051413502389885
1.4637362637362636,3.111132847426866
1.4835164835164834,3.2140758796971167
1.5032967032967033,3.3138682763019833
1.523076923076923,3.41041107125695
1.542857142857143,3.503608581010994
1.5626373626373626,3.5933684829482995
1.5824175824175823,3.6796018937053243
1.6021978021978023,3.762223446528966
1.621978021978022,3.841151367076327
1.6417582417582417,3.916307547184636
1.6615384615384616,3.987617616235025
1.6813186813186813,4.055011009805595
1.7010989010989013,4.118421035363695
1.720879120879121,4.177784934789908
1.7406593406593405,4.23304394355932
1.7604395604395604,4.284143346432259
1.7802197802197801,4.331032529528176
1.7999999999999998,4.3736650286740435
1.8197802197802198,4.411998573933411
1.8395604395604395,4.445995130235056
1.8593406593406594,4.475620934030967
1.879120879120879,4.500846525923173
1.8989010989010988,4.521646779207676
1.9186813186813187,4.538000924291516
1.9384615384615385,4.549892568946497
1.9582417582417584,4.557309714369938
1.978021978021978,4.560244767029414
1.9978021978021978,4.5586945462746815
2.0175824175824175,4.552660287706378
2.0373626373626372,4.542147642296841
2.0571428571428574,4.527166671264783
2.076923076923077,4.507731836711384
2.096703296703297,4.483861988031629
2.1164835164835165,4.45558034412107
2.1362637362637362,4.422914471404779
2.1560439560439564,4.385896257722102
2.175824175824176,4.344561882108214
2.195604395604396,4.2989517805214605
2.215384615384615,4.249110607574041
2.2351648351648348,4.195087194333356
2.254945054945055,4.136934502272275
2.2747252747252746,4.074709573459088
2.2945054945054943,4.008473477092693
2.314285714285714,3.9382912525061817
2.3340659340659338,3.864231848783153
2.353846153846154,3.7863680611572597
2.3736263736263736,3.704776464398314
2.3934065934065933,3.6195373434298936
2.413186813186813,3.53073462147668
2.4329670329670328,3.4384557861100977
2.452747252747253,3.3427918136532115
2.4725274725274726,3.2438370925303524
2.4923076923076923,3.141689346316024
2.512087912087912,3.0364495574710966
2.5318681318681318,2.928221893080591
2.5516483516483515,2.8171136343704792
2.5714285714285716,2.7032351124486818
2.5912087912087913,2.5866996536936098
2.610989010989011,2.4676235396728035
2.6307692307692307,2.346125988692952
2.6505494505494505,2.222329169527832
2.6703296703296706,2.096358263345836
2.6901098901098903,1.9683415987862198
2.70989010989011,1.8384109001121314
2.7296703296703297,1.7067017143251975
2.7494505494505495,1.5733541297816562
2.769230769230769,1.4385139862971186
2.7890109890109893,1.3023349487778024
2.808791208791209,1.1649821747324542
2.8285714285714287,1.0266391045107666
2.8483516483516484,0.8875208346507587
2.8681318681318677,0.7479027073624787
2.887912087912088,0.6081885221143938
2.9076923076923076,0.46909990594939394
2.9274725274725273,0.3323313200745643
2.947252747252747,0.20372686898348633
2.9670329670329667,0.11627396254423987
2.986813186813187,0.16312997197796336
3.0065934065934066,0.2841489827797037
3.0263736263736263,0.41917386760287817
3.046153846153846,0.5578066979877645
3.0659340659340657,0.6975276176967704
3.085714285714286,0.8373877583966957
3.1054945054945056,0.9769013564743563
3.1252747252747253,1.1157575493249758
3.145054945054945,1.2537235676052445
3.1648351648351647,1.3906061055607033
3.184615384615385,1.526233891741891
3.2043956043956046,1.6604490764852096
3.2241758241758243,1.7931026745506844
3.243956043956044,1.9240520269336776
3.2637362637362637,2.053159334669874
3.2835164835164834,2.180290792612976
3.3032967032967036,2.305316074098836
3.3230769230769233,2.428108028524433
3.342857142857143,2.5485425121680376
3.3626373626373627,2.6664983045426096
3.3824175824175824,2.7818570807886904
3.4021978021978025,2.894503421346269
3.4219780219780223,3.0043248466630783
3.441758241758242,3.111211868760576
3.4615384615384617,3.2150580540753504
3.481318681318681,3.3157600936883767
3.501098901098901,3.4132178781829476
3.520879120879121,3.507334575137667
3.5406593406593405,3.5980167077885
3.5604395604395602,3.6851742337638527
3.58021978021978,3.768720623059793
3.5999999999999996,3.8485729346119126
3.61978021978022,3.9246518909597516
3.6395604395604395,3.996881950601891
3.659340659340659,4.065191377717739
3.679120879120879,4.129512308990504
3.6989010989010986,4.189780817311485
3.718681318681319,4.245936972181521
3.7384615384615385,4.297924896653492
3.758241758241758,4.345692820682828
3.7780219780219784,4.389193130771775
3.7978021978021976,4.428382415808641
3.8175824175824173,4.463221509016742
3.8373626373626375,4.493675525939171
3.8571428571428568,4.519713898395473
3.876923076923077,4.541310404355769
3.896703296703296,4.55844319368549
3.916483516483517,4.571094809721993
3.936263736263736,4.579252206651173
3.956043956043956,4.582906762658881
3.9758241758241755,4.582054288838719
3.9956043956043956,4.576695033843704
4.015384615384615,4.56683368427603
4.035164835164835,4.5524793608147505
4.054945054945055,4.533645610087936
4.0747252747252745,4.510350392301897
4.094505494505494,4.482616064646588
4.114285714285715,4.450469360503225
4.134065934065934,4.413941364487049
4.153846153846154,4.373067483365789
4.173626373626373,4.327887412902806
4.193406593406594,4.27844510068246
4.213186813186813,4.224788704985723
4.232967032967033,4.166970549795069
4.252747252747253,4.105047076021152
4.2725274725274724,4.039078789058736
4.292307692307692,3.9691302027981723
4.312087912087913,3.895269780240595
4.331868131868132,3.817569870892698
4.351648351648352,3.7361066451511418
4.371428571428571,3.6509600259302855
4.391208791208792,3.5622136178431583
4.410989010989011,3.4699546343187966
4.43076923076923,3.374273823136227
4.450549450549451,3.275265390985403
4.4703296703296695,3.173026927842391
4.49010989010989,3.067659332189401
4.50989010989011,2.9592667384507334
4.52967032967033,2.8479564484971642
4.549450549450549,2.7338388697650706
4.569230769230769,2.6170274635500017
4.589010989010989,2.497638708543396
4.608791208791209,2.375792086969174
4.628571428571428,2.2516101042203855
4.648351648351649,2.1252183585092905
4.6681318681318675,1.9967456861654223
4.687912087912088,1.8663244234595802
4.707692307692308,1.7340908521300171
4.7274725274725276,1.6001859428152247
4.747252747252747,1.4647565982262187
4.767032967032967,1.3279577691137932
4.786813186813187,1.189956169767637
4.806593406593407,1.0509371001833578
4.826373626373626,0.9111177468587227
4.846153846153847,0.770775251190143
4.8659340659340655,0.6303125240179532
4.885714285714286,0.4904365026045432
4.905494505494506,0.3527517348000917
4.9252747252747255,0.222460408474148
4.945054945054945,0.12652312961412077
4.964835164835165,0.1553860045295157
4.984615384615385,0.2718229921698042
5.004395604395604,0.4062785045242859
5.024175824175824,0.5452802797130735
5.043956043956045,0.6857064963486633
5.0637362637362635,0.8264329483843548
5.083516483516483,0.9669064563409233
5.103296703296703,1.106784870621243
5.123076923076923,1.245818738904951
5.142857142857143,1.3838048168396666
5.162637362637362,1.5205653310401468
5.182417582417583,1.655937817591183
5.2021978021978015,1.7897697764350071
5.221978021978022,1.9219157045340802
5.241758241758242,2.0522353836547196
5.2615384615384615,2.180592866528825
5.281318681318681,2.3068558696282246
5.301098901098901,2.4308954117771986
5.320879120879121,2.5525856061812418
5.340659340659341,2.6718035507533475
5.36043956043956,2.7884292827850174
5.380219780219781,2.902345776437034
5.3999999999999995,3.0134389690462138
5.41978021978022,3.121597806920465
5.43956043956044,3.226714304273666
5.4593406593406595,3.3286836108914897
5.479120879120879,3.427404085408238
5.498901098901099,3.522777371946757
5.518681318681319,3.614708478473612
5.538461538461538,3.7031058556415997
5.558241758241758,3.787881475189485
5.578021978021979,3.868950907183316
5.5978021978021975,3.946233395540213
5.617582417582418,4.019651931391365
5.637362637362637,4.089133323927625
5.6571428571428575,4.1546082684371015
5.676923076923077,4.216011411294781
5.696703296703297,4.273281411703883
5.716483516483517,4.326361000019934
5.736263736263735,4.375197032513805
5.756043956043956,4.419740542450545
5.775824175824176,4.459946787377803
5.795604395604395,4.495775292532293
5.815384615384615,4.5271898902848875
5.835164835164835,4.5541587555559095
5.854945054945055,4.57665443714182
5.874725274725275,4.594653884903077
5.894505494505494,4.608138472771078
5.914285714285715,4.617094017539486
5.934065934065933,4.621510793412291
5.953846153846154,4.621383542287719
5.973626373626374,4.616711479763724
5.993406593406593,4.607498296857256
6.013186813186813,4.593752157435739
6.032967032967033,4.575485691365976
6.052747252747253,4.55271598339198
6.072527472527473,4.525464557760075
6.092307692307692,4.49375735861675
6.112087912087913,4.457624726212
6.131868131868131,4.41710136894897
6.151648351648352,4.372226331329246
6.171428571428572,4.323042957852701
6.191208791208791,4.269598852941336
6.210989010989011,4.211945836968787
6.230769230769231,4.15013989849099
6.2505494505494505,4.0842411427901455
6.270329670329671,4.0143137368635715
6.29010989010989,3.940425851013293
6.309890109890111,3.8626495972213997
6.329670329670329,3.781060964533463
6.349450549450549,3.6957397517191737
6.36923076923077,3.6067694975400775
6.3890109890109885,3.514237409033196
6.408791208791209,3.4182342883242063
6.428571428571428,3.3188544586237567
6.4483516483516485,3.216195690251068
6.468131868131868,3.110359127790658
6.487912087912088,3.00144921985302
6.507692307692308,2.88957365342662
6.527472527472527,2.7748432955498417
6.547252747252747,2.657372146113759
6.567032967032967,2.537277307212478
6.5868131868131865,2.4146789768882275
6.606593406593407,2.2897004788696402
6.626373626373626,2.16246834582645
6.6461538461538465,2.033112483254958
6.665934065934065,1.9017664570733548
6.685714285714286,1.768567975420363
6.705494505494506,1.6336596839149244
6.725274725274725,1.4971904839419106
6.745054945054945,1.359317758719701
6.764835164835165,1.2202112507052179
6.7846153846153845,1.0800601174487539
6.804395604395605,0.9390865416406563
6.824175824175824,0.7975740670543346
6.8439560439560445,0.6559328574928747
6.863736263736263,0.5148720178011652
6.883516483516484,0.37595157118516564
6.903296703296704,0.24393427789314448
6.923076923076923,0.14120369685522952
6.942857142857143,0.15109406565243247
6.962637362637362,0.2611436908036154
6.9824175824175825,0.3948298096399296
7.002197802197802,0.534414446268681
7.021978021978022,0.6759001740522737
7.041758241758242,0.8179083662110939
7.061538461538461,0.9597883169444217
7.081318681318681,1.1011526805801406
7.101098901098901,1.2417279222907984
7.1208791208791204,1.3812964643882457
7.140659340659341,1.5196711744991538
7.16043956043956,1.6566829695511975
7.1802197802197805,1.7921743330482587
7.199999999999999,1.9259957295808734
7.21978021978022,2.058003537240105
7.23956043956044,2.188058820306604
7.259340659340659,2.3160265889415426
7.279120879120879,2.441775352234724
7.298901098901099,2.565176853805016
7.318681318681318,2.6861059241411533
7.338461538461539,2.8044404092930915
7.358241758241758,2.9200611503947314
7.3780219780219785,3.032851997468321
7.397802197802197,3.1426998465204226
7.417582417582418,3.249494692471774
7.437362637362638,3.3531296927572343
7.457142857142857,3.453501237952668
7.476923076923077,3.550509026812229
7.496703296703297,3.644056143804623
7.516483516483516,3.734049137728889
7.536263736263736,3.8203981003388723
7.556043956043957,3.9030167441556642
7.575824175824176,3.981822478829967
7.595604395604395,4.0567364855505135
7.615384615384615,4.127683789095382
7.635164835164835,4.194593327199108
7.654945054945055,4.257398016967053
7.674725274725275,4.316034818113575
7.694505494505494,4.370444792836623
7.7142857142857135,4.420573162169933
7.734065934065935,4.466369358677068
7.753846153846154,4.507787075370987
7.7736263736263735,4.5447843107587245
7.793406593406592,4.577323409924425
7.813186813186814,4.605371101576082
7.832967032967034,4.628898530991583
7.852747252747252,4.647881288809299
7.872527472527472,4.662299435616812
7.892307692307693,4.672137522299571
7.912087912087912,4.677384606118661
7.931868131868132,4.67803426249402
7.951648351648351,4.674084592476393
7.971428571428572,4.665538225898174
7.991208791208791,4.6524023201998626
8.010989010989011,4.634688554935875
8.03076923076923,4.612413121970202
8.05054945054945,4.585596711379503
8.07032967032967,4.554264493088779
8.09010989010989,4.518446094272502
8.10989010989011,4.4781755725625745
8.129670329670331,4.433491385113656
8.149450549450549,4.38443635358655
8.169230769230769,4.331057625121739
8.189010989010988,4.273406629388308
8.20879120879121,4.2115390318084795
8.22857142857143,4.145514683076066
8.248351648351647,4.07539756510836
8.268131868131867,4.001255733597471
8.287912087912087,3.9231612573591153
8.307692307692308,3.841190154717614
8.327472527472528,3.7554223272174467
8.347252747252746,3.665941491018098
8.367032967032966,3.5728351064159005
8.386813186813187,3.476194306051227
8.406593406593407,3.3761138225131804
8.426373626373627,3.2726919162623425
8.446153846153845,3.166030305078477
8.465934065934066,3.0562340966387556
8.485714285714286,2.943411726394992
8.505494505494505,2.8276749037251108
8.525274725274725,2.709138570508511
8.545054945054945,2.587920878014411
8.564835164835165,2.464143190616207
8.584615384615384,2.3379301288836287
8.604395604395604,2.209409670960843
8.624175824175826,2.078713341389014
8.643956043956043,1.9459765335207924
8.663736263736263,1.8113390407038115
8.683516483516483,1.6749459227595263
8.703296703296704,1.5369489287620588
8.723076923076924,1.3975088790181112
8.742857142857142,1.2567997783395233
8.762637362637362,1.1150162302235662
8.782417582417583,0.972387578059004
8.802197802197803,0.8292069346818185
8.821978021978023,0.6858968038548763
8.84175824175824,0.5431778882710695
8.86153846153846,0.4025888876902361
8.881318681318682,0.26856109453349697
8.901098901098901,0.1599345430010149
8.920879120879121,0.1505472532713282
8.940659340659339,0.25186221954923443
8.96043956043956,0.3844098097505968
8.98021978021978,0.5247700603340935
9.0,0.6676919581337919
9.01978021978022,0.8114363186663895
9.03956043956044,0.9552159872037648
9.05934065934066,1.0985810250023575
9.079120879120879,1.2412248134036654
9.098901098901099,1.3829102181258819
9.11868131868132,1.5234374163446307
9.138461538461538,1.6626284031614262
9.158241758241758,1.8003189405323685
9.178021978021977,1.9363541219528708
9.197802197802199,2.070585818293473
9.217582417582419,2.202871158954965
9.237362637362637,2.33307161017649
9.257142857142856,2.4610524116362553
9.276923076923078,2.5866822353252448
9.296703296703297,2.7098329862515356
9.316483516483517,2.8303796957968483
9.336263736263735,2.9482004767634136
9.356043956043957,3.0631765200978687
9.375824175824176,3.1751921200442847
9.395604395604396,3.2841347187637853
9.415384615384616,3.3898949642342338
9.435164835164835,3.492366777079022
9.454945054945055,3.5914474232101723
9.474725274725275,3.6870375900182957
9.494505494505495,3.779041464431924
9.514285714285714,3.8673668115855055
9.534065934065934,3.951925053134499
9.553846153846154,4.032631344472873
9.573626373626373,4.109404650268307
9.593406593406593,4.182167817849491
9.613186813186815,4.2508476480697315
9.632967032967032,4.315374963339925
9.652747252747252,4.375684672577186
9.672527472527472,4.431715832857049
9.692307692307693,4.483411707590582
9.712087912087913,4.5307198210743485
9.731868131868131,4.573592009283375
9.75164835164835,4.6119844667953185
9.771428571428572,4.645857789749708
9.791208791208792,4.675177014759303
9.810989010989012,4.699911653702392
9.83076923076923,4.7200357243351325
9.850549450549451,4.7355277766724395
9.87032967032967,4.746370915094692
9.89010989010989,4.75255281614546
9.90989010989011,4.754065741993231
9.92967032967033,4.750906549537499
9.94945054945055,4.743076695146851
9.96923076923077,4.730582235023734
9.989010989010989,4.713433821197981
10.008791208791209,4.691646693158274
10.028571428571428,4.66524066513846
10.048351648351648,4.634240109083448
10.068131868131868,4.598673933327816
10.08791208791209,4.558575557029212
10.107692307692307,4.513982880408628
10.127472527472527,4.464938250860488
10.147252747252747,4.411488425007771
10.167032967032966,4.353684526791744
10.186813186813188,4.291582001702257
10.206593406593406,4.225240567274138
10.226373626373626,4.15472415999881
10.246153846153845,4.080100878828891
10.265934065934067,4.001442925489228
10.285714285714286,3.918826541852461
10.305494505494504,3.8323319446940114
10.325274725274724,3.7420432582148897
10.345054945054946,3.6480484448162827
10.364835164835165,3.5504392347363627
10.384615384615385,3.4493110553290895
10.404395604395603,3.3447629609936462
10.424175824175824,3.2368975650778746
10.443956043956044,3.1258209755156097
10.463736263736264,3.0116427365737577
10.483516483516484,2.8944757799653034
10.503296703296703,2.7744363898630984
10.523076923076923,2.651644188237906
10.542857142857143,2.526222149784627
10.562637362637362,2.398296660058153
10.582417582417584,2.267997637273057
10.602197802197802,2.1354587491940644
10.621978021978022,2.000817774646231
10.641758241758241,1.8642171899415712
10.661538461538463,1.725805114615414
10.681318681318682,1.5857368497058466
10.7010989010989,1.4441774305598953
10.72087912087912,1.3013059955726642
