Frequency (Hz),Amplitude
0.0,2.258865191953718
0.019823788546255508,2.2582059614836862
0.039647577092511016,2.256229687365545
0.059471365638766524,2.2529406238389464
0.07929515418502203,2.24834586919843
0.09911894273127755,2.242455377690166
0.11894273127753305,2.235281976274332
0.13876651982378857,2.2268413863567114
0.15859030837004406,2.2171522506177754
0.17841409691629956,2.2062361650879296
0.1982378854625551,2.1941177166322547
0.2180616740088106,2.180824526016375
0.2378854625550661,2.1663872967212536
0.25770925110132165,2.1508398696620477
0.27753303964757714,2.1342192839343923
0.29735682819383263,2.1165658436620274
0.31718061674008813,2.097923190944289
0.3370044052863437,2.0783383847957437
0.3568281938325991,2.057861985825643
0.37665198237885467,2.0365481462131516
0.3964757709251102,2.014454704285644
0.41629955947136565,1.9916432826894006
0.4361233480176212,1.9681793887431107
0.4559471365638767,1.9441325150683675
0.4757709251101322,1.919576237985197
0.49559471365638774,1.8945883104266437
0.5154185022026433,1.8692507452529201
0.5352422907488987,1.843649883820263
0.5550660792951543,1.8178764434772807
0.5748898678414097,1.7920255363267379
0.5947136563876653,1.766196650119772
0.6145374449339208,1.7404935805817356
0.6343612334801763,1.7150243028658243
0.6541850220264318,1.689900768292035
0.6740088105726874,1.665238611192491
0.6938325991189428,1.6411567497356736
0.7136563876651982,1.6177768642780446
0.7334801762114539,1.5952227373687373
0.7533039647577093,1.573619441327485
0.7731277533039648,1.5530923626384394
0.7929515418502204,1.5337660575353396
0.8127753303964759,1.5157629402757877
0.8325991189427313,1.499201814728353
0.8524229074889869,1.4841962707975744
0.8722466960352424,1.470852979348488
0.8920704845814978,1.4592699317873512
0.9118942731277534,1.4495346821056951
0.931718061674009,1.4417226585751541
0.9515418502202644,1.4358956179036608
0.9713656387665199,1.4321003152297607
0.9911894273127755,1.4303674579792738
1.0110132158590308,1.4307110001591732
1.0308370044052866,1.4331278167501411
1.0506607929515421,1.4375977769222297
1.0704845814977975,1.4440842119086907
1.090308370044053,1.4525347509181836
1.1101321585903086,1.462882478761813
1.1299559471365639,1.4750473537943547
1.1497797356828194,1.4889378154805515
1.1696035242290752,1.5044525077332809
1.1894273127753305,1.5214820466840413
1.209251101321586,1.5399107686901399
1.2290748898678416,1.559618404758111
1.248898678414097,1.5804816396802994
1.2687224669603525,1.6023755266787696
1.288546255506608,1.625174740134136
1.3083700440528636,1.6487546592913578
1.3281938325991192,1.6729922842579206
1.3480176211453747,1.697766992008228
1.36784140969163,1.7229611445646806
1.3876651982378856,1.7484605642648023
1.4074889867841411,1.7741548923423784
1.4273127753303965,1.7999378472683352
1.4471365638766522,1.825707398715938
1.4669603524229078,1.851365871899793
1.4867841409691631,1.876819995608148
1.5066079295154187,1.901980905669255
1.5264317180616742,1.9267641139914156
1.5462555066079295,1.9510894517746709
1.5660792951541853,1.9748809940656598
1.5859030837004409,1.9980669715441548
1.6057268722466962,2.020579674302663
1.6255506607929517,2.0423553514097765
1.6453744493392073,2.063334109224959
1.6651982378854626,2.083459810745544
1.6850220264317182,2.102679977701333
1.7048458149779737,2.1209456966519866
1.7246696035242293,2.138211529974007
1.7444933920704848,2.1544354323319257
1.7643171806167404,2.169578673001354
1.7841409691629957,2.1836057642373397
1.8039647577092512,2.1964843957513227
1.8237885462555068,2.2081853752655043
1.8436123348017623,2.2186825750473145
1.863436123348018,2.2279528842840377
1.8832599118942732,2.2359761671327387
1.9030837004405288,2.2427352262704456
1.9229074889867843,2.2482157717704907
1.9427312775330399,2.2524063951404436
1.9625550660792954,2.255298548373488
1.982378854625551,2.2568865278856185
2.002202643171806,2.2571674632367795
2.0220264317180616,2.2561413105597268
2.041850220264317,2.253810850650574
2.061674008810573,2.250181691702921
2.0814977973568287,2.2452622766971695
2.1013215859030843,2.239063895484823
2.1211453744493394,2.231600701633491
2.140969162995595,2.222889734122583
2.1607929515418505,2.2129509439991115
2.180616740088106,2.201807226118218
2.2004405286343616,2.1894844561012756
2.220264317180617,2.176011532643848
2.2400881057268722,2.1614204252949842
2.2599118942731278,2.1457462278037207
2.2797356828193833,2.1290272170866715
2.299559471365639,2.111304917805935
2.319383259911895,2.092624172455485
2.3392070484581504,2.0730332167300074
2.3590308370044055,2.0525837597848895
2.378854625550661,2.0313310687823205
2.3986784140969166,2.009334056845345
2.418502202643172,1.986655373198543
2.4383259911894277,1.963361493848826
2.4581497797356833,1.9395228106388638
2.4779735682819384,1.9152137158767388
2.497797356828194,1.8905126789951217
2.5176211453744495,1.865502310812186
2.537444933920705,1.840269409947806
2.5572687224669606,1.8149049847938565
2.577092511013216,1.789504243158074
2.5969162995594717,1.764166540323358
2.6167400881057272,1.7389952748371016
2.6365638766519828,1.714097719941506
2.6563876651982383,1.6895847772844284
2.676211453744494,1.6655706385567255
2.6960352422907494,1.6421723401747543
2.715859030837005,1.6195091962934969
2.73568281938326,1.5977020965588191
2.7555066079295156,1.5768726573620335
2.775330396475771,1.557142219205921
2.7951541850220267,1.538630688333259
2.8149779735682823,1.5214552280915588
2.834801762114538,1.505728814522077
2.854625550660793,1.4915586810391632
2.874449339207049,1.47904468819442
2.8942731277533045,1.4682776654997705
2.91409691629956,1.4593377819640074
2.9339207048458156,1.4522930090978434
2.953744493392071,1.4471977434105132
2.9735682819383262,1.4440916538605266
2.993392070484582,1.442998812800055
3.0132158590308373,1.4439271567753367
3.033039647577093,1.4468683069326909
3.0528634361233484,1.451797759199872
3.072687224669604,1.4586754337954926
3.092511013215859,1.4674465540570758
3.1123348017621146,1.4780428079968975
3.1321585903083706,1.4903837338621415
3.151982378854626,1.5043782641043184
3.1718061674008817,1.5199263606562425
3.1916299559471373,1.536920677735989
3.2114537444933924,1.555248195543761
3.231277533039648,1.5747917779378349
3.2511013215859035,1.5954316181838748
3.270925110132159,1.6170465480207048
3.2907488986784146,1.6395151956732814
3.31057268722467,1.6627169874609147
3.3303964757709252,1.686532994967952
3.350220264317181,1.7108466352770497
3.3700440528634363,1.7355442356005466
3.389867841409692,1.7605154759873647
3.4096916299559474,1.785653724892077
3.4295154185022034,1.8108562825477645
3.4493392070484585,1.8360245465442444
3.469162995594714,1.861064113009902
3.4889867841409696,1.885884825514178
3.508810572687225,1.9104007823968912
3.5286343612334807,1.9345303117966917
3.5484581497797363,1.9581959222684893
3.5682819383259914,1.9813242355961194
3.588105726872247,2.0038459072487647
3.6079295154185025,2.0256955389086606
3.627753303964758,2.0468115866146896
3.6475770925110136,2.067136267314914
3.667400881057269,2.086615465991248
3.6872246696035247,2.1051986449976616
3.7070484581497802,2.1228387568278326
3.726872246696036,2.139492161184117
3.7466960352422913,2.155118546946836
3.7665198237885464,2.1696808594278196
3.7863436123348024,2.1831452331271697
3.8061674008810575,2.1954809300870686
3.8259911894273135,2.2066602838443847
3.8458149779735686,2.2166586489189806
3.8656387665198246,2.2254543557306006
3.8854625550660797,2.233028670811285
3.905286343612335,2.239365762166812
3.925110132158591,2.2444526696389944
3.9449339207048464,2.248279280126208
3.964757709251102,2.2508383075321334
3.9845814977973575,2.2521252773291303
4.004405286343612,2.2521385156429896
4.024229074889869,2.2508791427881776
4.044052863436123,2.248351071205522
4.06387665198238,2.2445610077784632
4.083700440528634,2.2395184605265426
4.103524229074891,2.233235749696573
4.123348017621146,2.2257280232908063
4.143171806167401,2.2170132770873248
4.162995594713657,2.207112379218684
4.182819383259912,2.1960490993801423
4.2026431718061685,2.183850142735979
4.222466960352423,2.1705451885801628
4.242290748898679,2.156166933783092
4.262114537444934,2.1407511410162345
4.28193832599119,2.1243366916886917
4.301762114537445,2.1069656434480155
4.321585903083701,2.0886832919886764
4.3414096916299565,2.0695382367691457
4.361233480176212,2.049582450055041
4.381057268722468,2.028871348474639
4.400881057268723,2.0074638659855086
4.420704845814979,1.9854225267969752
4.440528634361234,1.9628135163642095
4.46035242290749,1.939706748054777
4.4801762114537445,1.916175922479637
4.500000000000001,1.8922985757694173
4.5198237885462555,1.868156112260508
4.539647577092512,1.843833816133913
4.559471365638767,1.8194208355334385
4.579295154185023,1.7950101315974993
4.599118942731278,1.7706983837071626
4.618942731277533,1.746585841135119
4.63876651982379,1.7227761102557804
4.658590308370044,1.699375865650158
4.678414096916301,1.6764944729473337
4.6982378854625555,1.6542435112531715
4.718061674008811,1.6327361837170657
4.737885462555067,1.6120866063846166
4.757709251101322,1.5924089681801805
4.777533039647578,1.5738165588257869
4.797356828193833,1.556420666832377
4.817180616740089,1.5403293563821738
4.837004405286344,1.5256461397866286
4.856828193832599,1.5124685708876802
4.876651982378855,1.50088679369344
4.896475770925111,1.4909820889243823
4.9162995594713665,1.4828254680692492
4.936123348017622,1.47647636904028
4.955947136563877,1.4719815086945733
4.975770925110133,1.469373944719686
4.995594713656388,1.4686723924269707
5.015418502202644,1.4698808311089988
5.035242290748899,1.4729884205672883
5.055066079295155,1.4779697324174659
5.07488986784141,1.4847852843316065
5.094713656387666,1.493382350049719
5.114537444933921,1.5036960051864638
5.134361233480177,1.5156503596129618
5.154185022026432,1.5291599220600598
5.174008810572688,1.5441310415994953
5.193832599118943,1.5604633733899962
5.213656387665199,1.5780513217641676
5.2334801762114544,1.5967854214404142
5.25330396475771,1.616553626403023
5.2731277533039655,1.6372424849307827
5.292951541850221,1.6587381876716971
5.312775330396477,1.680927483071664
5.332599118942731,1.7036984605907495
5.352422907488988,1.7269412068831471
5.372246696035242,1.750548343519677
5.392070484581499,1.7744154570274218
5.4118942731277535,1.79844143320084
5.43171806167401,1.8225287080067065
5.451541850220265,1.846583447165599
5.47136563876652,1.8705156658269966
5.491189427312777,1.89423929881664
5.511013215859031,1.917672230848251
5.530837004405288,1.940736294949764
5.550660792951542,1.963357246224999
5.570484581497798,1.9854647170012563
5.5903083700440535,2.006992158429158
5.610132158590309,2.0278767727186544
5.6299559471365646,2.0480594394196032
5.64977973568282,2.0674846384849803
5.669603524229076,2.086100372284267
5.689427312775331,2.103858088255044
5.709251101321586,2.1207126034830037
5.729074889867842,2.136622032174602
5.748898678414098,2.151547716722334
5.768722466960353,2.1654541628514257
5.788546255506609,2.1783089791702612
5.808370044052864,2.1900828213175343
5.82819383259912,2.2007493408010546
5.848017621145375,2.210285138549979
5.867841409691631,2.21866972315054
5.887665198237886,2.2258854736992904
5.907488986784142,2.2319176071865052
5.927312775330397,2.2367541503104547
5.9471365638766525,2.2403859156203136
5.966960352422908,2.242806481888398
5.986784140969164,2.2440121786205567
6.00660792951542,2.24400207462426
6.026431718061675,2.242777970567503
6.04625550660793,2.2403443954756206
6.066079295154186,2.2367086071276296
6.085903083700441,2.2318805963269965
6.105726872246697,2.225873095033346
6.125550660792952,2.2187015883504104
6.145374449339208,2.2103843303701867
6.1651982378854635,2.200942363873023
6.185022026431718,2.190399543876274
6.204845814977975,2.178782565008706
6.224669603524229,2.1661209926626976
6.244493392070486,2.1524472978376963
6.264317180616741,2.1377968955357036
6.284140969162996,2.1222081864970486
6.303964757709252,2.1057226019720328
6.323788546255507,2.088384651103083
6.3436123348017635,2.070241970341951
6.363436123348018,2.051345374139039
6.3832599118942746,2.031748905912866
6.403083700440529,2.0115098880309334
6.422907488986785,1.9906889692012397
6.44273127753304,1.9693501672825335
6.462555066079296,1.9475609050635767
6.482378854625551,1.9253920360349674
6.502202643171807,1.9029178565795608
6.5220264317180625,1.8802161003410667
6.541850220264318,1.8573679098037135
6.561674008810574,1.8344577793430976
6.581497797356829,1.811573463215116
6.601321585903085,1.78880584117248
6.62114537444934,1.7662487336889934
6.640969162995596,1.7439986581992992
6.6607929515418505,1.7221545174132369
6.680616740088107,1.7008172107442907
6.700440528634362,1.680089160323564
6.720264317180618,1.6600737440826827
6.740088105726873,1.640874630114256
6.759911894273129,1.6225950090694163
6.779735682819384,1.6053367248087194
6.799559471365639,1.5891993079021847
6.819383259911895,1.5742789218084199
6.83920704845815,1.5606672374710475
6.859030837004407,1.5484502583461632
6.8788546255506615,1.5377071240807794
6.898678414096917,1.5285089266520928
6.918502202643173,1.5209175771357653
6.938325991189428,1.514984763784198
6.958149779735684,1.5107510422328785
6.977973568281939,1.5082450960650722
6.997797356828195,1.5074832005578316
7.01762114537445,1.508468914424668
7.037444933920705,1.5111930142924994
7.0572687224669615,1.5156336753008626
7.077092511013216,1.5217568895590932
7.096916299559473,1.529517103251673
7.116740088105728,1.538858043858531
7.136563876651983,1.5497137019585427
7.156387665198239,1.5620094278170846
7.176211453744494,1.5756631015164024
7.19603524229075,1.5905863365629318
7.215859030837005,1.606685680265638
7.235682819383261,1.6238637791478359
7.255506607929516,1.642020483604243
7.275330396475772,1.6610538723481092
7.295154185022027,1.6808611834022675
7.314977973568283,1.7013396440843345
7.334801762114538,1.7223871973649862
7.354625550660794,1.7439031260052138
7.374449339207049,1.7657885789742833
7.394273127753305,1.787947006858956
7.4140969162995605,1.8102845143961577
7.433920704845816,1.832710139016668
7.453744493392072,1.8551360645130235
7.473568281938327,1.8774777787677488
7.493392070484583,1.8996541840154249
7.513215859030838,1.9215876674621117
7.533039647577093,1.9432041393304285
7.552863436123348,1.9644330445972558
7.572687224669605,1.985207353892052
7.59251101321586,2.0054635382583905
7.612334801762115,2.025141531768483
7.6321585903083715,2.044184685334452
7.651982378854627,2.062539714484732
7.671806167400882,2.0801566433701124
7.691629955947137,2.0969887468285124
7.711453744493394,2.1129924919672023
7.731277533039649,2.128127480408687
7.751101321585904,2.1423563920858237
7.7709251101321595,2.155644931257702
7.790748898678416,2.1679617752427367
7.81057268722467,2.179278526224778
7.830396475770926,2.1895696663756707
7.850220264317182,2.1988125164509027
7.870044052863436,2.206987197946182
7.889867841409693,2.214076598853127
7.909691629955948,2.2200663430143215
7.929515418502204,2.2249447630518344
7.9493392070484585,2.228702876826274
7.969162995594715,2.2313343673722232
7.9889867841409705,2.232835566250889
8.008810572687224,2.233205440259186
8.02863436123348,2.2324455814348974
8.048458149779737,2.2305602003003737
8.068281938325994,2.2275561222892195
8.088105726872246,2.2234427873025675
8.107929515418503,2.218232252341637
8.12775330396476,2.2119391971607043
8.147577092511014,2.204580932878318
8.167400881057269,2.1961774134735603
8.187224669603525,2.1867512500762114
8.207048458149782,2.176327727935455
8.226872246696036,2.16493482591627
8.246696035242293,2.1526032383282203
8.266519823788547,2.1393663988317844
8.286343612334802,2.125260506093669
8.306167400881058,2.1103245507696777
8.325991189427315,2.0946003432805806
8.345814977973568,2.078132541708537
8.365638766519824,2.060968678976956
8.38546255506608,2.0431591882805975
8.405286343612337,2.024757425503645
8.42511013215859,2.005819687096418
8.444933920704846,1.9864052215758854
8.464757709251103,1.966576232469159
8.484581497797357,1.9463978701328783
8.504405286343614,1.925938209457333
8.524229074889869,1.9052682100098886
8.544052863436125,1.884461654694446
8.56387665198238,1.8635950625215125
8.583700440528636,1.8427475706152896
8.60352422907489,1.8220007801619613
8.623348017621145,1.8014385606642833
8.643171806167402,1.7811468066586527
8.662995594713658,1.7612131410303875
8.682819383259913,1.7417265592937887
8.702643171806168,1.7227770097573503
8.722466960352424,1.7044549054412894
8.74229074889868,1.6868505650198995
8.762114537444935,1.670053581975452
8.78193832599119,1.654152123597706
8.801762114537446,1.6392321644299426
8.821585903083701,1.6253766621854693
8.841409691629957,1.6126646879110513
8.861233480176212,1.601170526068558
8.881057268722468,1.5909627639852713
8.900881057268723,1.582103393482603
8.92070484581498,1.5746469500954596
8.940528634361234,1.5686397168093367
8.960352422907489,1.5641190193825383
8.980176211453745,1.561112638893631
9.000000000000002,1.5596383640883347
9.019823788546258,1.5597037014869592
9.039647577092511,1.5613057553006717
9.059471365638768,1.5644312823871092
9.079295154185024,1.5690569202535902
9.099118942731279,1.5751495790377463
9.118942731277533,1.5826669819919488
9.13876651982379,1.5915583337232955
9.158590308370046,1.6017650916179498
9.1784140969163,1.6132218136766197
9.198237885462555,1.6258570554109188
9.218061674008812,1.6395942893620663
9.237885462555067,1.6543528229540014
9.257709251101323,1.670048693466421
9.27753303964758,1.686595522569316
9.297356828193834,1.7039053167723457
9.317180616740089,1.7218892040261162
9.337004405286345,1.7404581003443527
9.356828193832602,1.7595233035387474
9.376651982378855,1.778997013879206
9.396475770925111,1.7987927836744984
9.416299559471367,1.818825899420299
9.436123348017622,1.8390137013228904
9.455947136563877,1.8592758457382985
9.475770925110133,1.8795345164371957
9.49559471365639,1.8997145906891835
9.515418502202644,1.9197437660235979
9.5352422907489,1.939552653229655
9.555066079295155,1.959074840759413
9.57488986784141,1.978246935235307
9.594713656387666,1.9970085822745063
9.614537444933923,2.0153024713496084
9.634361233480178,2.0330743279289765
9.654185022026432,2.050272895691416
9.674008810572689,2.066849911197594
9.693832599118945,2.082760073028053
9.713656387665198,2.0979610070662194
9.733480176211454,2.1124132293142672
9.75330396475771,2.1260801073771107
9.773127753303967,2.138927821533641
9.792951541850222,2.1509253261301806
9.812775330396477,2.162044311876388
9.832599118942733,2.1722591694945903
9.852422907488988,2.18154695506674
9.872246696035244,2.1898873573358495
9.892070484581499,2.1972626671475024
9.911894273127754,2.203657749160189
9.93171806167401,2.2090600159076477
9.951541850220266,2.213459404260604
9.971365638766521,2.2168483543072517
9.991189427312776,2.219221790649879
10.011013215859032,2.2205771060981725
10.030837004405289,2.2209141477260057
10.050660792951543,2.2202352052475263
10.070484581497798,2.218545001658343
10.090308370044054,2.2158506860784297
10.11013215859031,2.2121618287229246
10.129955947136565,2.2074904179159827
10.14977973568282,2.201850859048229
10.169603524229077,2.1952599753617026
10.189427312775331,2.187737010424013
10.209251101321588,2.1793036321266355
10.229074889867842,2.1699839380087336
10.248898678414099,2.159804461666617
10.268722466960353,2.148794179958687
10.28854625550661,2.1369845206554223
10.308370044052865,2.1244093701114037
10.32819383259912,2.111105080451039
10.348017621145376,2.09711047565914
10.367841409691632,2.0824668558510866
10.387665198237887,2.067217998863121
10.407488986784141,2.051410158150392
10.427312775330398,2.035092055808231
10.447136563876654,2.0183148693401436
10.466960352422909,2.001132210585367
10.486784140969164,1.983600094990552
10.50660792951542,1.9657768991682432
10.526431718061675,1.9477233044336173
10.546255506607931,1.929502223758067
10.566079295154186,1.9111787093336994
10.585903083700442,1.8928198377194794
10.605726872246697,1.8744945693548887
10.625550660792953,1.8562735791007994
10.645374449339208,1.8382290544239521
10.665198237885463,1.8204344579092402
10.685022026431719,1.8029642509938104
