Time (s),Filtered Signal
0.0,-0.0053803437961184334
0.033370165745856356,0.13059002784486182
0.06674033149171271,0.21698831936045468
0.10011049723756907,0.2189696399879551
0.13348066298342542,0.12500786999968547
0.16685082872928178,-0.052516108957937076
0.20022099447513814,-0.28414357959798586
0.2335911602209945,-0.53360112189543
0.26696132596685085,-0.7667798173618636
0.30033149171270723,-0.9566382894035688
0.33370165745856356,-1.0843382172811062
0.3670718232044199,-1.138952955437511
0.4004419889502763,-1.1177823470736008
0.43381215469613266,-1.0272996134287642
0.467182320441989,-0.882953499366456
0.5005524861878453,-0.7060375421933602
0.5339226519337017,-0.5177099044943205
0.5672928176795581,-0.3326288813410956
0.6006629834254145,-0.15575193077399396
0.6340331491712707,0.01539157449647475
0.6674033149171271,0.18374442472014987
0.7007734806629835,0.34507221634645197
0.7341436464088398,0.4847912471958493
0.7675138121546962,0.5824399669359636
0.8008839779005525,0.6224892885776045
0.8342541436464089,0.6057338962850444
0.8676243093922653,0.5539775103462767
0.9009944751381216,0.5035677179589922
0.934364640883978,0.4893709052172693
0.9677348066298344,0.5266708803811637
1.0011049723756906,0.6006865652709008
1.0344751381215471,0.670371824293704
1.0678453038674034,0.6862661825453308
1.1012154696132597,0.6149122994592982
1.1345856353591162,0.45841409219445955
1.1679558011049724,0.25909066077130244
1.201325966850829,0.0854305744068643
1.2346961325966852,0.00404371403399101
1.2680662983425415,0.04930775541884167
1.301436464088398,0.20453578541693904
1.3348066298342542,0.4042605226847017
1.3681767955801105,0.5580483264393026
1.401546961325967,0.5862012457422102
1.4349171270718233,0.4517570208550648
1.4682872928176796,0.17461100273392116
1.501657458563536,-0.178085640538143
1.5350276243093923,-0.5199900555222143
1.5683977900552488,-0.7786207737186891
1.601767955801105,-0.9186951801428686
1.6351381215469614,-0.9470449988283312
1.6685082872928179,-0.8999974918364965
1.7018784530386741,-0.8219969509202757
1.7352486187845306,-0.7465732501885671
1.768618784530387,-0.6872255629225457
1.8019889502762432,-0.6393450735842002
1.8353591160220997,-0.5889595590593409
1.868729281767956,-0.5223479131491231
1.9020994475138122,-0.4322876559140665
1.9354696132596687,-0.3198021119959003
1.968839779005525,-0.1925858109854654
2.0022099447513813,-0.061907195655925555
2.0355801104972375,0.060748117045160706
2.0689502762430942,0.16664605412374092
2.1023204419889505,0.25183941292770784
2.135690607734807,0.31754636884091325
2.169060773480663,0.36831790619586663
2.2024309392265193,0.4083018164377131
2.235801104972376,0.4371757134479056
2.2691712707182323,0.4481915714104029
2.3025414364640886,0.4304064035048414
2.335911602209945,0.3752672623521906
2.369281767955801,0.284943665769647
2.402651933701658,0.17769444357485775
2.436022099447514,0.08574261582309739
2.4693922651933704,0.04422933940472487
2.5027624309392267,0.07474866978888212
2.536132596685083,0.17121551071430816
2.5695027624309392,0.29665688002845303
2.602872928176796,0.39559305208775997
2.636243093922652,0.41912564381423495
2.6696132596685085,0.3521413794179391
2.7029834254143648,0.22844839061768438
2.736353591160221,0.12303191925652178
2.7697237569060777,0.12052769453815348
2.803093922651934,0.271389290933455
2.8364640883977903,0.5558804463074001
2.8698342541436466,0.8756623085923877
2.903204419889503,1.0820556675839141
2.936574585635359,1.0330940148235943
2.969944751381216,0.6562662196814546
3.003314917127072,-0.011472105067870044
3.0366850828729284,-0.8264502642784316
3.0700552486187846,-1.5848987683742501
3.103425414364641,-2.0941979547783847
3.1367955801104976,-2.238264505393854
3.170165745856354,-2.0102944437129953
3.20353591160221,-1.5025188824206737
3.2369060773480665,-0.8626475492935678
3.2702762430939227,-0.239725762570207
3.3036464088397794,0.2575744739838739
3.3370165745856357,0.5778178662072475
3.370386740331492,0.7204362867440562
3.4037569060773483,0.7171948885645723
3.4371270718232045,0.6136607288329663
3.4704972375690613,0.4573485433690548
3.5038674033149175,0.2922190748077002
3.537237569060774,0.155341683533753
3.57060773480663,0.07234681784419737
3.6039779005524863,0.0519909825976289
3.6373480662983426,0.08337451578822377
3.6707182320441993,0.13951535010289937
3.7040883977900556,0.18784263083789587
3.737458563535912,0.20379883246227742
3.770828729281768,0.18109164325658408
3.8041988950276244,0.13317087988638274
3.837569060773481,0.08491318270769178
3.8709392265193374,0.05883343781732916
3.9043093922651937,0.06324253798223799
3.93767955801105,0.08867521326870687
3.9710497237569062,0.11416847330808826
4.0044198895027625,0.11941959338651997
4.037790055248619,0.0958367598772525
4.071160220994475,0.05065942915416378
4.104530386740332,0.0026102624448457773
4.1379005524861885,-0.027879540238387054
4.171270718232044,-0.02851676574835485
4.204640883977901,-0.0004570268836919089
4.238011049723757,0.0427423612683468
4.271381215469614,0.08130908944788796
4.30475138121547,0.09746929664302025
4.338121546961326,0.08231335387291268
4.371491712707183,0.03898332124015032
4.404861878453039,-0.01853765331150836
4.438232044198895,-0.0702991069992903
4.471602209944752,-0.09728990593584494
4.504972375690608,-0.08840628004587366
4.538342541436465,-0.045496915231990336
4.5717127071823205,0.015296748102234962
4.605082872928177,0.06709132365186082
4.638453038674034,0.08062271805090557
4.67182320441989,0.03544842726849942
4.7051933701657465,-0.06983260998814411
4.738563535911602,-0.21290504522405929
4.771933701657459,-0.3519013905971285
4.805303867403316,-0.43841238727644755
4.8386740331491715,-0.43522216925211904
4.872044198895028,-0.3316831155558805
4.905414364640884,-0.1496921727722124
4.938784530386741,0.0631717365817455
4.972154696132597,0.25102214688177316
5.005524861878453,0.37012840931003177
5.03889502762431,0.403432502475204
5.072265193370166,0.36301961010393996
5.105635359116023,0.280438832880708
5.1390055248618784,0.1905531010687894
5.172375690607735,0.11705721073228172
5.205745856353592,0.06586912507904435
5.239116022099448,0.027793406015302453
5.272486187845304,-0.012820923371321126
5.30585635359116,-0.0687421203790397
5.339226519337017,-0.14399837679422667
5.372596685082874,-0.23276194109129109
5.4059668508287295,-0.32174316112392054
5.439337016574586,-0.39410573588849157
5.472707182320442,-0.43366434068029647
5.506077348066299,-0.42909275641899725
5.5394475138121555,-0.3779221471379956
5.572817679558011,-0.28924303267731216
5.606187845303868,-0.18332505620219275
5.639558011049724,-0.08697669152201025
5.672928176795581,-0.025443929629915336
5.706298342541437,-0.01375811505352535
5.739668508287293,-0.05110532489257339
5.77303867403315,-0.12039168826897353
5.806408839779006,-0.1926435556818727
5.839779005524862,-0.23397133796516786
5.873149171270718,-0.21273242467039274
5.906519337016575,-0.10589228358690599
5.939889502762432,0.095192616765281
5.9732596685082875,0.37966220741259277
6.006629834254144,0.7144970188721322
6.04,1.047398450407826
6.073370165745857,1.3172297888286395
6.1067403314917135,1.4703651317507411
6.140110497237569,1.4770423584106764
6.173480662983426,1.3401273464823027
6.206850828729282,1.0914575658068768
6.240220994475139,0.7771250292043932
6.273591160220995,0.43912753729073795
6.306961325966851,0.10291859936257149
6.340331491712708,-0.22304585215547598
6.373701657458564,-0.5367837933663739
6.40707182320442,-0.8289018783236574
6.440441988950277,-1.0750349864609086
6.473812154696133,-1.2405078911392404
6.50718232044199,-1.2956378986438892
6.5405524861878455,-1.2333294365597076
6.573922651933702,-1.0785753752697849
6.607292817679559,-0.8834314489283251
6.640662983425415,-0.7087248436891602
6.674033149171271,-0.6008197172025919
6.707403314917127,-0.5743040503428709
6.740773480662984,-0.6083055605288216
6.774143646408841,-0.6573085896120808
6.8075138121546965,-0.6706536836330355
6.840883977900553,-0.6117097338520691
6.874254143646409,-0.46913079176801686
6.907624309392266,-0.25722283328006973
6.9409944751381225,-0.007447053347236408
6.974364640883978,0.24394990446316236
7.007734806629835,0.46707221413853717
7.041104972375691,0.6450420941318413
7.074475138121548,0.7752658501164874
7.107845303867403,0.866033803274061
7.14121546961326,0.9301185187910369
7.174585635359117,0.9776171912198885
7.207955801104973,1.0105986116907442
7.241325966850829,1.0217169576792933
7.274696132596685,0.9974774559756278
7.308066298342542,0.9247218652941921
7.341436464088399,0.7973364483110388
7.3748066298342545,0.6202059409802995
7.408176795580111,0.4090217539645427
7.441546961325967,0.1866204927363974
7.474917127071824,-0.02219035806754107
7.5082872928176805,-0.19541646380714703
7.541657458563536,-0.3173468242169693
7.575027624309393,-0.3807865380882588
7.608397790055249,-0.3884211656958324
7.641767955801106,-0.35316794516523087
7.675138121546962,-0.29662393705753376
7.708508287292818,-0.24462268740793866
7.741878453038675,-0.21999608333345025
7.775248618784531,-0.23455704640508926
7.808618784530387,-0.28386001184245074
7.841988950276244,-0.3481226381693952
7.8753591160221,-0.4003316828160123
7.908729281767957,-0.41890536721585736
7.9420994475138125,-0.3992364672275054
7.975469613259669,-0.3578698434775704
8.008839779005525,-0.32577379432928144
8.042209944751383,-0.33230055410071685
8.075580110497238,-0.38670515905494485
8.108950276243094,-0.4667137462122415
8.14232044198895,-0.521696648106461
8.175690607734808,-0.49170037572384995
8.209060773480664,-0.3355395070610136
8.24243093922652,-0.055380219893921785
8.275801104972377,0.29481892385638225
8.309171270718233,0.6232308392112628
8.342541436464089,0.8324235967169709
8.375911602209946,0.8568255238391451
8.409281767955802,0.6890371787923396
8.442651933701658,0.3832439253509922
8.476022099447514,0.03428592875750006
8.509392265193371,-0.25820481578984134
8.542762430939227,-0.4251280703679837
8.576132596685083,-0.4485637748050566
8.60950276243094,-0.3610063039232826
8.642872928176796,-0.2257732281542397
8.676243093922652,-0.108111368988185
8.709613259668508,-0.04876395170785356
8.742983425414366,-0.049555278189067076
8.776353591160222,-0.07560612274297071
8.809723756906077,-0.07290754204054326
8.843093922651935,0.005470612222001292
8.87646408839779,0.17492610405437828
8.909834254143647,0.40731876201827405
8.943204419889504,0.6379581517370466
8.97657458563536,0.790234196396291
9.009944751381216,0.8079947549288339
9.043314917127072,0.6809708763132082
9.07668508287293,0.4507027250047438
9.110055248618785,0.19326408050505664
9.143425414364641,-0.013536462878247498
9.176795580110499,-0.12289176874492082
9.210165745856354,-0.13607409177381566
9.24353591160221,-0.09629396622097874
9.276906077348068,-0.06353645171566379
9.310276243093924,-0.08373684148496424
9.34364640883978,-0.16754165572530674
9.377016574585635,-0.2879784277506743
9.410386740331493,-0.3962995186309078
9.443756906077349,-0.44660093622326147
9.477127071823205,-0.41677626865143463
9.510497237569062,-0.31675538919337215
9.543867403314918,-0.18217295045439033
9.577237569060774,-0.058429934323854404
9.610607734806631,0.016703333258327922
9.643977900552487,0.0249785705442511
9.677348066298343,-0.029020497696099625
9.710718232044199,-0.12222119533463717
9.744088397790057,-0.22185626907804662
9.777458563535912,-0.2952941490121933
9.810828729281768,-0.3184893086359496
9.844198895027626,-0.28173781379246027
9.877569060773482,-0.1920032044193678
9.910939226519337,-0.0712433429824747
9.944309392265193,0.04950184619631773
9.97767955801105,0.13949947782781288
10.011049723756907,0.17883494855402596
10.044419889502763,0.166329382776222
10.07779005524862,0.12113928422874147
10.111160220994476,0.07626753541227455
10.144530386740332,0.0656059839172792
10.17790055248619,0.1093996185175448
10.211270718232045,0.20439503462105493
10.244640883977901,0.3234437520389627
10.278011049723757,0.42540760161998553
10.311381215469615,0.4715509557218023
10.34475138121547,0.4413962614782928
10.378121546961326,0.34093980353906167
10.411491712707184,0.19945561818517246
10.44486187845304,0.05642929408812903
10.478232044198895,-0.05513808946800692
10.511602209944753,-0.12120009982051734
10.544972375690609,-0.14943636562205645
10.578342541436465,-0.161952039541703
10.61171270718232,-0.18252433628109027
10.645082872928178,-0.2251841092794036
10.678453038674034,-0.2892857693337806
10.71182320441989,-0.36207455690124873
10.745193370165747,-0.4257585435309129
10.778563535911603,-0.46450428318994275
10.811933701657459,-0.4681139611766733
10.845303867403315,-0.4320477289144703
10.878674033149172,-0.35580610094145004
10.912044198895028,-0.24208074678335811
10.945414364640884,-0.09763979574321736
10.978784530386742,0.0650451973128352
11.012154696132598,0.2274577070441746
11.045524861878453,0.3675143522771403
11.078895027624311,0.4648284420040878
11.112265193370167,0.5070791054630118
11.145635359116023,0.49493717067331033
11.179005524861878,0.44324369731008945
11.212375690607736,0.3773490839847073
11.245745856353592,0.3252679328269626
11.279116022099448,0.3080155539588274
11.312486187845305,0.33154168819427776
11.345856353591161,0.383531424769512
11.379226519337017,0.4368057990619632
11.412596685082875,0.45851067118951844
11.44596685082873,0.42172913796785855
11.479337016574586,0.31485020404294256
11.512707182320442,0.14483475080709976
11.5460773480663,-0.06672265107200041
11.579447513812156,-0.2924169124838151
11.612817679558011,-0.508129604255038
11.646187845303869,-0.6979104941667831
11.679558011049725,-0.8526992613136325
11.71292817679558,-0.9645931692172177
11.746298342541436,-1.021128969170492
11.779668508287294,-1.004297430273682
11.81303867403315,-0.8964222859355927
11.846408839779006,-0.6909000298631908
11.879779005524863,-0.40240262745034516
11.91314917127072,-0.07049298899150887
11.946519337016575,0.24678627526567157
11.979889502762433,0.48818800155749686
12.013259668508288,0.6079636985282955
12.046629834254144,0.5907153456205442
12.08,0.4565401773320161
12.113370165745858,0.2545548973640864
12.146740331491714,0.047461725393585195
12.18011049723757,-0.10702177891630318
12.213480662983427,-0.1715168450111113
12.246850828729283,-0.13672813727011413
12.280220994475139,-0.020386537277501372
12.313591160220996,0.14089838253357667
12.346961325966852,0.3035545502839759
12.380331491712708,0.429199704129037
12.413701657458564,0.4941510735378437
12.447071823204421,0.4943182612230428
12.480441988950277,0.44441487051858375
12.513812154696133,0.37151789094884663
12.54718232044199,0.3045257823815019
12.580552486187846,0.2628106269852816
12.613922651933702,0.24845227351443191
12.64729281767956,0.24577994751474885
12.680662983425416,0.22913311113886262
12.714033149171271,0.175790536992213
12.747403314917127,0.07801776542656122
12.780773480662985,-0.05188491179179747
12.81414364640884,-0.18635281939156348
12.847513812154697,-0.2948880086811053
12.880883977900554,-0.35764228310443014
12.91425414364641,-0.3732759943951791
12.947624309392266,-0.35728557202493155
12.980994475138122,-0.33222134979102974
13.01436464088398,-0.3155309877527106
13.047734806629835,-0.3117351215944961
13.081104972375691,-0.312793931551586
13.114475138121549,-0.30559018141665695
13.147845303867404,-0.2813674566053872
13.18121546961326,-0.24113339340157272
13.214585635359118,-0.19391028363481638
13.247955801104974,-0.14946203637170546
13.28132596685083,-0.11073912374524852
13.314696132596685,-0.07144661573675774
13.348066298342543,-0.020728456674658127
13.381436464088399,0.04783247437326137
13.414806629834255,0.12875088427335432
13.448176795580112,0.20387415798330705
13.481546961325968,0.2494913977078549
13.514917127071824,0.24775590643637407
13.548287292817681,0.1962823307219539
13.581657458563537,0.11077253731920977
13.615027624309393,0.019289007213104958
13.648397790055249,-0.048958874599255915
13.681767955801106,-0.07500434418233984
13.715138121546962,-0.05674488424042215
13.748508287292818,-0.008437412313787349
13.781878453038676,0.046072105907986965
13.815248618784532,0.08319448754609193
13.848618784530387,0.08859855787852584
13.881988950276245,0.062159660170459964
13.9153591160221,0.017261868022608214
13.948729281767957,-0.025110464170460405
13.982099447513813,-0.045086024940136894
14.01546961325967,-0.03181640680063372
14.048839779005526,0.012706299932460021
14.082209944751382,0.07528541986349221
14.11558011049724,0.13743133386142664
14.148950276243095,0.18268011847944796
14.182320441988951,0.20236678397764696
14.215690607734807,0.19801722228679405
14.249060773480664,0.17991875622791342
14.28243093922652,0.16256244982432
14.315801104972376,0.15851870492996953
14.349171270718234,0.17293649842786266
14.38254143646409,0.20091586027324715
14.415911602209945,0.22906417953489844
14.449281767955803,0.240704469396024
14.482651933701659,0.22235256129861664
14.516022099447515,0.16842264764552545
14.54939226519337,0.08222317007307234
14.582762430939228,-0.02647861915942303
14.616132596685084,-0.14521282496051813
14.64950276243094,-0.2615839364842762
14.682872928176797,-0.3642556062004234
14.716243093922653,-0.44321256934066156
14.749613259668509,-0.49101358627524666
14.782983425414367,-0.5055046166750617
14.816353591160222,-0.492303209892665
14.849723756906078,-0.46422758462863084
14.883093922651934,-0.436076860622074
14.916464088397792,-0.41632881559955737
14.949834254143648,-0.4002885603386143
14.983204419889503,-0.36963423966225906
15.016574585635361,-0.30032155462541277
15.049944751381217,-0.17591093880129677
15.083314917127073,0.0004300155137701764
15.116685082872928,0.2021511974405703
15.150055248618786,0.3867854115714561
15.183425414364642,0.5118508772681476
15.216795580110498,0.5519227063335926
15.250165745856355,0.5089109988248037
15.283535911602211,0.4108711601271719
15.316906077348067,0.30006750780756314
15.350276243093925,0.21579968967682683
15.38364640883978,0.17954885760698636
15.417016574585636,0.1885955239161773
15.450386740331492,0.2202185030389228
15.48375690607735,0.2438047703381583
15.517127071823205,0.2348767549601634
15.550497237569061,0.18469537239796707
15.583867403314919,0.10178149501225728
15.617237569060775,0.005900006768514583
15.65060773480663,-0.08151361941610802
15.683977900552488,-0.1455450540884591
15.717348066298344,-0.18133684336232497
15.7507182320442,-0.1926302918147006
15.784088397790056,-0.1873647311700864
15.817458563535913,-0.1731270694272885
15.85082872928177,-0.15444607793804066
15.884198895027625,-0.13249289111800058
15.917569060773483,-0.10658123244747102
15.950939226519338,-0.0763278935748639
15.984309392265194,-0.04332158324838166
16.01767955801105,-0.011441279690700043
16.051049723756908,0.014485585928833823
16.084419889502765,0.031181165760363297
16.11779005524862,0.039234056485876696
16.151160220994477,0.043612451501415794
16.18453038674033,0.0515043733483071
16.21790055248619,0.06824677386133182
16.251270718232046,0.09365110285922754
16.2846408839779,0.12128887689337026
16.318011049723758,0.14174843024855138
16.351381215469615,0.14825367425865615
16.38475138121547,0.14103902020689502
16.418121546961327,0.1270629461483929
16.451491712707185,0.11429333858639124
16.48486187845304,0.10350842802804296
16.518232044198896,0.08297624399593553
16.551602209944754,0.030668342299680986
16.584972375690608,-0.07521529853432027
16.618342541436466,-0.2417181686468718
16.651712707182323,-0.450244735916269
16.685082872928177,-0.6563296734237956
16.718453038674035,-0.8023029080685777
16.751823204419892,-0.8384655961985645
16.785193370165747,-0.7434579598200267
16.818563535911604,-0.5341643457200851
16.851933701657458,-0.260231859849913
16.885303867403316,0.014331478726644855
16.918674033149173,0.23393251758190858
16.952044198895027,0.36843119582962197
16.985414364640885,0.417881475084191
17.018784530386743,0.40486182618622746
17.052154696132597,0.36002704146054865
17.085524861878454,0.30869645193930795
17.118895027624312,0.2642727988423122
17.152265193370166,0.22971758486841531
17.185635359116024,0.2039594161178575
17.21900552486188,0.18821725153656674
17.252375690607735,0.18834695261106787
17.285745856353593,0.2123016707328981
