Frequency (Hz),Amplitude
0.0,0.924706598646496
0.019801980198019802,0.9280022452368246
0.039603960396039604,0.9378069560894875
0.0594059405940594,0.9538825101484097
0.07920792079207921,0.9758580828992499
0.09900990099009901,1.0032633504842552
0.1188118811881188,1.03556486337647
0.13861386138613863,1.0722000318132812
0.15841584158415842,1.1126050712453666
0.1782178217821782,1.1562354567560047
0.19801980198019803,1.2025791303721487
0.21782178217821782,1.2511636647819047
0.2376237623762376,1.3015589138891652
0.25742574257425743,1.3533766038634776
0.27722772277227725,1.4062680521270678
0.297029702970297,1.4599208909784647
0.31683168316831684,1.5140553933037177
0.33663366336633666,1.5684207781393367
0.3564356435643564,1.6227917153207903
0.37623762376237624,1.6769651413163071
0.39603960396039606,1.7307574300091275
0.4158415841584158,1.7840019211632594
0.43564356435643564,1.8365467865130216
0.45544554455445546,1.8882532022569016
0.4752475247524752,1.9389937926737848
0.495049504950495,1.9886513096182152
0.5148514851485149,2.037117514885089
0.5346534653465347,2.084292235690044
0.5544554455445545,2.1300825670970407
0.5742574257425742,2.1744021987506805
0.594059405940594,2.217170846537399
0.613861386138614,2.2583137727192395
0.6336633663366337,2.297761380633531
0.6534653465346534,2.335448872245203
0.6732673267326733,2.371315958705163
0.6930693069306931,2.4053066156464307
0.7128712871287128,2.4373688762779806
0.7326732673267327,2.4674546564508395
0.7524752475247525,2.4955196068055496
0.7722772277227723,2.5215229878931034
0.7920792079207921,2.545427564818263
0.8118811881188118,2.5671995185061363
0.8316831683168316,2.5868083711575958
0.8514851485148516,2.604226923851867
0.8712871287128713,2.619431204588334
0.891089108910891,2.6324004253440116
0.9108910891089109,2.6431169469680404
0.9306930693069307,2.6515662509466393
0.9504950495049505,2.6577369172579255
0.9702970297029703,2.661620607701007
0.99009900990099,2.6632120542325843
1.00990099009901,2.662509051980932
1.0297029702970297,2.6595124567351243
1.0495049504950495,2.6542261868301633
1.0693069306930694,2.646657229469822
1.0891089108910892,2.636815651650491
1.108910891089109,2.6247146159757397
1.1287128712871286,2.6103704017847993
1.1485148514851484,2.5938024321628848
1.1683168316831685,2.5750333075606244
1.188118811881188,2.5540888469291834
1.2079207920792079,2.530998137480826
1.227722772277228,2.5057935944187917
1.2475247524752475,2.4785110322517387
1.2673267326732673,2.449189749625464
1.2871287128712872,2.417872629977736
1.3069306930693068,2.384606260763416
1.3267326732673268,2.3494410745197905
1.3465346534653466,2.312431515664721
1.3663366336633662,2.2736362376613823
1.3861386138613863,2.2331183360682707
1.405940594059406,2.1909456240486
1.4257425742574257,2.1471909581716764
1.4455445544554455,2.101932623835462
1.4653465346534653,2.055254791413337
1.4851485148514851,2.007248056316731
1.504950495049505,1.9580100786030277
1.5247524752475248,1.9076463405653061
1.5445544554455446,1.856271043907985
1.5643564356435644,1.8040081715782974
1.5841584158415842,1.7509927429306418
1.6039603960396038,1.6973722943305072
1.6237623762376237,1.6433086199791163
1.6435643564356437,1.5889798086624511
1.6633663366336633,1.534582609662488
1.683168316831683,1.4803351526122517
1.7029702970297032,1.4264800276414085
1.7227722772277227,1.3732876978616366
1.7425742574257426,1.3210601578268049
1.7623762376237624,1.2701346582878086
1.782178217821782,1.2208871768239344
1.801980198019802,1.1737351144060892
1.8217821782178218,1.129138436229107
1.8415841584158414,1.0875981686263358
1.8613861386138615,1.04965087046515
1.881188118811881,1.0158575381257362
1.900990099009901,0.986785572372325
1.920792079207921,0.9629831684701858
1.9405940594059405,0.9449469526705673
1.9603960396039604,0.9330857798171741
1.98019801980198,0.9276857831426367
2.0,0.9288830684315247
2.01980198019802,0.9366499146283536
2.0396039603960396,0.9507977050203648
2.0594059405940595,0.9709958850686837
2.0792079207920793,0.9968026044003588
2.099009900990099,1.0277007549483286
2.118811881188119,1.0631332986434312
2.1386138613861387,1.10253350154275
2.1584158415841586,1.1453479289083899
2.1782178217821784,1.1910519651723486
2.1980198019801978,1.239158825470877
2.217821782178218,1.2892235382355008
2.237623762376238,1.3408434085973533
2.257425742574257,1.3936562489875204
2.2772277227722775,1.4473373558737423
2.297029702970297,1.5015959169372213
2.3168316831683167,1.5561712924796056
2.336633663366337,1.6108294367921436
2.3564356435643563,1.6653596023891004
2.376237623762376,1.7195713901435787
2.3960396039603964,1.773292159376754
2.4158415841584158,1.826364783922946
2.4356435643564356,1.8786457257403473
2.455445544554456,1.930003391596253
2.4752475247524752,1.9803167372739385
2.495049504950495,2.029474085402318
2.514851485148515,2.0773721260138203
2.5346534653465347,2.123915072461983
2.5544554455445545,2.169013948901912
2.5742574257425743,2.2125859889017847
2.594059405940594,2.2545541277920242
2.6138613861386135,2.2948465740310002
2.633663366336634,2.3333964471749526
2.6534653465346536,2.3701414720115097
2.673267326732673,2.4050237200863043
2.6930693069306932,2.437989391260052
2.712871287128713,2.46898862911567
2.7326732673267324,2.4979753650266323
2.7524752475247527,2.5249071865287402
2.7722772277227725,2.5497452263343137
2.792079207920792,2.5724540689129203
2.811881188118812,2.5930016720552196
2.8316831683168315,2.611359301252217
2.8514851485148514,2.6275014750746446
2.8712871287128716,2.6414059200372932
2.891089108910891,2.653053533691087
2.910891089108911,2.6624283549078096
2.9306930693069306,2.669517540517267
2.9504950495049505,2.6743113476284504
2.9702970297029703,2.6768031211201793
2.99009900990099,2.67698928592795
3.00990099009901,2.674869343884209
3.0297029702970297,2.670445874994509
3.0495049504950495,2.663724543153561
3.0693069306930694,2.654714106427218
3.089108910891089,2.6434264321517245
3.108910891089109,2.6298765172329652
3.128712871287129,2.6140825141704505
3.148514851485148,2.59606576348583
3.1683168316831685,2.5758508334094437
3.1881188118811883,2.5534655678747233
3.2079207920792077,2.528941144095326
3.227722772277228,2.502312141260528
3.2475247524752473,2.47361662218804
3.267326732673267,2.442896230130489
3.2871287128712874,2.4101963033525258
3.3069306930693068,2.3755660105941976
3.3267326732673266,2.3390585111292563
3.346534653465347,2.300731143832591
3.366336633663366,2.2606456505129837
3.386138613861386,2.218868439771827
3.4059405940594063,2.175470898846223
3.4257425742574257,2.130529762320565
3.4455445544554455,2.0841275482826225
3.4653465346534653,2.03635307449609
3.485148514851485,1.9873020694994192
3.504950495049505,1.937077896244093
3.5247524752475248,1.8857924089590716
3.5445544554455446,1.8335669673278054
3.564356435643564,1.7805336356692611
3.5841584158415842,1.726836598363738
3.603960396039604,1.6726338257738615
3.6237623762376234,1.618099026534047
3.6435643564356437,1.5634239209062066
3.6633663366336635,1.508820863663518
3.683168316831683,1.4545258301552284
3.702970297029703,1.4008017505810664
3.722772277227723,1.347942127576802
3.7425742574257423,1.2962747909500973
3.762376237623762,1.246165518619353
3.7821782178217824,1.1980210722255131
3.801980198019802,1.1522909524899176
3.8217821782178216,1.10946688213966
3.841584158415842,1.070078715714299
3.8613861386138613,1.0346852547109076
3.881188118811881,1.003858485326028
3.9009900990099013,0.9781602849760903
3.9207920792079207,0.9581118686769252
3.9405940594059405,0.9441581770373902
3.96039603960396,0.9366316537213909
3.98019801980198,0.9357215683634019
4.0,0.9414551826797346
4.01980198019802,0.9536950635965677
4.03960396039604,0.9721531758812846
4.0594059405940595,0.9964184575347191
4.079207920792079,1.0259919696603848
4.099009900990099,1.0603232175992043
4.118811881188119,1.0988425670927473
4.138613861386139,1.1409868653539792
4.158415841584159,1.1862174659680975
4.178217821782178,1.234031310584344
4.198019801980198,1.2839664459737739
4.217821782178218,1.335603519321716
4.237623762376238,1.388564632923264
4.257425742574258,1.4425106452927587
4.2772277227722775,1.4971376992525887
4.297029702970297,1.5521734961984486
4.316831683168317,1.6073736365614653
4.336633663366336,1.6625182060046972
4.356435643564357,1.7174086937284152
4.376237623762377,1.7718652709172877
4.3960396039603955,1.8257244230877676
4.415841584158416,1.8788369116530907
4.435643564356436,1.9310660315492003
4.455445544554455,1.9822861292768175
4.475247524752476,2.032381346617394
4.4950495049504955,2.081244557937296
4.514851485148514,2.1287764724113005
4.534653465346535,2.1748848760936283
4.554455445544555,2.2194839922234477
4.574257425742574,2.2624939413156424
4.594059405940594,2.3038402853917255
4.613861386138614,2.3434536431424204
4.633663366336633,2.3812693649021357
4.653465346534653,2.4172272580893757
4.673267326732674,2.4512713552648386
4.693069306930693,2.483349718218334
4.712871287128713,2.513414272552498
4.732673267326733,2.541420668117086
4.752475247524752,2.567328161390618
4.772277227722772,2.5910995165295985
4.792079207920793,2.6127009223298403
4.811881188118812,2.6321019227868723
4.8316831683168315,2.6492753593168334
4.851485148514852,2.664197323017596
4.871287128712871,2.6768471156228673
4.891089108910891,2.687207218036757
4.910891089108912,2.695263265541255
4.930693069306931,2.701004028949096
4.9504950495049505,2.704421401135355
4.97029702970297,2.7055103885273346
4.99009900990099,2.704269107267248
5.00990099009901,2.7006987838899392
5.02970297029703,2.6948037604820256
5.0495049504950495,2.686591504411269
5.069306930693069,2.676072622840631
5.089108910891089,2.663260882372143
5.108910891089109,2.6481732343054936
5.128712871287129,2.6308298461485915
5.148514851485149,2.611254140186958
5.1683168316831685,2.589472840109326
5.188118811881188,2.5655160269054043
5.207920792079208,2.539417205502709
5.227722772277227,2.511213383902885
5.247524752475248,2.4809451669205878
5.267326732673268,2.4486568670323994
5.2871287128712865,2.414396635321641
5.306930693069307,2.3782166160727956
5.326732673267327,2.3401731292451355
5.346534653465346,2.3003268858609682
5.366336633663367,2.2587432423049663
5.3861386138613865,2.2154925006775517
5.405940594059405,2.170650263710456
5.425742574257426,2.124297854374537
5.445544554455446,2.0765228122266945
5.465346534653465,2.02741948079337
5.485148514851486,1.977089702902148
5.504950495049505,1.9256436438617814
5.524752475247524,1.8732007657295502
5.544554455445545,1.819890979498655
5.564356435643565,1.7658560056768817
5.584158415841584,1.7112509770033515
5.603960396039604,1.6562463192413395
5.623762376237624,1.6010299458714468
5.643564356435643,1.5458097981157581
5.663366336633663,1.4908167499502978
5.683168316831684,1.4363078739297552
5.702970297029703,1.3825700209674032
5.7227722772277225,1.3299235963873681
5.742574257425743,1.2787263038844516
5.762376237623762,1.22937646577651
5.782178217821782,1.1823153025295625
5.801980198019803,1.1380272693644935
5.821782178217822,1.0970372326921458
5.841584158415841,1.0599030033523327
5.861386138613861,1.0272016763777074
5.881188118811881,0.9995085765531508
5.900990099009901,0.9773686050309254
5.920792079207921,0.9612615205612435
5.9405940594059405,0.9515649237311117
5.96039603960396,0.9485207231006237
5.98019801980198,0.9522116128828408
6.0,0.9625527834384542
6.01980198019802,0.9793008133108859
6.03960396039604,1.0020776294793132
6.0594059405940595,1.0304042193414065
6.079207920792079,1.0637375663767643
6.099009900990099,1.1015051062640109
6.118811881188119,1.1431330370354795
6.138613861386139,1.1880670367951052
6.158415841584159,1.2357856468350723
6.178217821782178,1.2858075406727152
6.198019801980198,1.3376942262070608
6.217821782178218,1.391049649580899
6.237623762376237,1.4455179006131293
6.257425742574258,1.500779906283526
6.2772277227722775,1.5565497170468658
6.297029702970296,1.612570768959128
6.316831683168317,1.6686123443775218
6.336633663366337,1.7244663455727995
6.356435643564356,1.779944426321462
6.376237623762377,1.8348754848667777
6.396039603960396,1.8891034984111068
6.415841584158415,1.942485667869729
6.435643564356436,1.9948908373931094
6.455445544554456,2.0461981531181768
6.475247524752475,2.096295927808032
6.495049504950495,2.1450806812905703
6.514851485148515,2.1924563302061686
6.534653465346534,2.238333504124675
6.554455445544554,2.282628968386696
6.574257425742575,2.3252651369738446
6.594059405940594,2.366169661290747
6.6138613861386135,2.4052750829619027
6.633663366336634,2.4425185406375833
6.653465346534653,2.4778415224030748
6.673267326732673,2.511189656732597
6.693069306930694,2.542512536061051
6.712871287128713,2.571763567995557
6.732673267326732,2.598899849984339
6.752475247524753,2.623882063928554
6.772277227722772,2.646674387783629
6.792079207920792,2.667244421670085
6.811881188118813,2.6855631264134616
6.8316831683168315,2.701604772773052
6.851485148514851,2.715346899909217
6.871287128712871,2.7267702818889483
6.891089108910891,2.735858901245952
6.910891089108911,2.7425999288017233
6.930693069306931,2.746983709123077
6.9504950495049505,2.749003751144158
6.97029702970297,2.748656723621481
6.99009900990099,2.745942455222025
7.00990099009901,2.74086393917157
7.02970297029703,2.7334273425151183
7.0495049504950495,2.7236420201676825
7.069306930693069,2.711520534064557
7.089108910891089,2.6970786778594076
7.108910891089109,2.6803355077688065
7.128712871287128,2.6613133803288935
7.148514851485149,2.6400379980160755
7.1683168316831685,2.6165384638970854
7.188118811881187,2.59084734671787
7.207920792079208,2.5630007581251393
7.227722772277228,2.533038444046668
7.247524752475247,2.5010038926469913
7.267326732673268,2.466944461737327
7.287128712871287,2.430911529065994
7.306930693069306,2.3929606695672048
7.326732673267327,2.3531518644224043
7.346534653465347,2.3115497477139573
7.366336633663366,2.2682238975554925
7.3861386138613865,2.2232491798990472
7.405940594059406,2.1767061547836732
7.425742574257425,2.1286815566426474
7.445544554455446,2.0792688624664417
7.465346534653466,2.028568964160108
7.485148514851485,1.9766909643556576
7.504950495049505,1.9237531182316465
7.524752475247524,1.8698839474825981
7.544554455445544,1.8152235563014396
7.564356435643565,1.7599251827468092
7.584158415841584,1.7041570215472246
7.603960396039604,1.6481043551894874
7.623762376237624,1.5919720273159481
7.643564356435643,1.5359872832717822
7.663366336633663,1.480402982903255
7.683168316831684,1.4255011542460287
7.702970297029703,1.3715967949420966
7.7227722772277225,1.3190417298947203
7.742574257425743,1.2682281859390592
7.762376237623762,1.2195915357403506
7.782178217821782,1.1736113909687031
7.801980198019803,1.1308099084041061
7.821782178217822,1.0917458739482084
7.841584158415841,1.0570029759784911
7.861386138613862,1.0271708732044502
7.881188118811881,1.0028184440150874
7.900990099009901,0.9844601361041401
7.92079207920792,0.9725185003633989
7.9405940594059405,0.967288214764593
7.96039603960396,0.9689081902465829
7.980198019801979,0.977347735831053
8.0,0.9924099947055005
8.01980198019802,1.0137518167541044
8.03960396039604,1.0409155306280704
8.05940594059406,1.0733661355881772
8.07920792079208,1.1105276640359736
8.099009900990099,1.151814253606071
8.118811881188119,1.1966537611992223
8.138613861386139,1.2445036980622886
8.158415841584159,1.2948604868364062
8.178217821782178,1.3472635599720648
8.198019801980198,1.4012958468385084
8.217821782178218,1.4565819673485645
8.237623762376238,1.512785135301896
8.257425742574258,1.5696034733084332
8.277227722772277,1.6267661950700074
8.297029702970297,1.6840299284562434
8.316831683168317,1.7411753268713184
8.336633663366337,1.7980040343956512
8.356435643564357,1.8543360197807397
8.376237623762377,1.910007265456453
8.396039603960396,1.9648677827321819
8.415841584158416,2.0187799180512904
8.435643564356436,2.0716169139525404
8.455445544554456,2.1232616900181407
8.475247524752476,2.1736058121217425
8.495049504950495,2.2225486218744006
8.514851485148515,2.269996501810861
8.534653465346535,2.3158622552995833
8.554455445544555,2.3600645832721945
8.574257425742575,2.402527642608708
8.594059405940595,2.4431806733853207
8.613861386138613,2.4819576842175795
8.633663366336634,2.5187971866498224
8.653465346534654,2.5536419709902343
8.673267326732672,2.586438917208839
8.693069306930694,2.6171388355374594
8.712871287128714,2.645696332267535
8.732673267326732,2.6720696969607878
8.752475247524753,2.6962208078915992
8.772277227722773,2.7181150530487233
8.792079207920791,2.737721264453619
8.811881188118813,2.7550116639172413
8.831683168316832,2.7699618186677633
8.85148514851485,2.7825506055487375
8.871287128712872,2.7927601827179322
8.891089108910892,2.8005759679789692
8.91089108910891,2.80598662305672
8.930693069306932,2.808984043287741
8.950495049504951,2.8095633523441093
8.97029702970297,2.807722901745662
8.990099009900991,2.803464275046856
9.00990099009901,2.7967922967119434
9.029702970297029,2.7877150458208715
9.04950495049505,2.776243874880315
9.06930693069307,2.762393434153398
9.089108910891088,2.7461817020718207
9.10891089108911,2.7276300224591234
9.12871287128713,2.7067631494779643
9.148514851485148,2.683609301423335
9.16831683168317,2.6582002247233687
9.188118811881187,2.6305712697869783
9.207920792079207,2.600761480661398
9.227722772277229,2.5688137008433656
9.247524752475247,2.5347746980367045
9.267326732673267,2.4986953111812342
9.287128712871288,2.4606306237104847
9.306930693069306,2.4206401677491756
9.326732673267326,2.378788164859696
9.346534653465348,2.335143810019246
9.366336633663366,2.289781606787043
9.386138613861386,2.242781763142886
9.405940594059407,2.1942306592822973
9.425742574257425,2.1442214007828593
9.445544554455445,2.092854473047065
9.465346534653467,2.0402385158068554
9.485148514851485,1.9864912397446457
9.504950495049505,1.9317405108972845
9.524752475247526,1.8761256323291893
9.544554455445544,1.8197988563055318
9.564356435643564,1.7629271633399557
9.584158415841586,1.7056943461174803
9.603960396039604,1.6483034348796526
9.623762376237623,1.5909794939649617
9.643564356435645,1.533972803049056
9.663366336633663,1.477562405596709
9.683168316831683,1.4220599531088405
9.702970297029704,1.3678136862252825
9.722772277227723,1.3152122597109106
9.742574257425742,1.2646879249742042
9.762376237623764,1.216718324110308
9.782178217821782,1.171825834088332
9.801980198019802,1.1305730755627523
9.821782178217823,1.0935529751144348
9.841584158415841,1.061371826904817
9.861386138613861,1.0346243836077655
9.881188118811881,1.0138613292203658
9.900990099009901,0.9995515448517196
9.92079207920792,0.9920439419060564
9.94059405940594,0.9915353917166231
9.96039603960396,0.998051350436531
9.98019801980198,1.0114435977683838
10.0,1.031405604685789
10.01980198019802,1.0575019347933052
10.03960396039604,1.0892054067942056
10.05940594059406,1.1259353002984942
10.07920792079208,1.1670913292839746
10.099009900990099,1.212080415476074
10.118811881188119,1.2603354741868367
10.138613861386139,1.311326929588061
10.158415841584159,1.3645684187449378
10.178217821782178,1.4196183039128956
10.198019801980198,1.4760784371877342
10.217821782178218,1.5335913114929105
10.237623762376238,1.5918364110488696
10.257425742574258,1.6505263016650327
10.277227722772277,1.7094027936413292
10.297029702970297,1.7682333638075443
10.316831683168317,1.826807926284506
10.336633663366337,1.8849359808589194
10.356435643564357,1.9424441322143433
10.376237623762377,1.9991739540859548
10.396039603960396,2.0549801636012726
10.415841584158416,2.109729068493857
10.435643564356436,2.1632972508303476
10.455445544554454,2.215570453671581
10.475247524752476,2.266442640660352
10.495049504950495,2.3158152022880953
10.514851485148514,2.3635962862086073
10.534653465346535,2.4097002322742505
10.554455445544555,2.4540470959031153
10.574257425742573,2.4965622459342804
10.594059405940595,2.537176025314103
10.613861386138614,2.5758234648130305
10.633663366336632,2.612444041540979
10.653465346534654,2.6469814753478857
10.673267326732674,2.6793835573039066
10.693069306930692,2.7096020053818584
10.712871287128714,2.7375923432434863
