Time (s),Filtered Signal
0.0,0.019252883898441018
0.03337004405286344,-0.43334074434987224
0.06674008810572687,-0.6903154624010631
0.10011013215859031,-0.6314858409283071
0.13348017621145375,-0.2573255968172232
0.16685022026431717,0.31626444945460325
0.20022026431718062,0.9083402930717926
0.23359030837004408,1.3447775912927473
0.2669603524229075,1.5203278721049027
0.3003303964757709,1.4264857860139328
0.33370044052863435,1.1379643931513252
0.3670704845814978,0.7691634725361658
0.40044052863436125,0.42329969886576285
0.43381057268722467,0.15658666223431594
0.46718061674008815,-0.030250894785154258
0.5005506607929515,-0.17470788766902914
0.533920704845815,-0.32187544840263843
0.5672907488986785,-0.49643211462732373
0.6006607929515418,-0.6893355068876179
0.6340308370044053,-0.8629905793693955
0.6674008810572687,-0.9701449140524289
0.7007709251101322,-0.9764697542751664
0.7341409691629956,-0.8763374532136116
0.767511013215859,-0.6952855813362557
0.8008810572687225,-0.47903076585007
0.834251101321586,-0.27482096947569834
0.8676211453744493,-0.11385855938978208
0.9009911894273128,-0.0023603449769557475
0.9343612334801763,0.07564546144146188
0.9677312775330397,0.14615127774276537
1.001101321585903,0.22989970941111898
1.0344713656387665,0.33105794000794914
1.06784140969163,0.43456616916469754
1.1012114537444935,0.5128200299512577
1.134581497797357,0.5384035089125047
1.1679515418502202,0.49733038562131493
1.2013215859030837,0.3973379758468164
1.2346916299559472,0.26784860346860334
1.2680616740088106,0.15126752838437438
1.3014317180616741,0.08827442579143208
1.3348017621145374,0.1019772724260726
1.3681718061674009,0.18676295481707195
1.4015418502202643,0.3069076279350869
1.4349118942731278,0.40712203254472495
1.4682819383259913,0.4325695488886096
1.5016519823788548,0.351131810125948
1.535022026431718,0.1682948240204938
1.5683920704845815,-0.07303415656889169
1.601762114537445,-0.3092294633482254
1.6351321585903085,-0.48264625609867645
1.668502202643172,-0.5661413846096159
1.7018722466960352,-0.5732894414744544
1.7352422907488987,-0.5485456611439044
1.7686123348017622,-0.5415270250819363
1.8019823788546256,-0.5780826516027177
1.8353524229074891,-0.6432982789648255
1.8687224669603526,-0.6862528501058914
1.9020925110132159,-0.6454359602256958
1.9354625550660793,-0.48264361494316366
1.9688325991189428,-0.20787827931105476
2.002202643171806,0.11842147278630044
2.0355726872246698,0.408165212195756
2.068942731277533,0.582812391129343
2.1023127753303967,0.6069115590299909
2.13568281938326,0.5019229718356092
2.1690528634361232,0.33446121234153015
2.202422907488987,0.18569660409886704
2.23579295154185,0.11707436000757059
2.269162995594714,0.1479538279203916
2.302533039647577,0.25380186523835524
2.3359030837004404,0.38322822630363396
2.369273127753304,0.4836271538177616
2.4026431718061674,0.5224026494316749
2.436013215859031,0.4946257898130785
2.4693832599118943,0.416069609464663
2.5027533039647576,0.30835726799607954
2.5361233480176213,0.18621942095527108
2.5694933920704845,0.05404188679659006
2.6028634361233483,-0.08795024565885057
2.6362334801762115,-0.2339603939878964
2.6696035242290748,-0.36744537542508793
2.7029735682819385,-0.46512907240835993
2.7363436123348017,-0.508325838214739
2.7697136563876654,-0.4944049139415304
2.8030837004405287,-0.4404918704812021
2.8364537444933924,-0.375812726078711
2.8698237885462556,-0.3259676937924001
2.903193832599119,-0.29788670541360096
2.9365638766519826,-0.2748972815521062
2.969933920704846,-0.22633045399079071
3.0033039647577096,-0.1277243917940963
3.036674008810573,0.01941669881952901
3.070044052863436,0.18067328470498653
3.1034140969162998,0.30085533804679265
3.136784140969163,0.3307856772863484
3.1701541850220267,0.25490736499126093
3.20352422907489,0.10386299548182713
3.2368942731277532,-0.056525373486297305
3.270264317180617,-0.1555067470353385
3.30363436123348,-0.1513687314304831
3.337004405286344,-0.0510075102839552
3.370374449339207,0.09529764414588072
3.4037444933920704,0.22066396461142368
3.437114537444934,0.27504243955496555
3.4704845814977974,0.24739618591617946
3.503854625550661,0.16581576393592184
3.5372246696035243,0.07760101953369711
3.5705947136563876,0.02228009134555638
3.6039647577092513,0.013296155418809068
3.6373348017621145,0.03743777739738852
3.6707048458149782,0.06954252608672121
3.7040748898678415,0.09096970313247481
3.737444933920705,0.09934187431498365
3.7708149779735685,0.10420985264047712
3.8041850220264317,0.11342151315428606
3.8375550660792954,0.12123929875066151
3.8709251101321587,0.10772728093574245
3.9042951541850224,0.05096665344974519
3.9376651982378856,-0.055311387548799384
3.971035242290749,-0.19026020032651833
4.004405286343612,-0.30906667580247665
4.037775330396476,-0.36081648965140534
4.0711453744493395,-0.3127154193729339
4.104515418502203,-0.16851031636597144
4.137885462555066,0.028404516643332225
4.171255506607929,0.2094155486362455
4.2046255506607935,0.30678315831986436
4.237995594713657,0.2803851281872449
4.27136563876652,0.13392188731823926
4.304735682819383,-0.08603087940947722
4.3381057268722465,-0.3075221410623084
4.371475770925111,-0.4598922274753882
4.404845814977974,-0.4987089636618086
4.438215859030837,-0.41931450304797047
4.4715859030837,-0.2546934023177053
4.504955947136564,-0.06027635936332283
4.538325991189428,0.10665210045619217
4.571696035242291,0.20440586100433097
4.605066079295154,0.21589974978194842
4.638436123348018,0.1488151247527966
4.671806167400881,0.030092223603156307
4.705176211453745,-0.1016105996612129
4.738546255506608,-0.20377765821293534
4.7719162995594715,-0.2385101335457715
4.805286343612335,-0.18195250609497005
4.838656387665198,-0.033009385413139844
4.872026431718062,0.1824401717116584
4.905396475770925,0.4155928045763445
4.938766519823789,0.6078447878525042
4.972136563876652,0.7093452493794613
5.005506607929515,0.695986008652073
5.038876651982379,0.5776619223158961
5.072246696035243,0.3939520727424771
5.105616740088106,0.1986626506904517
5.138986784140969,0.03946462954497232
5.172356828193832,-0.059053190737943344
5.2057268722466965,-0.10214987781006911
5.23909691629956,-0.1192034970695015
5.272466960352423,-0.1484601955447985
5.305837004405286,-0.21898681612660736
5.3392070484581495,-0.3372600866862267
5.372577092511014,-0.4834541585444151
5.405947136563877,-0.618304434112492
5.43931718061674,-0.6972834500498953
5.4726872246696034,-0.6863705752206106
5.506057268722468,-0.5737379315025166
5.539427312775331,-0.37385476179292787
5.572797356828194,-0.12353112786353483
5.606167400881057,0.12815615779940376
5.639537444933921,0.33295326214782184
5.672907488986785,0.4562110946496196
5.706277533039648,0.48611319888462495
5.739647577092511,0.43640294812370856
5.7730176211453745,0.34080527497143437
5.806387665198238,0.23987294518895375
5.839757709251102,0.16444414530394294
5.873127753303965,0.12257893922381298
5.9064977973568284,0.09669399112627214
5.939867841409692,0.05370352272309144
5.973237885462555,-0.035436299018169734
6.006607929515419,-0.17605050704672393
6.039977973568282,-0.3405985777312618
6.073348017621146,-0.47628346863953297
6.106718061674009,-0.5271605899282874
6.140088105726872,-0.4604229469624695
6.173458149779736,-0.28355500732556543
6.2068281938325995,-0.04321805081685657
6.240198237885463,0.19391213409084979
6.273568281938326,0.36869093300410705
6.306938325991189,0.451614223669585
6.3403083700440535,0.44920062528287513
6.373678414096917,0.3933921233638122
6.40704845814978,0.32177572401861726
6.440418502202643,0.26019991356750366
6.4737885462555065,0.21611476809826108
6.507158590308371,0.18346906089089882
6.540528634361234,0.1533388555743072
6.573898678414097,0.12248318131157925
6.60726872246696,0.09502553271075392
6.640638766519824,0.0776468310960677
6.674008810572688,0.07254938334302224
6.707378854625551,0.07310204392966034
6.740748898678414,0.0648631628740502
6.774118942731278,0.03138275655112574
6.807488986784141,-0.038312417774960715
6.840859030837005,-0.14428596894726597
6.874229074889868,-0.27482398064570646
6.9075991189427315,-0.41036117346281126
6.940969162995595,-0.5302058728065396
6.974339207048458,-0.6188794283515847
7.007709251101322,-0.6692313699342121
7.041079295154185,-0.6812181029073534
7.074449339207049,-0.6575391742571045
7.107819383259912,-0.5990393504753961
7.141189427312775,-0.5029172782839616
7.174559471365639,-0.3651286927605098
7.207929515418503,-0.18577422354441214
7.241299559471366,0.02577785581769181
7.274669603524229,0.249490238112544
7.308039647577092,0.4585843780528696
7.3414096916299565,0.6274899210772997
7.37477973568282,0.7401255914097123
7.408149779735683,0.7942927713634785
7.441519823788546,0.7996903986498864
7.47488986784141,0.770340919866459
7.508259911894274,0.7154702803310664
7.541629955947137,0.6342590859597631
7.575,0.5182086830793429
7.608370044052863,0.360581791702496
7.641740088105728,0.1676988488566432
7.675110132158591,-0.03526074881427249
7.708480176211454,-0.2090921986194913
7.741850220264317,-0.31540449603418336
7.775220264317181,-0.33470797960502363
7.808590308370045,-0.27823474694141176
7.841960352422908,-0.18645090704398734
7.875330396475771,-0.11369503525544764
7.9087004405286345,-0.10533378449951553
7.942070484581498,-0.1776402928155259
7.975440528634362,-0.3095355405475886
8.008810572687224,-0.4501491017680448
8.042180616740088,-0.5393520276657783
8.075550660792953,-0.5328919618014006
8.108920704845815,-0.4216905126050005
8.142290748898679,-0.23703988715100624
8.175660792951541,-0.03908037645904835
8.209030837004406,0.10708285959136993
8.24240088105727,0.15778846928382154
8.275770925110132,0.1084302526813095
8.309140969162996,-0.005548125947150194
8.342511013215859,-0.12482418479633066
8.375881057268723,-0.19226307629937628
8.409251101321587,-0.17704357400006746
8.44262114537445,-0.0860739240241874
8.475991189427313,0.04184944360981386
8.509361233480176,0.15548543254472552
8.54273127753304,0.21450207062679055
8.576101321585904,0.20600480470610877
8.609471365638766,0.14752149435632142
8.64284140969163,0.0763449799645859
8.676211453744493,0.03099895064632317
8.709581497797357,0.03331150804101855
8.742951541850221,0.07861088246961342
8.776321585903084,0.13786846503644679
8.809691629955948,0.1708177075546298
8.84306167400881,0.144798720726414
8.876431718061674,0.0516873854164115
8.909801762114538,-0.08435555928939266
8.9431718061674,-0.2123783409416272
8.976541850220265,-0.2723686926118318
9.009911894273127,-0.21905994439129883
9.043281938325991,-0.042467379301277426
9.076651982378856,0.22380777106921282
9.110022026431718,0.5111406583384228
9.143392070484582,0.7390142987682904
9.176762114537445,0.8437742046878305
9.210132158590309,0.8009760804773477
9.243502202643173,0.6317102555869804
9.276872246696035,0.3904402334844495
9.3102422907489,0.14041279468051823
9.343612334801762,-0.07172394101563472
9.376982378854626,-0.23067417861690054
9.41035242290749,-0.35096364199132546
9.443722466960352,-0.46158104886872997
9.477092511013216,-0.5854606830724203
9.510462555066079,-0.7239323361184612
9.543832599118943,-0.8529040865506105
9.577202643171807,-0.9316527427547103
9.61057268722467,-0.9196587486801904
9.643942731277534,-0.79406089888219
9.677312775330396,-0.5606777442985692
9.71068281938326,-0.25454656931944547
9.744052863436124,0.06980903958666125
9.777422907488987,0.3543303257811115
9.81079295154185,0.5535542611677353
9.844162995594713,0.6453884794062263
9.877533039647577,0.6335364358601387
9.910903083700441,0.5419029278520343
9.944273127753304,0.40404611588756023
9.977643171806168,0.25202125697883737
10.01101321585903,0.10858607307004486
10.044383259911895,-0.014998609710466085
10.077753303964759,-0.11582502595094739
10.111123348017621,-0.19343205050210255
10.144493392070485,-0.2448244914189801
10.177863436123348,-0.2632942348947144
10.211233480176212,-0.24150145273287094
10.244603524229076,-0.1766580502357881
10.277973568281938,-0.07449427668755715
10.311343612334802,0.05034072373441567
10.344713656387665,0.17752182538181185
10.378083700440529,0.28609083847150707
10.411453744493393,0.3590532859841357
10.444823788546255,0.38626870889134624
10.47819383259912,0.3656359626867859
10.511563876651982,0.30308352625464124
10.544933920704846,0.21152763488877951
10.57830396475771,0.10850253231138875
10.611674008810573,0.012361980932270719
10.645044052863437,-0.0621600070118976
10.678414096916299,-0.1073620805813533
10.711784140969163,-0.1232721493868212
10.745154185022027,-0.11510293178366962
10.77852422907489,-0.08881469525738804
10.811894273127754,-0.04758892981301445
10.845264317180618,0.008114633649615411
10.87863436123348,0.07633353534909185
10.912004405286345,0.14768871324001992
10.945374449339207,0.20230744363078512
10.978744493392071,0.21341736480339696
11.012114537444935,0.15789394163445564
11.045484581497798,0.029471366923982917
11.078854625550662,-0.15247098384159777
11.112224669603524,-0.3446341711825931
11.145594713656388,-0.4934002380702782
11.178964757709252,-0.5554923509575059
11.212334801762115,-0.5165350239046402
11.245704845814979,-0.3983631342654102
11.279074889867841,-0.2506415014846008
11.312444933920705,-0.1296969802792579
11.34581497797357,-0.07389262888057789
11.379185022026432,-0.08708067483101935
11.412555066079296,-0.1382393056980809
11.445925110132158,-0.1776892970672084
11.479295154185023,-0.16202935014610728
11.512665198237887,-0.07545505957550415
11.546035242290749,0.06300840385393545
11.579405286343613,0.2094742769035563
11.612775330396476,0.3166038175207775
11.64614537444934,0.3551722970370737
11.679515418502204,0.32521311174287576
11.712885462555066,0.2523487257757797
11.74625550660793,0.1728156670870203
11.779625550660793,0.1159287020758367
11.812995594713657,0.09286874409649196
11.846365638766521,0.09630423188336662
11.879735682819383,0.10928750896988493
11.913105726872248,0.11733709418727721
11.94647577092511,0.11665500442206102
11.979845814977974,0.11418708558999172
12.013215859030838,0.12015670748045613
12.0465859030837,0.13821084235361947
12.079955947136565,0.15989695525287512
12.113325991189427,0.16771022191670068
12.146696035242291,0.1455955767810935
12.180066079295155,0.0907002698151716
12.213436123348018,0.018654519908591398
12.246806167400882,-0.04202024472560692
12.280176211453744,-0.06438939894875867
12.313546255506608,-0.03884332059462396
12.346916299559473,0.01895980355505773
12.380286343612335,0.0732410102895876
12.413656387665199,0.08470140645370083
12.447026431718061,0.030602491109882536
12.480396475770926,-0.08197952492466495
12.51376651982379,-0.21701043433015238
12.547136563876652,-0.3247638248926865
12.580506607929516,-0.36436256250936183
12.613876651982379,-0.322550650327112
12.647246696035243,-0.2194952377497267
12.680616740088107,-0.0990913876041466
12.71398678414097,-0.009043859998424407
12.747356828193833,0.019340549012376935
12.780726872246696,-0.017536359802233833
12.81409691629956,-0.09713181376457579
12.847466960352424,-0.18279386060019912
12.880837004405286,-0.2396454441234214
12.91420704845815,-0.24729481020434618
12.947577092511013,-0.20503060351750738
12.980947136563877,-0.12895752617767375
13.014317180616741,-0.04358162965238036
13.047687224669604,0.028228251676250253
13.081057268722468,0.07316487536081852
13.11442731277533,0.0908646723319261
13.147797356828194,0.09215320189202279
13.181167400881058,0.09331589435408826
13.21453744493392,0.10871873350953559
13.247907488986785,0.1444035264710439
13.281277533039647,0.19478169656679742
13.314647577092511,0.24353045114703373
13.348017621145376,0.2685622777016169
13.381387665198238,0.24973776472483702
13.414757709251102,0.1770463873371425
13.448127753303964,0.0565407907691293
13.481497797356829,-0.08837852790341438
13.514867841409693,-0.22155380572456393
13.548237885462555,-0.3038855719442245
13.58160792951542,-0.30567128175447283
13.614977973568282,-0.21731601455987715
13.648348017621146,-0.05418879569482863
13.68171806167401,0.14690637299777248
13.715088105726872,0.339049552533984
13.748458149779736,0.48034219724258215
13.781828193832599,0.5468720109376821
13.815198237885463,0.5380750035765095
13.848568281938327,0.4722975575504887
13.88193832599119,0.37498731953594056
13.915308370044054,0.2657168106247425
13.948678414096916,0.1509806635185804
13.98204845814978,0.026588452152467093
14.015418502202644,-0.11210859431781708
14.048788546255507,-0.2588328606767006
14.08215859030837,-0.3916787418178965
14.115528634361233,-0.47933726817617295
14.148898678414097,-0.4959689443890528
14.182268722466961,-0.4367158343302747
14.215638766519824,-0.3243900833775721
14.249008810572688,-0.20195846619046964
14.28237885462555,-0.11321870399810968
14.315748898678414,-0.08133343137552732
14.349118942731279,-0.09725353652614589
14.382488986784141,-0.1255248539107922
14.415859030837005,-0.1254851028789878
14.449229074889868,-0.07664213759134945
14.482599118942732,0.006322984593088961
14.515969162995596,0.07847948178756718
14.549339207048458,0.0881187968326459
14.582709251101322,0.006661050159091733
14.616079295154185,-0.15142889376631216
14.649449339207049,-0.33037859472452064
14.682819383259913,-0.4568132075045311
14.716189427312775,-0.4739724754369962
14.74955947136564,-0.3691363659116918
14.782929515418502,-0.18012335766283072
14.816299559471366,0.02277827849654803
14.84966960352423,0.17067879497976537
14.883039647577093,0.22895916767547095
14.916409691629957,0.21271809307655962
14.94977973568282,0.17695392939680255
14.983149779735683,0.1862352075299503
15.016519823788547,0.27900365530222776
15.04988986784141,0.4446336786012828
15.083259911894274,0.6252912603015728
15.116629955947138,0.7423316519083072
15.15,0.7345410156582407
15.183370044052865,0.5893235341563875
15.216740088105727,0.3512574632461444
15.250110132158591,0.10365389078769839
15.283480176211455,-0.06793652342389019
15.316850220264318,-0.11274455867330563
15.350220264317182,-0.03515606895328112
15.383590308370044,0.11006372809116914
15.416960352422908,0.24403843277904586
15.450330396475772,0.2984414844354353
15.483700440528635,0.24291020173093286
15.517070484581499,0.09422486907459901
15.550440528634361,-0.09499564761500318
15.583810572687225,-0.2618134723171316
15.61718061674009,-0.3613940249558274
15.650550660792952,-0.38660657608295157
15.683920704845816,-0.37074801221097764
15.717290748898678,-0.37172202274804045
15.750660792951543,-0.44335101503149255
15.784030837004407,-0.6055084573044902
15.817400881057269,-0.8267759049856958
15.850770925110133,-1.0294700616904533
15.884140969162996,-1.1176654050485344
15.91751101321586,-1.0178510523133064
15.950881057268724,-0.7145086730141578
15.984251101321586,-0.2635548307530658
16.01762114537445,0.22415663693625318
16.050991189427315,0.6232839096155532
16.084361233480177,0.8409318641900045
16.11773127753304,0.8494217517224426
16.151101321585905,0.6910874438242577
16.184471365638768,0.4546342796853206
16.21784140969163,0.23560808969735755
16.251211453744492,0.09976153118740193
16.284581497797358,0.06489040515356057
16.31795154185022,0.10633079854688628
16.351321585903083,0.17952043161410672
16.38469162995595,0.2458350384485581
16.41806167400881,0.2884480746067455
16.451431718061674,0.31214810822743627
16.48480176211454,0.33049318655139265
16.518171806167402,0.35018964770804084
16.551541850220264,0.3629094155315241
16.584911894273127,0.349233982606629
16.618281938325993,0.291594124109089
16.651651982378855,0.1876196299399148
16.685022026431717,0.055275611439061
16.718392070484583,-0.07369386269629147
16.751762114537446,-0.1683988807838933
16.785132158590308,-0.21309259363690425
16.818502202643174,-0.21297013905718115
16.851872246696036,-0.1884518489567373
16.8852422907489,-0.161785591345051
16.91861233480176,-0.1442710278586383
16.951982378854627,-0.13181759066893425
16.98535242290749,-0.11131497470015467
17.01872246696035,-0.07361841528340778
17.052092511013218,-0.024819612247836565
17.08546255506608,0.011707296650400968
17.118832599118942,0.004724084703084501
17.152202643171808,-0.06846589166405155
17.18557268722467,-0.20746870886942717
17.218942731277533,-0.384450931972663
17.2523127753304,-0.5531039099974372
17.28568281938326,-0.6668765571573056
