Time (s),Filtered Signal
0.0,-0.03646819571450336
0.03337004405286344,0.04016157803854294
0.06674008810572687,0.09301325925277637
0.10011013215859031,0.1054746884360856
0.13348017621145375,0.07328340829222596
0.16685022026431717,0.00485260970190589
0.20022026431718062,-0.08259638665916287
0.23359030837004408,-0.16926994672162485
0.2669603524229075,-0.2388999095722816
0.3003303964757709,-0.28262227728626244
0.33370044052863435,-0.29972580110456715
0.3670704845814978,-0.2956344385421176
0.40044052863436125,-0.2783446502663196
0.43381057268722467,-0.25480362560694303
0.46718061674008815,-0.22849282374132351
0.5005506607929515,-0.198939849000355
0.533920704845815,-0.16315840149959196
0.5672907488986785,-0.11829590461185661
0.6006607929515418,-0.06431482925892489
0.6340308370044053,-0.005547818321863452
0.6674008810572687,0.0495759935110817
0.7007709251101322,0.0906720486101926
0.7341409691629956,0.10884618114333358
0.767511013215859,0.10048150986561107
0.8008810572687225,0.0701953726683996
0.834251101321586,0.03175873197249834
0.8676211453744493,0.0059960404848040565
0.9009911894273128,0.015359585894384081
0.9343612334801763,0.07608034748676101
0.9677312775330397,0.19025188023434145
1.001101321585903,0.3411810920183235
1.0344713656387665,0.49498731386683015
1.06784140969163,0.6093782559228448
1.1012114537444935,0.6473872220909084
1.134581497797357,0.5911076776791995
1.1679515418502202,0.449688269968775
1.2013215859030837,0.25773898675288504
1.2346916299559472,0.06414403994281026
1.2680616740088106,-0.0846780884048496
1.3014317180616741,-0.16066304030242218
1.3348017621145374,-0.1630965992178756
1.3681718061674009,-0.1175135688174487
1.4015418502202643,-0.06526607561737365
1.4349118942731278,-0.04793717919958506
1.4682819383259913,-0.09236116313183239
1.5016519823788548,-0.20140502751109549
1.535022026431718,-0.3533534714443922
1.5683920704845815,-0.5096827645625326
1.601762114537445,-0.6282222393402218
1.6351321585903085,-0.6770051301987267
1.668502202643172,-0.6440175472843316
1.7018722466960352,-0.5396521712139978
1.7352422907488987,-0.3914678920622597
1.7686123348017622,-0.23379269976424602
1.8019823788546256,-0.09653866943085096
1.8353524229074891,0.0025069244888264613
1.8687224669603526,0.059630748202383975
1.9020925110132159,0.08195562439868213
1.9354625550660793,0.08183873596262353
1.9688325991189428,0.07219571306690221
2.002202643171806,0.06457920369753836
2.0355726872246698,0.0695022559306721
2.068942731277533,0.09689054924696389
2.1023127753303967,0.15474062318964646
2.13568281938326,0.2458118152006634
2.1690528634361232,0.3641263699947445
2.202422907488987,0.49375061637255646
2.23579295154185,0.61131626038644
2.269162995594714,0.6917803547218476
2.302533039647577,0.715313063682482
2.3359030837004404,0.6727945093085943
2.369273127753304,0.5681503182403543
2.4026431718061674,0.417023475566286
2.436013215859031,0.2424414005571472
2.4693832599118943,0.06890035970619839
2.5027533039647576,-0.08339219811027782
2.5361233480176213,-0.2025166420879067
2.5694933920704845,-0.2860893566937521
2.6028634361233483,-0.33971060560316957
2.6362334801762115,-0.3734899906338014
2.6696035242290748,-0.3980374557951713
2.7029735682819385,-0.4212183019272132
2.7363436123348017,-0.44643767395016554
2.7697136563876654,-0.4725782846433703
2.8030837004405287,-0.49521511973872495
2.8364537444933924,-0.5084441328411456
2.8698237885462556,-0.5065956080086788
2.903193832599119,-0.48529779758428837
2.9365638766519826,-0.44180375143733935
2.969933920704846,-0.3749878752212449
3.0033039647577096,-0.28558995114494085
3.036674008810573,-0.1768922826125495
3.070044052863436,-0.055273007096945985
3.1034140969162998,0.07035474430761535
3.136784140969163,0.19072452876823698
3.1701541850220267,0.299226287832057
3.20352422907489,0.39380326968317175
3.2368942731277532,0.47595407723733457
3.270264317180617,0.5468125896285536
3.30363436123348,0.6025781061375488
3.337004405286344,0.6326727069605705
3.370374449339207,0.6228226525105763
3.4037444933920704,0.5622893165388897
3.437114537444934,0.45154691084615983
3.4704845814977974,0.3057687977811529
3.503854625550661,0.1513180354631583
3.5372246696035243,0.016144565950867728
3.5705947136563876,-0.0814827719907419
3.6039647577092513,-0.14018953236861784
3.6373348017621145,-0.17475847850744775
3.6707048458149782,-0.20761922158448853
3.7040748898678415,-0.2568398570291973
3.737444933920705,-0.3266936103162084
3.7708149779735685,-0.4053679851715405
3.8041850220264317,-0.47052825236306706
3.8375550660792954,-0.49951288673621946
3.8709251101321587,-0.4790443057984163
3.9042951541850224,-0.4101987143202861
3.9376651982378856,-0.3071007381814929
3.971035242290749,-0.19071636359113145
4.004405286343612,-0.08086516682746084
4.037775330396476,0.010257732887999109
4.0711453744493395,0.08080288508415766
4.104515418502203,0.13760068161529015
4.137885462555066,0.19111063071468193
4.171255506607929,0.24919714068905807
4.2046255506607935,0.31235541953706575
4.237995594713657,0.372410554264701
4.27136563876652,0.41525103502415484
4.304735682819383,0.4264274101462218
4.3381057268722465,0.3972417162441629
4.371475770925111,0.3288228351373052
4.404845814977974,0.23260728830598212
4.438215859030837,0.12710111251546943
4.4715859030837,0.032141603522554754
4.504955947136564,-0.0373127442864469
4.538325991189428,-0.07570388029782708
4.571696035242291,-0.08809506285438208
4.605066079295154,-0.08760770313813733
4.638436123348018,-0.08999858004091578
4.671806167400881,-0.10745981780527204
4.705176211453745,-0.1440937474531448
4.738546255506608,-0.19485826858981004
4.7719162995594715,-0.24832033599422834
4.805286343612335,-0.29190490258210877
4.838656387665198,-0.3172237756687069
4.872026431718062,-0.3230529477663483
4.905396475770925,-0.31465363856705336
4.938766519823789,-0.29990293823243525
4.972136563876652,-0.28428733640774867
5.005506607929515,-0.2674522690105827
5.038876651982379,-0.24332424889535934
5.072246696035243,-0.2040229185016221
5.105616740088106,-0.14561903704257353
5.138986784140969,-0.07238937898616282
5.172356828193832,0.0034500667454638845
5.2057268722466965,0.06729971629131333
5.23909691629956,0.11060716050741978
5.272466960352423,0.13748224805717668
5.305837004405286,0.16504495719760812
5.3392070484581495,0.21605467830305183
5.372577092511014,0.3066487582046522
5.405947136563877,0.4351692126786528
5.43931718061674,0.5781891038317153
5.4726872246696034,0.6967036982292064
5.506057268722468,0.7505352864207084
5.539427312775331,0.7147934965556244
5.572797356828194,0.5909198938354007
5.606167400881057,0.4071810878642741
5.639537444933921,0.20832998235721062
5.672907488986785,0.039066291090927845
5.706277533039648,-0.07156744953960296
5.739647577092511,-0.11870690015499334
5.7730176211453745,-0.12059772337781187
5.806387665198238,-0.109590659509097
5.839757709251102,-0.11949592508155821
5.873127753303965,-0.17395365672502824
5.9064977973568284,-0.2791671385721739
5.939867841409692,-0.4225005416336621
5.973237885462555,-0.5767842851790508
6.006607929515419,-0.7088006029429749
6.039977973568282,-0.7893084857964152
6.073348017621146,-0.8014017648323847
6.106718061674009,-0.7444550990715376
6.140088105726872,-0.6325203134416559
6.173458149779736,-0.4882187976980097
6.2068281938325995,-0.33491079409438357
6.240198237885463,-0.19033884725674746
6.273568281938326,-0.06384170177644298
6.306938325991189,0.042775608363364234
6.3403083700440535,0.13242838873527066
6.373678414096917,0.21025829605723886
6.40704845814978,0.2827104734072607
6.440418502202643,0.35757860675122466
6.4737885462555065,0.44311167000391055
6.507158590308371,0.5446684762973917
6.540528634361234,0.6594614446469922
6.573898678414097,0.7722825599293154
6.60726872246696,0.8559145176216328
6.640638766519824,0.8782087406469725
6.674008810572688,0.8142268286221418
6.707378854625551,0.6584205858404537
6.740748898678414,0.4307391955468671
6.774118942731278,0.1727553222483329
6.807488986784141,-0.06552908554194375
6.840859030837005,-0.24295407379201217
6.874229074889868,-0.3411701742372771
6.9075991189427315,-0.3693883696258101
6.940969162995595,-0.358267959460762
6.974339207048458,-0.34613812817860634
7.007709251101322,-0.3637571205974228
7.041079295154185,-0.4237155814945575
7.074449339207049,-0.5178071140525466
7.107819383259912,-0.621942288040916
7.141189427312775,-0.7054221312536555
7.174559471365639,-0.7406798648906853
7.207929515418503,-0.7106693089754081
7.241299559471366,-0.6127490415027605
7.274669603524229,-0.45905690411506817
7.308039647577092,-0.2736583378195536
7.3414096916299565,-0.08670578821513261
7.37477973568282,0.07374901348808073
7.408149779735683,0.19051246349038004
7.441519823788546,0.2635375471605729
7.47488986784141,0.3104798368872635
7.508259911894274,0.3599126209569817
7.541629955947137,0.43882484459276083
7.575,0.5592644484933965
7.608370044052863,0.7102304060938531
7.641740088105728,0.859052226932479
7.675110132158591,0.962220677598645
7.708480176211454,0.9811820357506785
7.741850220264317,0.896401036316938
7.775220264317181,0.7141161163435742
7.808590308370045,0.4637903507350032
7.841960352422908,0.18821008408211798
7.875330396475771,-0.06939947369408905
7.9087004405286345,-0.27666726021403787
7.942070484581498,-0.41865786599178295
7.975440528634362,-0.49866671806660906
8.008810572687224,-0.5339328648544354
8.042180616740088,-0.5481221830838928
8.075550660792953,-0.5629549923282522
8.108920704845815,-0.5913395809703228
8.142290748898679,-0.6338492278635249
8.175660792951541,-0.6793606142272169
8.209030837004406,-0.7093630184489346
8.24240088105727,-0.7043158709665691
8.275770925110132,-0.6499697653528731
8.309140969162996,-0.5419204452989926
8.342511013215859,-0.3874987124189975
8.375881057268723,-0.20486810156668123
8.409251101321587,-0.01961203862451423
8.44262114537445,0.1407133716884139
8.475991189427313,0.25326005143021896
8.509361233480176,0.30640501833145034
8.54273127753304,0.3041188311608329
8.576101321585904,0.26618177794313536
8.609471365638766,0.22321998410147734
8.64284140969163,0.20737937648014335
8.676211453744493,0.24142294051355997
8.709581497797357,0.3301352281730541
8.742951541850221,0.45748772640070956
8.776321585903084,0.591092476724409
8.809691629955948,0.6927484507093294
8.84306167400881,0.7314258578916494
8.876431718061674,0.6938568140259012
8.909801762114538,0.5885958518938404
8.9431718061674,0.44185767105183965
8.976541850220265,0.2867538387570004
9.009911894273127,0.15038801522875375
9.043281938325991,0.04435407182116693
9.076651982378856,-0.03713693287126583
9.110022026431718,-0.11066607329729512
9.143392070484582,-0.19183423438753772
9.176762114537445,-0.2844532820263194
9.210132158590309,-0.37671723161369614
9.243502202643173,-0.4468675442861534
9.276872246696035,-0.47558742888681405
9.3102422907489,-0.45827290144648614
9.343612334801762,-0.4100134759022093
9.376982378854626,-0.35998122597986004
9.41035242290749,-0.33778314611015536
9.443722466960352,-0.35874665951850954
9.477092511013216,-0.4156096121034695
9.510462555066079,-0.48063721470129533
9.543832599118943,-0.5169772119106577
9.577202643171807,-0.49392958084590144
9.61057268722467,-0.39953665596955024
9.643942731277534,-0.2455332433347297
9.677312775330396,-0.06302387871078242
9.71068281938326,0.10919852012153966
9.744052863436124,0.23912295077330253
9.777422907488987,0.31314431865470527
9.81079295154185,0.34012362194432216
9.844162995594713,0.34600443335348086
9.877533039647577,0.36102965261505987
9.910903083700441,0.4050187343723397
9.944273127753304,0.4773533033231688
9.977643171806168,0.5564206354742033
10.01101321585903,0.6089574312884639
10.044383259911895,0.6050458902156297
10.077753303964759,0.5317935632655814
10.111123348017621,0.3993832863399505
10.144493392070485,0.23688121891372116
10.177863436123348,0.08004797219490628
10.211233480176212,-0.043011279277527466
10.244603524229076,-0.12186194590094605
10.277973568281938,-0.16530561798073293
10.311343612334802,-0.19444601426721325
10.344713656387665,-0.23095753545498096
10.378083700440529,-0.286085581858541
10.411453744493393,-0.35522929931845615
10.444823788546255,-0.42027251826505957
10.47819383259912,-0.4583419971137119
10.511563876651982,-0.45282293707867977
10.544933920704846,-0.4014724723168207
10.57830396475771,-0.31786545610027545
10.611674008810573,-0.2256224566084012
10.645044052863437,-0.14835311140167437
10.678414096916299,-0.10020262004748873
10.711784140969163,-0.08131037318377783
10.745154185022027,-0.07977592810051683
10.77852422907489,-0.07843646424234262
10.811894273127754,-0.062668658050032
10.845264317180618,-0.02550624812159784
10.87863436123348,0.03169914122149126
10.912004405286345,0.10232069307496813
10.945374449339207,0.17873607345629602
10.978744493392071,0.25524879448049703
11.012114537444935,0.3283488224794735
11.045484581497798,0.39483530449273546
11.078854625550662,0.4496088978774251
11.112224669603524,0.48501368664031824
11.145594713656388,0.4925310215194643
11.178964757709252,0.46610501083002787
11.212334801762115,0.4053189569345456
11.245704845814979,0.3166265641115695
11.279074889867841,0.2118212997518023
11.312444933920705,0.10430591191907082
11.34581497797357,0.004770343044758097
11.379185022026432,-0.0818456368049115
11.412555066079296,-0.1567689078738954
11.445925110132158,-0.22495798735949377
11.479295154185023,-0.29088055250826955
11.512665198237887,-0.3545520050848959
11.546035242290749,-0.4100097666637555
11.579405286343613,-0.4473753235024226
11.612775330396476,-0.4578001473955462
11.64614537444934,-0.43883164765572547
11.679515418502204,-0.39714158043541853
11.712885462555066,-0.3466646990700854
11.74625550660793,-0.3025704130283248
11.779625550660793,-0.27388603221080876
11.812995594713657,-0.25861698873034505
11.846365638766521,-0.24417009700534983
11.879735682819383,-0.21324108082793564
11.913105726872248,-0.15246593806482983
11.94647577092511,-0.05958130908109938
11.979845814977974,0.054586349009770066
12.013215859030838,0.17054097866594115
12.0465859030837,0.2690248190024671
12.079955947136565,0.34010777927590197
12.113325991189427,0.3877538476417756
12.146696035242291,0.4271243903137593
12.180066079295155,0.47544603808843355
12.213436123348018,0.5407449232673911
12.246806167400882,0.6142678585753975
12.280176211453744,0.670980278315341
12.313546255506608,0.6786966511532653
12.346916299559473,0.612065790780379
12.380286343612335,0.4650457667701437
12.413656387665199,0.2559966199245335
12.447026431718061,0.022820546709578865
12.480396475770926,-0.18995639184181562
12.51376651982379,-0.3467339074431302
12.547136563876652,-0.43253038053993437
12.580506607929516,-0.456120925746266
12.613876651982379,-0.44370306532086906
12.647246696035243,-0.42623794730093395
12.680616740088107,-0.42615545162305457
12.71398678414097,-0.4490405688675012
12.747356828193833,-0.48338648854960703
12.780726872246696,-0.5077896336406638
12.81409691629956,-0.5018172018955671
12.847466960352424,-0.4555381246244379
12.880837004405286,-0.3737117352107611
12.91420704845815,-0.27318273138795224
12.947577092511013,-0.17491098340512523
12.980947136563877,-0.0941586231275161
13.014317180616741,-0.03304524052984721
13.047687224669604,0.021157950626900342
13.081057268722468,0.0907526019117801
13.11442731277533,0.19694911913903748
13.147797356828194,0.3479799063546926
13.181167400881058,0.5312879511667468
13.21453744493392,0.713933983926085
13.247907488986785,0.8520589561436669
13.281277533039647,0.9061175777663879
13.314647577092511,0.8556702135827008
13.348017621145376,0.7073842512416907
13.381387665198238,0.4927759554279489
13.414757709251102,0.2567581386888933
13.448127753303964,0.04202421099350284
13.481497797356829,-0.1241779317491823
13.514867841409693,-0.2358204271048057
13.548237885462555,-0.30496181029252906
13.58160792951542,-0.3521735775042565
13.614977973568282,-0.39546237089825736
13.648348017621146,-0.4426486064526719
13.68171806167401,-0.48993146259359416
13.715088105726872,-0.5261168746193859
13.748458149779736,-0.5394009150145951
13.781828193832599,-0.5229652892198442
13.815198237885463,-0.4770915872893921
13.848568281938327,-0.40792823819715857
13.88193832599119,-0.32480859275628043
13.915308370044054,-0.23807339371148775
13.948678414096916,-0.1579675823521712
13.98204845814978,-0.09368435367401237
14.015418502202644,-0.05132666889849284
14.048788546255507,-0.030723800402332448
14.08215859030837,-0.022749793900004034
14.115528634361233,-0.009639656075193515
14.148898678414097,0.030088343704418267
14.182268722466961,0.11288666537820519
14.215638766519824,0.24103771085492623
14.249008810572688,0.39782385005585097
14.28237885462555,0.5505101300428152
14.315748898678414,0.6611333940136473
14.349118942731279,0.7009245877741772
14.382488986784141,0.6617547074842652
14.415859030837005,0.5589981079265826
14.449229074889868,0.4244076089487258
14.482599118942732,0.2926941070849716
14.515969162995596,0.18850613475203576
14.549339207048458,0.1197024044902974
14.582709251101322,0.07890476886226562
14.616079295154185,0.05085927849482689
14.649449339207049,0.020740339599157633
14.682819383259913,-0.020746640237731245
14.716189427312775,-0.07673940741043643
14.74955947136564,-0.14641904866773706
14.782929515418502,-0.2271845362721902
14.816299559471366,-0.3149154745597972
14.84966960352423,-0.4025895066026298
14.883039647577093,-0.4792388630162821
14.916409691629957,-0.5313310968143269
14.94977973568282,-0.5471068267605252
14.983149779735683,-0.5222407207451073
15.016519823788547,-0.4637922154660186
15.04988986784141,-0.38966672152915166
15.083259911894274,-0.3226805842093572
15.116629955947138,-0.28095813866438346
15.15,-0.2685499639732945
15.183370044052865,-0.2707629617819032
15.216740088105727,-0.25726361983259094
15.250110132158591,-0.19295309114788262
15.283480176211455,-0.05310723950756325
15.316850220264318,0.1631327122450587
15.350220264317182,0.42692314895013606
15.383590308370044,0.6850117483703201
15.416960352422908,0.8753369652870766
15.450330396475772,0.9477285904395415
15.483700440528635,0.8819252154733366
15.517070484581499,0.6956184565446435
15.550440528634361,0.4388644583371942
15.583810572687225,0.17664973044638563
15.61718061674009,-0.033622040934246665
15.650550660792952,-0.1607218998313699
15.683920704845816,-0.20693076311116035
15.717290748898678,-0.20169496017561353
15.750660792951543,-0.18511004930233702
15.784030837004407,-0.1889603571957308
15.817400881057269,-0.22367104708281774
15.850770925110133,-0.2764122313764503
15.884140969162996,-0.3202870550358766
15.91751101321586,-0.3295235736304037
15.950881057268724,-0.29314349801467043
15.984251101321586,-0.22072774394401673
16.01762114537445,-0.13796320342351778
16.050991189427315,-0.07460036221357172
16.084361233480177,-0.050883149908755414
16.11773127753304,-0.06884948724363234
16.151101321585905,-0.11214248710137861
16.184471365638768,-0.15367557120344236
16.21784140969163,-0.16692928649357253
16.251211453744492,-0.13555211507930837
16.284581497797358,-0.05755695348512728
16.31795154185022,0.05646392194949771
16.351321585903083,0.18887616488265113
16.38469162995595,0.32094423151561824
16.41806167400881,0.43663235293729247
16.451431718061674,0.5236378077382293
16.48480176211454,0.5727946657042674
16.518171806167402,0.577633506284841
16.551541850220264,0.5352173095105065
16.584911894273127,0.44798752881247605
16.618281938325993,0.32520333062969664
16.651651982378855,0.18238365785796004
16.685022026431717,0.03809129857953971
16.718392070484583,-0.09109919061494749
16.751762114537446,-0.1954025841956484
16.785132158590308,-0.27416324345357246
16.818502202643174,-0.33451496719048823
16.851872246696036,-0.3868446331009868
16.8852422907489,-0.4390406216097592
16.91861233480176,-0.4920287217811149
16.951982378854627,-0.5384676573986124
16.98535242290749,-0.5651444705139346
17.01872246696035,-0.5582471680914054
17.052092511013218,-0.5097180771664189
17.08546255506608,-0.42238264977336204
17.118832599118942,-0.3115456079556597
17.152202643171808,-0.20151296662880494
17.18557268722467,-0.1172921821313383
17.218942731277533,-0.07419787924670032
17.2523127753304,-0.07000728558762911
