Frequency (Hz),Amplitude
0.0,0.43041015528967996
0.019801980198019802,0.434783799412673
0.039603960396039604,0.44763162026634323
0.0594059405940594,0.468208499294177
0.07920792079207921,0.4954770066396906
0.09900990099009901,0.5283033647700254
0.1188118811881188,0.5656028668653131
0.13861386138613863,0.6064171896388799
0.15841584158415842,0.649938446449964
0.1782178217821782,0.6955025990632394
0.19801980198019803,0.7425697658896441
0.21782178217821782,0.7907015911727259
0.2376237623762376,0.8395403909666403
0.25742574257425743,0.8887916924269289
0.27722772277227725,0.9382103075515913
0.297029702970297,0.9875895054035304
0.31683168316831684,1.0367526999110341
0.33663366336633666,1.0855471021080203
0.3564356435643564,1.1338388759081548
0.37623762376237624,1.18150943361946
0.39603960396039606,1.2284525924805552
0.4158415841584158,1.2745723819191033
0.43564356435643564,1.3197813439634722
0.45544554455445546,1.3639992089830033
0.4752475247524752,1.4071518585495895
0.495049504950495,1.4491705091772182
0.5148514851485149,1.4899910669699024
0.5346534653465347,1.5295536152863882
0.5544554455445545,1.5678020065237799
0.5742574257425742,1.6046835358489822
0.594059405940594,1.6401486797636569
0.613861386138614,1.6741508862107326
0.6336633663366337,1.7066464058370134
0.6534653465346534,1.7375941562486388
0.6732673267326733,1.766955612806389
0.6930693069306931,1.7946947208313535
0.7128712871287128,1.8207778251218187
0.7326732673267327,1.8451736134894103
0.7524752475247525,1.8678530716584654
0.7722772277227723,1.8887894473763907
0.7920792079207921,1.9079582219850169
0.8118811881188118,1.9253370880249518
0.8316831683168316,1.9409059317057547
0.8514851485148516,1.9546468192861313
0.8712871287128713,1.9665439865820198
0.891089108910891,1.9765838309638677
0.9108910891089109,1.9847549053237257
0.9306930693069307,1.9910479135940817
0.9504950495049505,1.9954557074865045
0.9702970297029703,1.9979732841934164
0.99009900990099,1.9985977848629888
1.00990099009901,1.9973284937173654
1.0297029702970297,1.9941668377410648
1.0495049504950495,1.9891163869200286
1.0693069306930694,1.9821828550654803
1.0891089108910892,1.9733741013109019
1.108910891089109,1.9627001324280302
1.1287128712871286,1.9501731061695646
1.1485148514851484,1.9358073359150538
1.1683168316831685,1.9196192969748447
1.188118811881188,1.9016276349967565
1.2079207920792079,1.8818531770262952
1.227722772277228,1.8603189458972569
1.2475247524752475,1.837050178780786
1.2673267326732673,1.8120743509049129
1.2871287128712872,1.78542120568127
1.3069306930693068,1.7571227927533286
1.3267326732673268,1.7272135158240232
1.3465346534653466,1.695730192550836
1.3663366336633662,1.6627121293366836
1.3861386138613863,1.6282012145275377
1.405940594059406,1.5922420343972603
1.4257425742574257,1.5548820174114697
1.4455445544554455,1.5161716136941048
1.4653465346534653,1.4761645184738574
1.4851485148514851,1.4349179507028342
1.504950495049505,1.3924930012059322
1.5247524752475248,1.3489550688936556
1.5445544554455446,1.3043744091071972
1.5643564356435644,1.2588268255477435
1.5841584158415842,1.2123945471364022
1.6039603960396038,1.1651673444697848
1.6237623762376237,1.117243958516335
1.6435643564356437,1.068733938503725
1.6633663366336633,1.0197600187458242
1.683168316831683,0.9704612081476102
1.7029702970297032,0.9209968243290775
1.7227722772277227,0.8715517793188468
1.7425742574257426,0.8223435156602902
1.7623762376237624,0.7736310931053731
1.782178217821782,0.7257270107234413
1.801980198019802,0.6790123492166651
1.8217821782178218,0.63395557917438
1.8415841584158414,0.5911345882286986
1.8613861386138615,0.5512595694853362
1.881188118811881,0.5151905767121718
1.900990099009901,0.4839371938561621
1.920792079207921,0.45862013509085175
1.9405940594059405,0.44037190498432005
1.9603960396039604,0.43016851705800574
1.98019801980198,0.4286256373452047
2.0,0.4358408302226393
2.01980198019802,0.4513664180674242
2.0396039603960396,0.47432904600494025
2.0594059405940595,0.5036284012746609
2.0792079207920793,0.5381244800276492
2.099009900990099,0.5767616668055218
2.118811881188119,0.6186260588528981
2.1386138613861387,0.6629564494775474
2.1584158415841586,0.7091311898574669
2.1782178217821784,0.7566461813228477
2.1980198019801978,0.8050921267609794
2.217821782178218,0.8541344759056722
2.237623762376238,0.9034970140559251
2.257425742574257,0.9529489393949829
2.2772277227722775,1.002294888409819
2.297029702970297,1.0513673093090499
2.3168316831683167,1.100020649394296
2.336633663366337,1.148126922341603
2.3564356435643563,1.1955723180475462
2.376237623762376,1.2422545988494447
2.3960396039603964,1.2880810897875423
2.4158415841584158,1.3329671191952228
2.4356435643564356,1.3768348022869574
2.455445544554456,1.4196120874156113
2.4752475247524752,1.4612320046503198
2.495049504950495,1.5016320711148814
2.514851485148515,1.540753818500403
2.5346534653465347,1.5785424163405581
2.5544554455445545,1.6149463707568503
2.5742574257425743,1.649917282985873
2.594059405940594,1.6834096554855205
2.6138613861386135,1.7153807360702815
2.633663366336634,1.7457903925578524
2.6534653465346536,1.7746010119750042
2.673267326732673,1.8017774195842902
2.6930693069306932,1.8272868139397604
2.712871287128713,1.8510987149222262
2.7326732673267324,1.8731849222905732
2.7524752475247527,1.893519482750795
2.7722772277227725,1.912078663915979
2.792079207920792,1.9288409338289783
2.811881188118812,1.9437869449614205
2.8316831683168315,1.9568995217990894
2.8514851485148514,1.968163651286083
2.8712871287128716,1.9775664755332805
2.891089108910891,1.9850972863095953
2.910891089108911,1.990747520928789
2.9306930693069306,1.9945107592266218
2.9504950495049505,1.996382721394386
2.9702970297029703,1.996361266498365
2.99009900990099,1.9944463915731359
3.00990099009901,1.990640231231087
3.0297029702970297,1.9849470577833117
3.0495049504950495,1.977373281919809
3.0693069306930694,1.9679274540510576
3.089108910891089,1.9566202664705004
3.108910891089109,1.9434645565604738
3.128712871287129,1.9284753113338322
3.148514851485148,1.911669673683906
3.1683168316831685,1.8930669508081608
3.1881188118811883,1.8726886253805726
3.2079207920792077,1.8505583701786723
3.227722772277228,1.8267020670288883
3.2475247524752473,1.8011478311260902
3.267326732673267,1.7739260420191334
3.2871287128712874,1.7450693828454926
3.3069306930693068,1.714612889761227
3.3267326732673266,1.6825940139666564
3.346534653465347,1.6490526993011017
3.366336633663366,1.6140314791061359
3.386138613861386,1.5775755969834595
3.4059405940594063,1.5397331572624275
3.4257425742574257,1.5005553125282887
3.4455445544554455,1.460096497557012
3.4653465346534653,1.418414721611701
3.485148514851485,1.3755719344868018
3.504950495049505,1.3316344862285305
3.5247524752475248,1.2866737065076352
3.5445544554455446,1.2407666377185418
3.564356435643564,1.1939969667802308
3.5841584158415842,1.146456215351304
3.603960396039604,1.0982452681599306
3.6237623762376234,1.0494763462909227
3.6435643564356437,1.000275569061694
3.6633663366336635,0.9507862976567139
3.683168316831683,0.9011735194310501
3.702970297029703,0.851629616589627
3.722772277227723,0.8023819664218216
3.7425742574257423,0.7537029324598665
3.762376237623762,0.7059228930642341
3.7821782178217824,0.659446928788146
3.801980198019802,0.6147754552620306
3.8217821782178216,0.5725280454293649
3.841584158415842,0.5334672342763943
3.8613861386138613,0.49851430261575047
3.881188118811881,0.4687414524971202
3.9009900990099013,0.4453167738231306
3.9207920792079207,0.4293788697903077
3.9405940594059405,0.4218420065113288
3.96039603960396,0.4231844662339982
3.98019801980198,0.43331757788300085
4.0,0.4516109597091045
4.01980198019802,0.4770586435977758
4.03960396039604,0.5084947072051683
4.0594059405940595,0.544769937637192
4.079207920792079,0.5848543142882805
4.099009900990099,0.6278749774590456
4.118811881188119,0.6731147222499415
4.138613861386139,0.7199925232058683
4.158415841584159,0.7680391405282002
4.178217821782178,0.8168740619396727
4.198019801980198,0.8661860424186305
4.217821782178218,0.9157175720081611
4.237623762376238,0.9652528318094231
4.257425742574258,1.014608488062476
4.2772277227722775,1.0636266974492974
4.297029702970297,1.112169797514999
4.316831683168317,1.160116267805527
4.336633663366336,1.2073576456289028
4.356435643564357,1.2537961592321416
4.376237623762377,1.2993429016945366
4.3960396039603955,1.3439164141808
4.415841584158416,1.3874415807812184
4.435643564356436,1.4298487619183966
4.455445544554455,1.4710731115301536
4.475247524752476,1.511054036689963
4.4950495049504955,1.5497347682880793
4.514851485148514,1.5870620188079976
4.534653465346535,1.6229857087771287
4.554455445544555,1.6574587476416467
4.574257425742574,1.6904368579727578
4.594059405940594,1.7218784343158773
4.613861386138614,1.7517444298371139
4.633663366336633,1.7799982653416337
4.653465346534653,1.8066057563410527
4.673267326732674,1.831535054706948
4.693069306930693,1.854756602123098
4.712871287128713,1.876243093082756
4.732673267326733,1.8959694456013663
4.752475247524752,1.9139127781541732
4.772277227722772,1.9300523916214316
4.792079207920793,1.9443697552448418
4.811881188118812,1.9568484957797039
4.8316831683168315,1.9674743891756206
4.851485148514852,1.9762353542420683
4.871287128712871,1.9831214478588943
4.891089108910891,1.9881248613794769
4.910891089108912,1.9912399179505866
4.930693069306931,1.9924630705396522
4.9504950495049505,1.9917929005199848
4.97029702970297,1.9892301167196857
4.99009900990099,1.9847775548921427
5.00990099009901,1.9784401776169078
5.02970297029703,1.9702250746908494
5.0495049504950495,1.9601414641228179
5.069306930693069,1.9482006939017606
5.089108910891089,1.9344162447708009
5.108910891089109,1.9188037343101347
5.128712871287129,1.9013809227122296
5.148514851485149,1.8821677207271512
5.1683168316831685,1.8611862003673265
5.188118811881188,1.8384606090950069
5.207920792079208,1.8140173883775204
5.227722772277227,1.7878851976934522
5.247524752475248,1.7600949453162906
5.267326732673268,1.7306798275046893
5.2871287128712865,1.6996753781051865
5.306930693069307,1.6671195310477664
5.326732673267327,1.633052698814032
5.346534653465346,1.5975178707202529
5.366336633663367,1.5605607358349816
5.3861386138613865,1.5222298366085383
5.405940594059405,1.4825767609241143
5.425742574257426,1.4416563824091173
5.445544554455446,1.399527161642274
5.465346534653465,1.3562515245890734
5.485148514851486,1.3118963395173804
5.504950495049505,1.2665335202319452
5.524752475247524,1.220240792340956
5.544554455445545,1.1731026712909989
5.564356435643565,1.1252117172773446
5.584158415841584,1.0766701545080015
5.603960396039604,1.0275919729288592
5.623762376237624,0.9781056724018998
5.643564356435643,0.9283578662662051
5.663366336633663,0.8785180375470802
5.683168316831684,0.8287848406049454
5.702970297029703,0.7793944638209755
5.7227722772277225,0.7306317034704352
5.742574257425743,0.6828445039515314
5.762376237623762,0.6364626852967814
5.782178217821782,0.5920211523984369
5.801980198019803,0.5501865432494797
5.821782178217822,0.5117831167020029
5.841584158415841,0.4778075321785433
5.861386138613861,0.44941274525697167
5.881188118811881,0.427832495794806
5.900990099009901,0.41422273642756247
5.920792079207921,0.4094332253319123
5.9405940594059405,0.4137877558846778
5.96039603960396,0.4269884852424074
5.98019801980198,0.44820392116816615
6.0,0.4762856354235572
6.01980198019802,0.5099985099755792
6.03960396039604,0.5481831598097104
6.0594059405940595,0.5898347826301226
6.079207920792079,0.6341212473192667
6.099009900990099,0.6803691656697156
6.118811881188119,0.7280381943675358
6.138613861386139,0.77669427626948
6.158415841584159,0.8259862234843789
6.178217821782178,0.8756267781066207
6.198019801980198,0.9253778902732877
6.217821782178218,0.9750394997122265
6.237623762376237,1.0244410622358187
6.257425742574258,1.0734351646884517
6.2772277227722775,1.1218927064532385
6.297029702970296,1.1696992494466727
6.316831683168317,1.216752239223966
6.336633663366337,1.262958877174896
6.356435643564356,1.3082344815392948
6.376237623762377,1.3525012174677074
6.396039603960396,1.395687107432743
6.415841584158415,1.4377252559964033
6.435643564356436,1.4785532395466714
6.455445544554456,1.518112623811796
6.475247524752475,1.556348580959409
6.495049504950495,1.5932095847649506
6.514851485148515,1.6286471673191554
6.534653465346534,1.662615724489923
6.554455445544554,1.695072360186277
6.574257425742575,1.7259767616279975
6.594059405940594,1.7552910994760018
6.6138613861386135,1.7829799479517154
6.633663366336634,1.8090102210617356
6.653465346534653,1.833351121815175
6.673267326732673,1.8559741019268354
6.693069306930694,1.8768528299785465
6.712871287128713,1.8959631663915701
6.732673267326732,1.913283143867819
6.752475247524753,1.9287929522035305
6.772277227722772,1.9424749265778762
6.792079207920792,1.954313538582167
6.811881188118813,1.964295389389307
6.8316831683168315,1.9724092045752213
6.851485148514851,1.9786458301975163
6.871287128712871,1.9829982298174582
6.891089108910891,1.9854614822201135
6.910891089108911,1.9860327796495387
6.930693069306931,1.9847114264307844
6.9504950495049505,1.9814988379020875
6.97029702970297,1.9763985396293815
6.99009900990099,1.9694161669234675
7.00990099009901,1.9605594647289897
7.02970297029703,1.9498382880054845
7.0495049504950495,1.9372646027758307
7.069306930693069,1.9228524880785363
7.089108910891089,1.906618139129264
7.108910891089109,1.8885798720768778
7.128712871287128,1.8687581308326238
7.148514851485149,1.8471754965627434
7.1683168316831685,1.8238567005684272
7.188118811881187,1.7988286414403454
7.207920792079208,1.772120407574215
7.227722772277228,1.743763306381214
7.247524752475247,1.7137909018337913
7.267326732673268,1.6822390623729073
7.287128712871287,1.649146021687947
7.306930693069306,1.6145524554977064
7.326732673267327,1.578501578248547
7.346534653465347,1.5410392646595075
7.366336633663366,1.5022142023562484
7.3861386138613865,1.4620780835459113
7.405940594059406,1.4206858459287668
7.425742574257425,1.3780959760073102
7.445544554455446,1.3343708918978572
7.465346534653466,1.2895774280346284
7.485148514851485,1.2437874512868043
7.504950495049505,1.1970786476953899
7.524752475247524,1.1495355322803038
7.544554455445544,1.1012507525821131
7.564356435643565,1.0523267817722342
7.584158415841584,1.0028781320569953
7.603960396039604,0.9530342674894725
7.623762376237624,0.9029434621473506
7.643564356435643,0.8527779409427814
7.663366336633663,0.8027407620932493
7.683168316831684,0.7530750549422917
7.702970297029703,0.7040764037628665
7.7227722772277225,0.6561093206815612
7.742574257425743,0.609628744574961
7.762376237623762,0.5652070113491493
7.782178217821782,0.5235650677401594
7.801980198019803,0.4856025849244442
7.821782178217822,0.45241342933676093
7.841584158415841,0.42526043160547755
7.861386138613862,0.405472996829067
7.881188118811881,0.39424254066590014
7.900990099009901,0.3923478119874653
7.92079207920792,0.3999266642435259
7.9405940594059405,0.41643138994759327
7.96039603960396,0.4407978591084418
7.980198019801979,0.47171970644824174
8.0,0.5078891300890646
8.01980198019802,0.5481385168233084
8.03960396039604,0.5914915106760308
8.05940594059406,0.6371596431940352
8.07920792079208,0.6845157032503721
8.099009900990099,0.7330619338992622
8.118811881188119,0.7824010604164973
8.138613861386139,0.8322126146603396
8.158415841584159,0.8822345700872063
8.178217821782178,0.9322494563625257
8.198019801980198,0.9820739803637094
8.217821782178218,1.0315512943637142
8.237623762376238,1.0805452286542232
8.257425742574258,1.1289359720477934
8.277227722772277,1.1766168186768673
8.297029702970297,1.2234917022615135
8.316831683168317,1.2694733147996364
8.336633663366337,1.3144816616715524
8.356435643564357,1.3584429448698438
8.376237623762377,1.4012886947008663
8.396039603960396,1.4429550909940045
8.415841584158416,1.4833824298678755
8.435643564356436,1.522514703056256
8.455445544554456,1.5602992648389575
8.475247524752476,1.596686567567139
8.495049504950495,1.6316299511968066
8.514851485148515,1.6650854755605102
8.534653465346535,1.6970117866099754
8.554455445544555,1.7273700097646296
8.574257425742575,1.7561236649568406
8.594059405940595,1.7832385990856763
8.613861386138613,1.8086829324606815
8.633663366336634,1.8324270164958156
8.653465346534654,1.8544434004465304
8.673267326732672,1.874706805404148
8.693069306930694,1.8931941040973368
8.712871287128714,1.909884305318059
8.732673267326732,1.9247585420063784
8.752475247524753,1.9378000622037823
8.772277227722773,1.9489942222282755
8.792079207920791,1.9583284815436985
8.811881188118813,1.9657923988937143
8.831683168316832,1.971377629355533
8.85148514851485,1.9750779220385424
8.871287128712872,1.976889118216182
8.891089108910892,1.9768091497336775
8.91089108910891,1.974838037584717
8.930693069306932,1.9709778905964008
8.950495049504951,1.9652329042068017
8.97029702970297,1.9576093593636168
8.990099009900991,1.9481156216177242
9.00990099009901,1.9367621405335087
9.029702970297029,1.9235614495894042
9.04950495049505,1.908528166800074
9.06930693069307,1.8916789963578595
9.089108910891088,1.8730327316669346
9.10891089108911,1.8526102602344676
9.12871287128713,1.830434570990476
9.148514851485148,1.806530764738321
9.16831683168317,1.780926068597226
9.188118811881187,1.7536498554933735
9.207920792079207,1.7247336699995297
9.227722772277229,1.694211262126514
9.247524752475247,1.662118631052122
9.267326732673267,1.628494081257371
9.287128712871288,1.593378294157495
9.306930693069306,1.5568144191091138
9.326732673267326,1.518848188700667
9.346534653465348,1.4795280645697022
9.366336633663366,1.4389054217429766
9.386138613861386,1.3970347818106639
9.405940594059407,1.3539741083275998
9.425742574257425,1.30978518196801
9.445544554455445,1.2645340785472987
9.465346534653467,1.218291780637513
9.485148514851485,1.1711349639558277
9.504950495049505,1.1231470141712352
9.524752475247526,1.0744193499370258
9.544554455445544,1.025053156246599
9.564356435643564,0.9751616721100348
9.584158415841586,0.9248732330001656
9.603960396039604,0.874335348345536
9.623762376237623,0.8237202065094243
9.643564356435645,0.7732321546371855
9.663366336633663,0.7231179071083216
9.683168316831683,0.6736804903800779
9.702970297029704,0.6252981893450916
9.722772277227723,0.5784498667129007
9.742574257425742,0.5337475657885579
9.762376237623764,0.49197531168575626
9.782178217821782,0.45412760640866795
9.801980198019802,0.4214295933898048
9.821782178217823,0.39530258221192177
9.841584158415841,0.37722401011174356
9.861386138613861,0.36845277247279534
9.881188118811881,0.36968387860570406
9.900990099009901,0.38081240595226445
9.92079207920792,0.400970806820516
9.94059405940594,0.4288118787403516
9.96039603960396,0.46284986838447917
9.98019801980198,0.5017028156304568
10.0,0.5442016950167111
10.01980198019802,0.5894067656447367
10.03960396039604,0.6365801754905326
10.05940594059406,0.6851462186041024
10.07920792079208,0.7346537123437191
10.099009900990099,0.7847451873844941
10.118811881188119,0.8351332481936218
10.138613861386139,0.8855829830585527
10.158415841584159,0.935899046020545
10.178217821782178,0.9859162026922679
10.198019801980198,1.035492397371154
10.217821782178218,1.0845036432458515
10.237623762376238,1.1328402308957894
10.257425742574258,1.1804038937813777
10.277227722772277,1.2271056727110972
10.297029702970297,1.2728642946063025
10.316831683168317,1.3176049327106476
10.336633663366337,1.3612582520387524
10.356435643564357,1.4037596698705106
10.376237623762377,1.4450487796647689
10.396039603960396,1.485068900109305
10.415841584158416,1.5237667206844603
10.435643564356436,1.5610920221663451
10.455445544554454,1.5969974556788353
10.475247524752476,1.6314383677455304
10.495049504950495,1.664372661662313
10.514851485148514,1.6957606876713125
10.534653465346535,1.7255651560545477
10.554455445544555,1.753751068516708
10.574257425742573,1.7802856641883116
10.594059405940595,1.8051383773259877
10.613861386138614,1.8282808043672705
10.633663366336632,1.8496866784536043
10.653465346534654,1.8693318498952092
