Frequency (Hz),Amplitude
0.0,0.13850486341603307
0.019867549668874173,0.13963878519619743
0.039735099337748346,0.1429821902094682
0.059602649006622516,0.14837305109652163
0.07947019867549669,0.15557849185608086
0.09933774834437085,0.1643333520917261
0.11920529801324503,0.17437229292439324
0.13907284768211922,0.18545023063752045
0.15894039735099338,0.19735187376842683
0.17880794701986755,0.20989371916672722
0.1986754966887417,0.22292188613168384
0.2185430463576159,0.2363081931145815
0.23841059602649006,0.24994587214678288
0.2582781456953642,0.26374559855976715
0.27814569536423844,0.2776320914056484
0.2980132450331126,0.29154132405489597
0.31788079470198677,0.30541828960142264
0.33774834437086093,0.3192152341574149
0.3576158940397351,0.33289026925925963
0.3774834437086093,0.3464062847104503
0.3973509933774834,0.35973009666117883
0.4172185430463576,0.3728317787919714
0.4370860927152318,0.3856841357391265
0.45695364238410596,0.39826228707753863
0.4768211920529801,0.41054333742140414
0.49668874172185434,0.42250611382220793
0.5165562913907285,0.4341309559611685
0.5364238410596026,0.4453995479344328
0.5562913907284769,0.45629478295131376
0.5761589403973509,0.46680065419246947
0.5960264900662252,0.4769021665509332
0.6158940397350993,0.4865852651128421
0.6357615894039735,0.49583677710909574
0.6556291390728477,0.5046443647467186
0.6754966887417219,0.5129964868554417
0.695364238410596,0.5208823676973904
0.7152317880794702,0.5282919716113198
0.7350993377483444,0.53521598241861
0.7549668874172186,0.5416457867212885
0.7748344370860927,0.5475734603840934
0.7947019867549668,0.5529917576228743
0.8145695364238411,0.5578941022263658
0.8344370860927152,0.562274580523602
0.8543046357615894,0.5661279357788284
0.8741721854304636,0.5694495637533636
0.8940397350993378,0.5722355092210938
0.9139072847682119,0.574482463264634
0.9337748344370861,0.576187761212881
0.9536423841059603,0.577349381109828
0.9735099337748344,0.5779659426301385
0.9933774834437087,0.5780367063797314
1.0132450331125828,0.5775615735402412
1.033112582781457,0.576541085836096
1.0529801324503312,0.5749764258213738
1.0728476821192052,0.5728694175028245
1.0927152317880795,0.5702225273340321
1.1125827814569538,0.5670388656371326
1.1324503311258278,0.5633221885294172
1.1523178807947019,0.5590769004580277
1.1721854304635762,0.554308057473134
1.1920529801324504,0.5490213714032894
1.2119205298013245,0.5432232151340137
1.2317880794701985,0.5369206292370783
1.2516556291390728,0.53012133025172
1.271523178807947,0.5228337209855612
1.2913907284768211,0.5150669032839026
1.3112582781456954,0.5068306938150791
1.3311258278145695,0.49813564354302525
1.3509933774834437,0.48899306171041185
1.370860927152318,0.4794150453486114
1.390728476821192,0.46941451557023595
1.410596026490066,0.4590052622062367
1.4304635761589404,0.4482019987368128
1.4503311258278146,0.43702042996099155
1.4701986754966887,0.4254773354862393
1.4900662251655628,0.41359067294115537
1.5099337748344372,0.4013797058781562
1.5298013245033113,0.38886516271867216
1.5496688741721854,0.37606943490190786
1.5695364238410596,0.36301682476618174
1.5894039735099337,0.3497338567950144
1.609271523178808,0.33624966992660843
1.6291390728476822,0.32259651393269095
1.6490066225165563,0.3088103797490219
1.6688741721854303,0.2949318024193089
1.6887417218543048,0.2810068862324813
1.7086092715231789,0.2670886145870598
1.728476821192053,0.2532385211158712
1.7483443708609272,0.23952881069912133
1.7682119205298013,0.22604502215103797
1.7880794701986755,0.21288930365726355
1.8079470198675496,0.2001842983675786
1.8278145695364238,0.1880774591315666
1.847682119205298,0.17674524753631965
1.8675496688741722,0.1663960263507171
1.8874172185430464,0.15726948617763378
1.9072847682119205,0.149629370607728
1.9271523178807946,0.14374587267161593
1.9470198675496688,0.13986587642869713
1.9668874172185429,0.13817451396344357
1.9867549668874174,0.13875891728468132
2.0066225165562916,0.14158890266353946
2.0264900662251657,0.14652385348551097
2.0463576158940397,0.15334239437302474
2.066225165562914,0.1617815183130403
2.086092715231788,0.17157149588980727
2.1059602649006623,0.18245946045834344
2.1258278145695364,0.1942213430187235
2.1456953642384105,0.2066652805415243
2.165562913907285,0.21963008980762178
2.185430463576159,0.23298151191555802
2.205298013245033,0.2466078571402892
2.2251655629139075,0.26041587152876366
2.2450331125827816,0.27432715574363115
2.2649006622516556,0.28827520905967113
2.2847682119205297,0.3022030545261775
2.3046357615894038,0.3160613594094079
2.324503311258278,0.3298069590138932
2.3443708609271523,0.34340170092239747
2.364238410596027,0.3568115403011925
2.384105960264901,0.3700058305831066
2.403973509933775,0.38295676580092947
2.423841059602649,0.3956389406509357
2.443708609271523,0.408029002132666
2.463576158940397,0.4201053726435619
2.4834437086092715,0.4318480290418933
2.5033112582781456,0.44323832573423383
2.52317880794702,0.45425885254692555
2.543046357615894,0.46489332020356605
2.562913907284768,0.4751264678089659
2.5827814569536423,0.48494398794967736
2.6026490066225163,0.49433246595387575
2.622516556291391,0.5032793305734357
2.642384105960265,0.511772813911558
2.662251655629139,0.5198019188555933
2.6821192052980134,0.5273563926182441
2.7019867549668874,0.5344267052600612
2.7218543046357615,0.5410040322806869
2.741721854304636,0.5470802405369698
2.76158940397351,0.5526478768826308
2.781456953642384,0.5577001590345889
2.801324503311258,0.5622309682601996
2.821192052980132,0.5662348435525504
2.8410596026490067,0.5697069770208697
2.8609271523178808,0.5726432102727527
2.8807947019867552,0.5750400316061184
2.9006622516556293,0.5768945738644328
2.9205298013245033,0.5782046128380504
2.9403973509933774,0.5789685661213907
2.9602649006622515,0.5791854923584131
2.9801324503311255,0.5788550908300316
3.0,0.5779777013568737
3.0198675496688745,0.5765543045093016
3.0397350993377485,0.5745865221352744
3.0596026490066226,0.5720766182356627
3.0794701986754967,0.5690275002360586
3.0993377483443707,0.5654427207259515
3.119205298013245,0.5613264797595846
3.1390728476821192,0.5566836278396111
3.1589403973509933,0.5515196697358663
3.1788079470198674,0.545840769327306
3.198675496688742,0.5396537556985296
3.218543046357616,0.5329661307735559
3.23841059602649,0.52578607883178
3.2582781456953644,0.5181224783269206
3.2781456953642385,0.5099849165233044
3.2980132450331126,0.5013837075786789
3.3178807947019866,0.4923299148466656
3.3377483443708607,0.4828353783507056
3.3576158940397347,0.47291274860763766
3.3774834437086096,0.4625755282637533
3.3973509933774837,0.4518381233690715
3.4172185430463577,0.44071590657897464
3.437086092715232,0.4292252951674529
3.456953642384106,0.4173838475042468
3.47682119205298,0.405210382644437
3.4966887417218544,0.39272512897598294
3.5165562913907285,0.3799499095671749
3.5364238410596025,0.3669083740801839
3.556291390728477,0.3536262900411419
3.576158940397351,0.340131910101735
3.596026490066225,0.326456436973874
3.615894039735099,0.3126346143067957
3.6357615894039736,0.29870548028163196
3.6556291390728477,0.284713331460087
3.6754966887417218,0.27070895755375274
3.695364238410596,0.25675122273360834
3.7152317880794703,0.2429090837760925
3.7350993377483444,0.22926414428248854
3.754966887417219,0.21591383520514518
3.774834437086093,0.20297526012538236
3.794701986754967,0.1905896028629958
3.814569536423841,0.1789266880371209
3.834437086092715,0.16818870702211736
3.854304635761589,0.15861118892332796
3.8741721854304636,0.15045811184142335
3.8940397350993377,0.14400723383501182
3.9139072847682117,0.13952271417541273
3.9337748344370858,0.13721662626585568
3.9536423841059607,0.13720874469790037
3.9735099337748347,0.13950005639995228
3.993377483443709,0.14397257081554007
4.013245033112583,0.15041552061315888
4.033112582781457,0.15856548727064954
4.052980132450331,0.1681449734466252
4.072847682119205,0.1788899400309775
4.0927152317880795,0.19056462378388644
4.112582781456953,0.20296653044983246
4.132450331125828,0.215925523831368
4.152317880794702,0.22930012827970347
4.172185430463576,0.24297297793467018
4.19205298013245,0.25684640943185694
4.211920529801325,0.2708386128798569
4.231788079470199,0.28488044636865395
4.251655629139073,0.298912876887629
4.271523178807947,0.3128849579395514
4.291390728476821,0.32675224474373193
4.311258278145695,0.3404755566922608
4.33112582781457,0.3540200113387022
4.3509933774834435,0.3673542691414448
4.370860927152318,0.38044994132282683
4.390728476821192,0.39328112398348253
4.410596026490066,0.4058240301336675
4.43046357615894,0.4180566979056628
4.450331125827815,0.42995875827013075
4.470198675496689,0.4415112494335655
4.490066225165563,0.45269646802557495
4.509933774834438,0.46349784941464145
4.529801324503311,0.4738998711919983
4.549668874172186,0.4838879751634291
4.569536423841059,0.49344850418761066
4.589403973509934,0.5025686509694888
4.6092715231788075,0.511236416513978
4.629139072847682,0.5194405764095613
4.649006622516556,0.5271706534749864
4.66887417218543,0.5344168955880898
4.688741721854305,0.5411702577420794
4.708609271523179,0.54742238755385
4.728476821192054,0.5531656135931242
4.748344370860927,0.5583929360162456
4.768211920529802,0.5630980190822462
4.788079470198675,0.5672751852042971
4.80794701986755,0.570919410252587
4.827814569536423,0.5740263198754759
4.847682119205298,0.5765921866492587
4.867549668874172,0.5786139279025685
4.887417218543046,0.5800891040923748
4.9072847682119205,0.5810159176353611
4.927152317880794,0.5813932121218722
4.947019867549669,0.581220471860729
4.966887417218543,0.5804978217229552
4.986754966887418,0.579226027270901
5.006622516556291,0.5774064951774129
5.026490066225166,0.5750412739582131
5.04635761589404,0.5721330550593163
5.066225165562914,0.5686851743624463
5.086092715231788,0.5647016141929645
5.105960264900662,0.5601870059410845
5.125827814569536,0.5551466334355105
5.14569536423841,0.5495864372426037
5.1655629139072845,0.543513020104599
5.185430463576159,0.5369336537775942
5.205298013245033,0.5298562875886405
5.225165562913908,0.5222895591009964
5.245033112582782,0.5142428073633769
5.264900662251656,0.5057260893257469
5.28476821192053,0.4967502001366693
5.304635761589404,0.4873266982032275
5.324503311258278,0.47746793610301413
5.344370860927152,0.4671870987014082
5.364238410596027,0.4564982501624498
5.3841059602649,0.4454163919703195
5.403973509933775,0.43395753462875347
5.4238410596026485,0.42213878641712194
5.443708609271523,0.4099784635050203
5.463576158940397,0.3974962269316467
5.483443708609272,0.3847132535344012
5.503311258278146,0.3716524499870133
5.52317880794702,0.3583387218460506
5.543046357615895,0.3447993131254318
5.562913907284768,0.3310642367026942
5.582781456953643,0.31716682216694436
5.602649006622516,0.3031444159692679
5.622516556291391,0.28903927938075635
5.642384105960264,0.27489974314555154
5.662251655629139,0.2607816937578176
5.682119205298013,0.24675048378553202
5.701986754966887,0.2328833737940009
5.7218543046357615,0.21927261683714944
5.741721854304636,0.2060292679029411
5.7615894039735105,0.1932876999603674
5.781456953642384,0.18121056338746105
5.801324503311259,0.16999342560348835
5.821192052980132,0.1598674483721526
5.841059602649007,0.1510971892162126
5.860927152317881,0.14396936680204697
5.880794701986755,0.13876850111988986
5.900662251655629,0.13573882631627832
5.920529801324503,0.13503975204489838
5.940397350993377,0.1367106628564679
5.960264900662251,0.14066150694772409
5.980132450331126,0.14669406385460565
6.0,0.15454310608602537
6.0198675496688745,0.1639198095575801
6.039735099337749,0.17454463917719276
6.059602649006623,0.18616604410065496
6.079470198675497,0.19856750757115804
6.099337748344371,0.21156734999524818
6.119205298013245,0.22501500071704592
6.139072847682119,0.23878610213265303
6.158940397350993,0.2527776817810373
6.178807947019867,0.26690391484149134
6.198675496688741,0.2810926181954416
6.218543046357616,0.29528244170756246
6.23841059602649,0.3094206573007965
6.258278145695365,0.32346143412668404
6.2781456953642385,0.3373644978750473
6.298013245033113,0.35109408902158523
6.317880794701987,0.3646181519449779
6.337748344370861,0.37790770184250333
6.357615894039735,0.3909363286037643
6.377483443708609,0.4036798064136609
6.397350993377484,0.4161157852562434
6.417218543046357,0.4282235461278186
6.437086092715232,0.43998380603788406
6.456953642384105,0.45137856210707517
6.47682119205298,0.46239096651650013
6.496688741721854,0.4730052259186227
6.516556291390729,0.4832065203322327
6.5364238410596025,0.49298093762484924
6.556291390728477,0.5023154205147358
6.5761589403973515,0.5111977236657758
6.596026490066225,0.5196163789447192
6.6158940397351,0.5275606672979558
6.635761589403973,0.5350205960088218
6.655629139072848,0.5419868803356108
6.675496688741721,0.548450928720562
6.695364238410596,0.5544048309110554
6.715231788079469,0.5598413484557286
6.735099337748344,0.5647539071359186
6.754966887417219,0.5691365909719572
6.774834437086093,0.5729841375090861
6.794701986754967,0.5762919341405887
6.814569536423841,0.5790560152705543
6.8344370860927155,0.5812730601554036
6.854304635761589,0.5829403912951242
6.874172185430464,0.584055973272174
6.894039735099337,0.5846184119599231
6.913907284768212,0.5846269540433885
6.933774834437086,0.5840814868150412
6.95364238410596,0.5829825382260383
6.973509933774834,0.5813312771915529
6.993377483443709,0.579129514166021
7.013245033112583,0.5763797020227094
7.033112582781457,0.5730849372909234
7.052980132450331,0.5692489618256955
7.072847682119205,0.5648761650079188
7.0927152317880795,0.5599715865998945
7.112582781456954,0.5545409204126748
7.132450331125828,0.5485905189777688
7.152317880794702,0.5421273994602526
7.172185430463576,0.5351592511026589
7.19205298013245,0.5276944445533072
7.211920529801324,0.5197420435117632
7.231788079470198,0.511311819220709
7.251655629139073,0.502414268454267
7.271523178807947,0.4930606358038685
7.291390728476822,0.4832629412516643
7.311258278145695,0.47303401426130715
7.33112582781457,0.46238753592070875
7.3509933774834435,0.4513380910600959
7.370860927152318,0.43990123277056914
7.390728476821192,0.4280935623947266
7.410596026490066,0.41593282890360295
7.430463576158941,0.40343805267385807
7.450331125827814,0.39062968012451144
7.470198675496689,0.3775297775796973
7.490066225165562,0.364162275251877
7.509933774834438,0.3505532755988791
7.52980132450331,0.3367314447839352
7.549668874172186,0.32272851192372154
7.569536423841059,0.30857990871481517
7.589403973509934,0.2943255924270693
7.6092715231788075,0.28001110871186835
7.629139072847682,0.2656889675653078
7.649006622516557,0.25142042579952856
7.66887417218543,0.23727779037866317
7.6887417218543055,0.2233473726651721
7.708609271523178,0.20973321883959511
7.728476821192054,0.19656168397427712
7.748344370860927,0.1839867430261639
7.768211920529802,0.17219553150150957
7.788079470198675,0.16141282654237601
7.80794701986755,0.15190189075161792
7.827814569536423,0.14395747729914862
7.847682119205298,0.1378858393372058
7.8675496688741715,0.13396855450704115
7.887417218543046,0.13241420986436359
7.907284768211921,0.133312845744266
7.927152317880795,0.13661370210997953
7.9470198675496695,0.14213809422145074
7.966887417218543,0.14962042777760212
7.986754966887418,0.15875764896311598
8.006622516556291,0.16924963621900635
8.026490066225167,0.18082358049571273
8.046357615894038,0.19324410077639972
8.066225165562914,0.20631411244205167
8.086092715231787,0.21987105149536754
8.105960264900663,0.23378147032162847
8.125827814569536,0.24793559975396648
8.14569536423841,0.2622425571694314
8.165562913907285,0.2766263906955365
8.185430463576159,0.29102292572054617
8.205298013245034,0.30537729771029726
8.225165562913906,0.31964203998133695
8.245033112582782,0.33377560703443054
8.264900662251655,0.3477412343958136
8.28476821192053,0.3615060564745538
8.304635761589404,0.3750404217432336
8.324503311258278,0.38831735891126695
8.344370860927151,0.40131215893490224
8.364238410596027,0.41400204623359016
8.3841059602649,0.4263659189198178
8.403973509933774,0.4383841426883196
8.42384105960265,0.450038386643221
8.443708609271523,0.46131149207341565
8.463576158940398,0.47218736724513305
8.483443708609272,0.482650902839834
8.503311258278146,0.4926879038497593
8.52317880794702,0.5022850346493336
8.543046357615895,0.5114297746556603
8.562913907284768,0.5201103825284785
8.582781456953642,0.5283158672768522
8.602649006622515,0.536035964965378
8.62251655629139,0.54326111996844
8.642384105960264,0.5499824699228663
8.66225165562914,0.5561918336894992
8.682119205298013,0.5618817017623374
8.701986754966887,0.5670452286668337
8.721854304635762,0.5716762269718282
8.741721854304636,0.5757691626076361
8.76158940397351,0.5793191512380418
8.781456953642383,0.5823219554800091
8.801324503311259,0.5847739828030719
8.821192052980132,0.5866722839728501
8.841059602649008,0.588014551930654
8.86092715231788,0.5887991210252603
8.880794701986755,0.5890249665340498
8.90066225165563,0.5886917044302139
8.920529801324504,0.5877995913704859
8.940397350993377,0.5863495248948566
8.960264900662251,0.584343043847022
8.980132450331126,0.581782329041026
9.0,0.5786702042179691
9.019867549668875,0.5750101373559906
9.039735099337747,0.5708062424182742
9.059602649006623,0.5660632816483632
9.079470198675496,0.5607866685503317
9.099337748344372,0.5549824717243211
9.119205298013245,0.5486574197674304
9.139072847682119,0.5418189074972478
9.158940397350994,0.5344750038123888
9.178807947019868,0.5266344615750694
9.198675496688743,0.518306729986627
9.218543046357615,0.509501970034602
9.23841059602649,0.5002310737237987
9.258278145695364,0.49050568797189564
9.27814569536424,0.4803382442632586
9.298013245033111,0.46974199542465933
9.317880794701987,0.45873106123272067
9.33774834437086,0.44732048500786675
9.357615894039736,0.43552630392517266
9.37748344370861,0.42336563652194803
9.397350993377483,0.41085679186285323
9.417218543046358,0.3980194061148982
9.437086092715232,0.38487461399447936
9.456953642384107,0.371445264823132
9.47682119205298,0.3577561959691238
9.496688741721854,0.34383458052951754
9.516556291390728,0.32971037158799255
9.536423841059603,0.3154168727498107
9.556291390728477,0.3009914745222796
9.57615894039735,0.28647660920798984
9.596026490066224,0.27192099406734294
9.6158940397351,0.25738125406466167
9.635761589403973,0.24292404100433432
9.655629139072847,0.22862879203016814
9.675496688741722,0.21459128767048977
9.695364238410596,0.20092815456309462
9.715231788079471,0.1877823604177932
9.735099337748345,0.17532947099637458
9.754966887417218,0.1637838161551425
9.774834437086092,0.15340253278430557
9.794701986754967,0.14448362965495956
9.814569536423841,0.13735229526572756
9.834437086092716,0.13232962588363087
9.854304635761588,0.12968319228125538
9.874172185430464,0.12957082981921156
9.894039735099337,0.13200089246111987
9.913907284768213,0.13683012416293297
9.933774834437086,0.14380035948192926
9.95364238410596,0.15259421049824293
9.973509933774835,0.16288588283495004
9.993377483443709,0.17437436008110768
10.013245033112582,0.18679862134900474
10.033112582781456,0.19994048030056788
10.052980132450331,0.2136209527318662
10.072847682119205,0.22769420740876412
10.09271523178808,0.24204128392567859
10.112582781456952,0.25656451907238054
10.132450331125828,0.2711829555693635
10.152317880794701,0.28582870376552594
10.172185430463577,0.30044411671902466
10.192052980132452,0.3149796185468
10.211920529801324,0.329392041149499
10.2317880794702,0.34364335015985237
10.251655629139073,0.3576996666444468
10.271523178807948,0.37153051302345247
10.29139072847682,0.3851082291448577
10.311258278145695,0.3984075178810153
10.331125827814569,0.41140508974480267
10.350993377483444,0.4240793835917152
10.370860927152318,0.4364103461071005
10.390728476821192,0.4483792569682842
10.410596026490065,0.4599685896956714
10.43046357615894,0.4711619005434359
10.450331125827816,0.4819437395358634
10.470198675496688,0.49229957908118716
10.490066225165563,0.5022157566009057
10.509933774834437,0.511679428380944
10.529801324503312,0.5206785324408176
10.549668874172186,0.5292017586729695
