Frequency (Hz),Amplitude
0.0,0.6974681507247599
0.019801980198019802,0.7072290281542959
0.039603960396039604,0.7356984700702381
0.0594059405940594,0.7807293921075315
0.07920792079207921,0.8395016013913775
0.09900990099009901,0.9091488490632388
0.1188118811881188,0.9871300688315944
0.13861386138613863,1.0713562222019488
0.15841584158415842,1.1601746926141907
0.1782178217821782,1.252297981177384
0.19801980198019803,1.3467239396042983
0.21782178217821782,1.4426663215447186
0.2376237623762376,1.5395001058842603
0.25742574257425743,1.6367204110306877
0.27722772277227725,1.7339122694668125
0.297029702970297,1.8307285637505883
0.31683168316831684,1.926873924787054
0.33663366336633666,2.022092934924239
0.3564356435643564,2.1161614307489414
0.37623762376237624,2.2088800432656925
0.39603960396039606,2.3000693617818913
0.4158415841584158,2.3895662845185197
0.43564356435643564,2.477221243508963
0.45544554455445546,2.562896079011245
0.4752475247524752,2.6464624005285797
0.495049504950495,2.7278003154208603
0.5148514851485149,2.8067974374267655
0.5346534653465347,2.883348109956465
0.5544554455445545,2.9573527953560066
0.5742574257425742,3.0287175932857933
0.594059405940594,3.0973538601529778
0.613861386138614,3.163177908070153
0.6336633663366337,3.2261107667017606
0.6534653465346534,3.2860779950469863
0.6732673267326733,3.343009533009013
0.6930693069306931,3.3968395847449186
0.7128712871287128,3.4475065274425054
0.7326732673267327,3.4949528404530974
0.7524752475247525,3.53912505071089
0.7722772277227723,3.5799736911577513
0.7920792079207921,3.617453269516281
0.8118811881188118,3.6515222452512037
0.8316831683168316,3.682143012958519
0.8514851485148516,3.7092818907446587
0.8712871287128713,3.7329091124208627
0.891089108910891,3.7529988225543387
0.9108910891089109,3.7695290735971976
0.9306930693069307,3.78248182446495
0.9504950495049505,3.791842940064723
0.9702970297029703,3.7976021913840676
0.99009900990099,3.7997532558494096
1.00990099009901,3.7982937177510627
1.0297029702970297,3.7932250686133164
1.0495049504950495,3.784552707466194
1.0693069306930694,3.7722859410511713
1.0891089108910892,3.756437984070879
1.108910891089109,3.7370259596736153
1.1287128712871286,3.7140709004504004
1.1485148514851484,3.6875977503189246
1.1683168316831685,3.6576353677770874
1.188118811881188,3.6242165311348726
1.2079207920792079,3.587377946480245
1.227722772277228,3.547160259309819
1.2475247524752475,3.5036080709652624
1.2673267326732673,3.4567699612725398
1.2871287128712872,3.406698519093773
1.3069306930693068,3.3534503828889197
1.3267326732673268,3.2970862938658887
1.3465346534653466,3.237671164901161
1.3663366336633662,3.175274169174415
1.3861386138613863,3.1099688534273406
1.405940594059406,3.041833281993226
1.4257425742574257,2.9709502193345623
1.4455445544554455,2.8974073608882165
1.4653465346534653,2.82129762470822
1.4851485148514851,2.742719519933788
1.504950495049505,2.6617776127940402
1.5247524752475248,2.5785831171120255
1.5445544554455446,2.493254644675365
1.5643564356435644,2.4059191622357923
1.5841584158415842,2.3167132174680427
1.6039603960396038,2.225784517663885
1.6237623762376237,2.133293974707211
1.6435643564356437,2.0394183715139023
1.6633663366336633,1.944353863742828
1.683168316831683,1.848320613563342
1.7029702970297032,1.7515689700784187
1.7227722772277227,1.654387778163023
1.7425742574257426,1.5571156329981666
1.7623762376237624,1.4601562234437093
1.782178217821782,1.3639993408428814
1.801980198019802,1.2692496590538598
1.8217821782178218,1.1766659099255152
1.8415841584158414,1.0872132248606043
1.8613861386138615,1.0021302204755003
1.881188118811881,0.9230076530655635
1.900990099009901,0.8518629103571168
1.920792079207921,0.7911686937490156
1.9405940594059405,0.7437555564431584
1.9603960396039604,0.7124847854613903
1.98019801980198,0.6996559672042143
2.0,0.7063286191672696
2.01980198019802,0.7319477536879869
2.0396039603960396,0.7745454836184169
2.0594059405940595,0.8313677388449147
2.0792079207920793,0.899526823549612
2.099009900990099,0.9764170969731354
2.118811881188119,1.0598752850159865
2.1386138613861387,1.1481816087694838
2.1584158415841586,1.2399938261398615
2.1782178217821784,1.3342673372015843
2.1980198019801978,1.430183701565137
2.217821782178218,1.5270936529978856
2.237623762376238,1.6244740148021646
2.257425742574257,1.7218959112857126
2.2772277227722775,1.819001536595925
2.297029702970297,1.9154871995790264
2.3168316831683167,2.011090907828537
2.336633663366337,2.105583221760075
2.3564356435643563,2.1987604684114137
2.376237623762376,2.2904396665504954
2.3960396039603964,2.3804547013504727
2.4158415841584158,2.468653418647881
2.4356435643564356,2.5548954015752403
2.455445544554456,2.6390502578213164
2.4752475247524752,2.7209962921807214
2.495049504950495,2.8006194721627438
2.514851485148515,2.8778126182206347
2.5346534653465347,2.9524747673919607
2.5544554455445545,3.0245106717171475
2.5742574257425743,3.0938304020579452
2.594059405940594,3.1603490348022683
2.6138613861386135,3.223986404073425
2.633663366336634,3.2846669059276534
2.6534653465346536,3.34231934395788
2.673267326732673,3.3968768079648495
2.6930693069306932,3.4482765790836654
2.712871287128713,3.496460056092649
2.7326732673267324,3.5413726986765854
2.7524752475247527,3.582963984237438
2.7722772277227725,3.6211873754951784
2.792079207920792,3.656000296638573
2.811881188118812,3.687364116200577
2.8316831683168315,3.715244135167778
2.8514851485148514,3.7396095791061557
2.8712871287128716,3.760433593309103
2.891089108910891,3.777693240159199
2.910891089108911,3.791369498050796
2.9306930693069306,3.8014472613524526
2.9504950495049505,3.807915341002227
2.9702970297029703,3.8107664654290887
2.99009900990099,3.8099972815835583
3.00990099009901,3.80560835594366
3.0297029702970297,3.797604175441006
3.0495049504950495,3.785993148328515
3.0693069306930694,3.7707876050890574
3.089108910891089,3.7520037995650486
3.108910891089109,3.7296619105754942
3.128712871287129,3.7037860443827917
3.148514851485148,3.674404238478819
3.1683168316831685,3.6415484672839304
3.1881188118811883,3.605254650496997
3.2079207920792077,3.565562665006767
3.227722772277228,3.522516361480613
3.2475247524752473,3.4761635869973673
3.267326732673267,3.4265562153968
3.2871287128712874,3.3737501873960882
3.3069306930693068,3.3178055629932643
3.3267326732673266,3.2587865892649526
3.346534653465347,3.196761787406414
3.366336633663366,3.1318040638008324
3.386138613861386,3.0639908511041636
3.4059405940594063,2.9934042868737705
3.4257425742574257,2.9201314392635824
3.4455445544554455,2.8442645919098912
3.4653465346534653,2.765901603544677
3.485148514851485,2.6851463623871714
3.504950495049505,2.6021093613781896
3.5247524752475248,2.516908428395443
3.5445544554455446,2.4296696565144775
3.564356435643564,2.340528594283181
3.5841584158415842,2.249631776469602
3.603960396039604,2.1571387041372807
3.6237623762376234,2.06322442254141
3.6435643564356437,1.9680829010470016
3.6633663366336635,1.8719314979845227
3.683168316831683,1.7750169049490823
3.702970297029703,1.6776231232064847
3.722772277227723,1.5800822476423344
3.7425742574257423,1.482789142310083
3.762376237623762,1.3862215040051529
3.7821782178217824,1.290967320002306
3.801980198019802,1.1977622453567534
3.8217821782178216,1.107539644716441
3.841584158415842,1.0214951217367187
3.8613861386138613,0.9411633325420516
3.881188118811881,0.8684938990954928
3.9009900990099013,0.805889877224143
3.9207920792079207,0.7561353598511372
3.9405940594059405,0.7221104539928289
3.96039603960396,0.7062397244292035
3.98019801980198,0.709811827068491
4.0,0.7325356042796994
4.01980198019802,0.7726463619383719
4.03960396039604,0.8274825644088911
4.0594059405940595,0.8941523075303274
4.079207920792079,0.9699916862943255
4.099009900990099,1.0527620477837216
4.118811881188119,1.1406717197536873
4.138613861386139,1.2323179205996524
4.158415841584159,1.3266079930484234
4.178217821782178,1.4226863708807873
4.198019801980198,1.5198753860925585
4.217821782178218,1.6176301274435492
4.237623762376238,1.7155049803344729
4.257425742574258,1.8131291161369008
4.2772277227722775,1.9101885846278601
4.297029702970297,2.0064131974841612
4.316831683168317,2.101566868702694
4.336633663366336,2.19544045110204
4.356435643564357,2.287846382989165
4.376237623762377,2.378614656049003
4.3960396039603955,2.4675897549312893
4.415841584158416,2.5546283173226016
4.435643564356436,2.6395973327052373
4.455445544554455,2.7223727472182735
4.475247524752476,2.802838377136805
4.4950495049504955,2.8808850586952
4.514851485148514,2.9564099802247417
4.534653465346535,3.029316155883614
4.554455445544555,3.0995120100413445
4.574257425742574,3.166911048631154
4.594059405940594,3.2314315991993308
4.613861386138614,3.292996605457143
4.633663366336633,3.3515334652316517
4.653465346534653,3.406973903072764
4.673267326732674,3.459253870590001
4.693069306930693,3.5083134689991504
4.712871287128713,3.554096889455889
4.732673267326733,3.5965523676148625
4.752475247524752,3.63563214953312
4.772277227722772,3.6712924665784086
4.792079207920793,3.7034935174364025
4.811881188118812,3.732199455661221
4.8316831683168315,3.757378381497737
4.851485148514852,3.7790023369377184
4.871287128712871,3.797047303164867
4.891089108910891,3.811493199705356
4.910891089108912,3.8223238847374135
4.930693069306931,3.829527156131497
4.9504950495049505,3.8330947528957626
4.97029702970297,3.833022356794166
4.99009900990099,3.829309593989486
5.00990099009901,3.8219600366436723
5.02970297029703,3.810981204486136
5.0495049504950495,3.796384566438985
5.069306930693069,3.7781855424695068
5.089108910891089,3.7564035059271594
5.108910891089109,3.73106178671764
5.128712871287129,3.7021876757737497
5.148514851485149,3.6698124314057377
5.1683168316831685,3.6339712882572086
5.188118811881188,3.5947034697626816
5.207920792079208,3.552052205206177
5.227722772277227,3.506064752727177
5.247524752475248,3.4567924299211046
5.267326732673268,3.4042906540531934
5.2871287128712865,3.3486189943649056
5.306930693069307,3.2898412395284558
5.326732673267327,3.228025484029561
5.346534653465346,3.16324423817691
5.366336633663367,3.0955745676078195
5.3861386138613865,3.025098269662687
5.405940594059405,2.9519020959436513
5.425742574257426,2.876078032901061
5.445544554455446,2.7977236556047442
5.465346534653465,2.7169425742313993
5.485148514851486,2.6338449986171115
5.504950495049505,2.5485484540207577
5.524752475247524,2.46117869177495
5.544554455445545,2.3718708528364716
5.564356435643565,2.2807709619163283
5.584158415841584,2.1880378570633883
5.603960396039604,2.0938456974509196
5.623762376237624,1.9983872452180877
5.643564356435643,1.9018781920746415
5.663366336633663,1.804562907251082
5.683168316831684,1.7067221331154991
5.702970297029703,1.6086833653472548
5.7227722772277225,1.5108349460848478
5.742574257425743,1.413645288600198
5.762376237623762,1.3176891376077449
5.782178217821782,1.2236832762632879
5.801980198019803,1.1325343513633335
5.821782178217822,1.0454007661615898
5.841584158415841,0.9637671531461917
5.861386138613861,0.889520330160888
5.881188118811881,0.8249947290287113
5.900990099009901,0.7729208368224029
5.920792079207921,0.7361790397683579
5.9405940594059405,0.7172923928842441
5.96039603960396,0.7177577916023452
5.98019801980198,0.7375472422700913
6.0,0.7751190916556777
6.01980198019802,0.8279306731675089
6.03960396039604,0.8931053690244263
6.0594059405940595,0.9679296728848331
6.079207920792079,1.0500898964808811
6.099009900990099,1.1377183754226843
6.118811881188119,1.2293460795467022
6.138613861386139,1.3238265051422577
6.158415841584159,1.4202617436779215
6.178217821782178,1.5179412694790042
6.198019801980198,1.6162947212967385
6.217821782178218,1.7148566746373684
6.237623762376237,1.813240740179549
6.257425742574258,1.9111206010412052
6.2772277227722775,2.0082161091209887
6.297029702970296,2.104283041911816
6.316831683168317,2.199105506375016
6.336633663366337,2.2924902638319224
6.356435643564356,2.384262457248436
6.376237623762377,2.4742623697521045
6.396039603960396,2.5623429474895687
6.415841584158415,2.6483678936652955
6.435643564356436,2.732210192923209
6.455445544554456,2.8137509625613104
6.475247524752475,2.8928785538801916
6.495049504950495,2.969487846364241
6.514851485148515,3.043479691537893
6.534653465346534,3.1147604737326984
6.554455445544554,3.1832417626990246
6.574257425742575,3.2488400387420104
6.594059405940594,3.311476475383215
6.6138613861386135,3.3710767678239626
6.633663366336634,3.42757099798601
6.653465346534653,3.480893528826282
6.673267326732673,3.530982922109609
6.693069306930694,3.577781874982024
6.712871287128713,3.621237171596341
6.732673267326732,3.661299646759293
6.752475247524753,3.697924159140357
6.772277227722772,3.731069572038813
6.792079207920792,3.760698740073944
6.811881188118813,3.786778500461948
6.8316831683168315,3.8092796677882976
6.851485148514851,3.8281770313863746
6.871287128712871,3.8434493546024457
6.891089108910891,3.855079375370002
6.910891089108911,3.8630538076393734
6.930693069306931,3.8673633433158505
6.9504950495049505,3.868002654455475
6.97029702970297,3.864970395555152
6.99009900990099,3.858269205856434
7.00990099009901,3.847905711662049
7.02970297029703,3.8338905287441545
7.0495049504950495,3.8162382650060214
7.069306930693069,3.794967523646263
7.089108910891089,3.770100907170977
7.108910891089109,3.741665022706559
7.128712871287128,3.7096904891887736
7.148514851485149,3.6742119471470978
7.1683168316831685,3.6352680719721726
7.188118811881187,3.5929015917567653
7.207920792079208,3.547159311045144
7.227722772277228,3.498092142124338
7.247524752475247,3.445755145857948
7.267326732673268,3.3902075845185515
7.287128712871287,3.3315129896428113
7.306930693069306,3.2697392486478045
7.326732673267327,3.2049587148504637
7.346534653465347,3.137248346682668
7.366336633663366,3.0666898833690945
7.3861386138613865,2.9933700662383624
7.405940594059406,2.9173809173102727
7.425742574257425,2.8388200900372405
7.445544554455446,2.7577913113409207
7.465346534653466,2.674404939744263
7.485148514851485,2.5887786719681887
7.504950495049505,2.5010384405631703
7.524752475247524,2.411319559001138
7.544554455445544,2.3197681896169504
7.564356435643565,2.2265432359410946
7.584158415841584,2.13181879729276
7.603960396039604,2.0357873742904187
7.623762376237624,1.938664085319531
7.643564356435643,1.8406922546528535
7.663366336633663,1.7421508748501444
7.683168316831684,1.6433646450912236
7.702970297029703,1.5447175620178069
7.7227722772277225,1.4466714072270308
7.742574257425743,1.3497909341804182
7.762376237623762,1.2547780428065414
7.782178217821782,1.1625175073524192
7.801980198019803,1.0741362443043463
7.821782178217822,0.9910751430374636
7.841584158415841,0.9151640486336245
7.861386138613862,0.8486718366573467
7.881188118811881,0.794271802908714
7.900990099009901,0.7548304523360245
7.92079207920792,0.7329455627507838
7.9405940594059405,0.73029964100607
7.96039603960396,0.7471216289732251
7.980198019801979,0.7821076691274216
8.0,0.8328587337573246
8.01980198019802,0.8965342348258776
8.03960396039604,0.9703816674348822
8.05940594059406,1.0520140337704844
8.07920792079208,1.1394841914965257
8.099009900990099,1.2312512183183257
8.118811881188119,1.326108751656663
8.138613861386139,1.4231109878648167
8.158415841584159,1.5215097335361314
8.178217821782178,1.620705133094371
8.198019801980198,1.7202085927046231
8.217821782178218,1.819615378041838
8.237623762376238,1.9185844897421631
8.257425742574258,2.0168238803400618
8.277227722772277,2.1140795518359297
8.297029702970297,2.210127466560517
8.316831683168317,2.30476750271977
8.336633663366337,2.3978189038068565
8.356435643564357,2.4891168268909873
8.376237623762377,2.578509705414972
8.396039603960396,2.665857220562856
8.415841584158416,2.7510287310026773
8.435643564356436,2.833902050620334
8.455445544554456,2.9143624924689364
8.475247524752476,2.9923021178614557
8.495049504950495,3.067619144629155
8.514851485148515,3.1402174796590456
8.534653465346535,3.210006349034928
8.554455445544555,3.276900005233869
8.574257425742575,3.340817495435479
8.594059405940595,3.401682478490239
8.613861386138613,3.459423080753749
8.633663366336634,3.513971783038358
8.653465346534654,3.56526533251471
8.673267326732672,3.6132446746272775
8.693069306930694,3.657854901053202
8.712871287128714,3.699045210495687
8.732673267326732,3.7367688797079857
8.752475247524753,3.770983242628287
8.772277227722773,3.8016496758952547
8.792079207920791,3.82873358933035
8.811881188118813,3.8522044202316423
8.831683168316832,3.8720356305375283
8.85148514851485,3.8882047060965665
8.871287128712872,3.9006931574306036
8.891089108910892,3.9094865215066648
8.91089108910891,3.914574364145955
8.930693069306932,3.915950282797976
8.950495049504951,3.913611909499138
8.97029702970297,3.9075609139204173
8.990099009900991,3.8978030064911424
9.00990099009901,3.8843479416678552
9.029702970297029,3.8672095215016045
9.04950495049505,3.84640559974625
9.06930693069307,3.8219580868475536
9.089108910891088,3.7938929562615193
9.10891089108911,3.762240252674186
9.12871287128713,3.727034102838918
9.148514851485148,3.68831272991675
9.16831683168317,3.646118472407756
9.188118811881187,3.600497809005852
9.207920792079207,3.5515013910068145
9.227722772277229,3.499184084265314
9.247524752475247,3.443605023149163
9.267326732673267,3.3848276795031818
9.287128712871288,3.322919950343229
9.306930693069306,3.2579542688953658
9.326732673267326,3.1900077447322652
9.346534653465348,3.1191623402146975
9.366336633663366,3.0455050923208473
9.386138613861386,2.969128391378373
9.405940594059407,2.8901303313903712
9.425742574257425,2.808615150823975
9.445544554455445,2.724693788264236
9.465346534653467,2.638484584721945
9.485148514851485,2.550114174314822
9.504950495049505,2.45971861849627
9.524752475247526,2.3674448573726408
9.544554455445544,2.273452576907565
9.564356435643564,2.1779166257896834
9.584158415841586,2.0810301644836655
9.603960396039604,1.9830087972586674
9.623762376237623,1.88409603391391
9.643564356435645,1.7845705626751787
9.663366336633663,1.6847560039821328
9.683168316831683,1.585034073975161
9.702970297029704,1.4858624318694973
9.722772277227723,1.3877989159378945
9.742574257425742,1.2915343313344079
9.762376237623764,1.197936230282597
9.782178217821782,1.1081056470517963
9.801980198019802,1.0234461635793395
9.821782178217823,0.9457372463448351
9.841584158415841,0.8771871881376828
9.861386138613861,0.8204120750261978
9.881188118811881,0.7782553543354158
9.900990099009901,0.7533701431936372
9.92079207920792,0.7476025212508222
9.94059405940594,0.7614280116540016
9.96039603960396,0.7937897629579865
9.98019801980198,0.8424539990101548
10.0,0.9046366743521412
10.01980198019802,0.9775579417905418
10.03960396039604,1.0587601721212883
10.05940594059406,1.1462136657115964
10.07920792079208,1.2382999101374017
10.099009900990099,1.3337463601188797
10.118811881188119,1.4315533544543524
10.138613861386139,1.530929804710119
10.158415841584159,1.6312419335502737
10.178217821782178,1.7319742833831633
10.198019801980198,1.8327007042755712
10.217821782178218,1.933062955883596
10.237623762376238,2.032754946028781
10.257425742574258,2.1315110867961535
10.277227722772277,2.2290976462212884
10.297029702970297,2.325306282098272
10.316831683168317,2.4199491723504742
10.336633663366337,2.5128553208223745
10.356435643564357,2.6038677347125208
10.376237623762377,2.6928412533810167
10.396039603960396,2.779640867769129
10.415841584158416,2.8641404122355345
10.435643564356436,2.946221541235832
10.455445544554454,3.025772925447362
10.475247524752476,3.1026896181151513
10.495049504950495,3.1768725542798792
10.514851485148514,3.2482281543481437
10.534653465346535,3.316668010029937
10.554455445544555,3.3821086356018037
10.574257425742573,3.4444712711895287
10.594059405940595,3.5036817276125976
10.613861386138614,3.559670264519624
10.633663366336632,3.6123714952351675
10.653465346534654,3.6617243130544086
10.673267326732674,3.7076718347534
10.693069306930692,3.7501613578959336
10.712871287128714,3.7891443291635425
10.732673267326733,3.8245763214511785
