Frequency (Hz),Amplitude
0.0,1.8408260784435315
0.019867549668874173,1.8403995886265874
0.039735099337748346,1.8391211489619628
0.059602649006622516,1.8369938498123741
0.07947019867549669,1.834022845124834
0.09933774834437085,1.830215357429538
0.11920529801324503,1.8255806848070666
0.13907284768211922,1.8201302097890195
0.15894039735099338,1.813877410142142
0.17880794701986755,1.8068378714672637
0.1986754966887417,1.799029301519574
0.2185430463576159,1.7904715461268368
0.23841059602649006,1.7811866065437998
0.2582781456953642,1.771198658033974
0.27814569536423844,1.7605340694122065
0.2980132450331126,1.7492214232113763
0.31788079470198677,1.7372915360516807
0.33774834437086093,1.7247774786910626
0.3576158940397351,1.7117145951150428
0.3774834437086093,1.6981405198860837
0.3973509933774834,1.6840951928100498
0.4172185430463576,1.6696208697917538
0.4370860927152318,1.6547621285414889
0.45695364238410596,1.6395658675573845
0.4768211920529801,1.6240812965482379
0.49668874172185434,1.6083599161774276
0.5165562913907285,1.5924554847070733
0.5364238410596026,1.576423968808665
0.5562913907284769,1.5603234754921294
0.5761589403973509,1.544214161804849
0.5960264900662252,1.5281581186836866
0.6158940397350993,1.5122192251308202
0.6357615894039735,1.4964629687584015
0.6556291390728477,1.4809562287420475
0.6754966887417219,1.4657670173790527
0.695364238410596,1.450964176806414
0.7152317880794702,1.4366170280399173
0.7350993377483444,1.422794970388082
0.7549668874172186,1.4095670305056807
0.7748344370860927,1.3970013618969912
0.7947019867549668,1.3851646975559955
0.8145695364238411,1.3741217606037348
0.8344370860927152,1.3639346401870407
0.8543046357615894,1.3546621424295242
0.8741721854304636,1.3463591287321077
0.8940397350993378,1.3390758560276146
0.9139072847682119,1.3328573355029356
0.9337748344370861,1.327742727607087
0.9536423841059603,1.3237647916766158
0.9735099337748344,1.3209494080847286
0.9933774834437087,1.319315189376944
1.0132450331125828,1.3188731943980985
1.033112582781457,1.3196267560415864
1.0529801324503312,1.3215714291528722
1.0728476821192052,1.3246950605626084
1.0927152317880795,1.328977978529056
1.1125827814569538,1.3343932943671513
1.1324503311258278,1.340907305045203
1.1523178807947019,1.3484799822957725
1.1721854304635762,1.3570655314912097
1.1920529801324504,1.3666130022587129
1.2119205298013245,1.3770669325447944
1.2317880794701985,1.388368008490908
1.2516556291390728,1.400453723896177
1.271523178807947,1.4132590250284784
1.2913907284768211,1.4267169288939456
1.3112582781456954,1.440759105592088
1.3311258278145695,1.4553164178957123
1.3509933774834437,1.4703194135629272
1.370860927152318,1.4856987680144165
1.390728476821192,1.5013856768306277
1.410596026490066,1.5173121990117968
1.4304635761589404,1.5334115531005514
1.4503311258278146,1.549618369108859
1.4701986754966887,1.565868899754475
1.4900662251655628,1.5821011948352688
1.5099337748344372,1.5982552426973342
1.5298013245033113,1.6142730827265874
1.5496688741721854,1.630098892652414
1.5695364238410596,1.6456790542299464
1.5894039735099337,1.6609622005936477
1.609271523178808,1.6758992482722368
1.6291390728476822,1.690443416541231
1.6490066225165563,1.7045502364788754
1.6688741721854303,1.7181775517932356
1.6887417218543048,1.7312855132085545
1.7086092715231789,1.7438365679436219
1.728476821192053,1.7557954455825369
1.7483443708609272,1.7671291414332018
1.7682119205298013,1.7778068982870656
1.7880794701986755,1.787800187336766
1.8079470198675496,1.7970826888722307
1.8278145695364238,1.8056302732605667
1.847682119205298,1.8134209826174255
1.8675496688741722,1.820435013495643
1.8874172185430464,1.8266547008493659
1.9072847682119205,1.8320645034763474
1.9271523178807946,1.8366509910953934
1.9470198675496688,1.8404028331801903
1.9668874172185429,1.843310789640933
1.9867549668874174,1.8453677034228575
2.0066225165562916,1.8465684950722137
2.0264900662251657,1.8469101593065937
2.0463576158940397,1.8463917636146647
2.066225165562914,1.8450144489016638
2.086092715231788,1.8427814321882903
2.1059602649006623,1.839698011363322
2.1258278145695364,1.8357715719812961
2.1456953642384105,1.8310115960873041
2.165562913907285,1.8254296730385107
2.185430463576159,1.8190395122769978
2.205298013245033,1.8118569579885848
2.2251655629139075,1.8039000055580197
2.2450331125827816,1.7951888196986194
2.2649006622516556,1.7857457540955026
2.2847682119205297,1.7755953723520919
2.3046357615894038,1.764764469969366
2.324503311258278,1.753282097013777
2.3443708609271523,1.7411795810410948
2.364238410596027,1.7284905497376482
2.384105960264901,1.7152509526149238
2.403973509933775,1.701499080946501
2.423841059602649,1.6872755849653929
2.443708609271523,1.6726234871434549
2.463576158940397,1.657588190151247
2.4834437086092715,1.6422174778461855
2.5033112582781456,1.6265615073594666
2.52317880794702,1.6106727900507531
2.543046357615894,1.5946061587788738
2.562913907284768,1.5784187186025984
2.5827814569536423,1.5621697776920755
2.6026490066225163,1.5459207549105907
2.622516556291391,1.529735060241423
2.642384105960265,1.5136779440098915
2.662251655629139,1.4978163107198321
2.6821192052980134,1.4822184933232434
2.7019867549668874,1.4669539839161736
2.7218543046357615,1.4520931172477465
2.741721854304636,1.43770670409051
2.76158940397351,1.4238656124903095
2.781456953642384,1.4106402962268871
2.801324503311258,1.3981002714879194
2.821192052980132,1.386313544782939
2.8410596026490067,1.375345997459829
2.8609271523178808,1.3652607347583734
2.8807947019867552,1.356117410024013
2.9006622516556293,1.3479715373503094
2.9205298013245033,1.340873808324564
2.9403973509933774,1.3348694305021642
2.9602649006622515,1.3299975065096084
2.9801324503311255,1.3262904730781908
3.0,1.3237736186912594
3.0198675496688745,1.322464696815141
3.0397350993377485,1.3223736488982196
3.0596026490066226,1.323502447589642
3.0794701986754967,1.3258450661685617
3.0993377483443707,1.3293875752902555
3.119205298013245,1.3341083631924133
3.1390728476821192,1.3399784708221596
3.1589403973509933,1.3469620292661848
3.1788079470198674,1.3550167836512133
3.198675496688742,1.364094685497568
3.218543046357616,1.3741425344187503
3.23841059602649,1.3851026500306909
3.2582781456953644,1.3969135558474228
3.2781456953642385,1.409510658615334
3.2980132450331126,1.4228269087639294
3.3178807947019866,1.4367934302067695
3.3377483443708607,1.4513401104051573
3.3576158940397347,1.4663961442349553
3.3774834437086096,1.4818905276359666
3.3973509933774837,1.4977524991797027
3.4172185430463577,1.5139119295107792
3.437086092715232,1.530299660079379
3.456953642384106,1.5468477936939322
3.47682119205298,1.563489940212381
3.4966887417218544,1.5801614211946386
3.5165562913907285,1.5967994376038002
3.5364238410596025,1.6133432047164824
3.556291390728477,1.6297340583261652
3.576158940397351,1.6459155361390383
3.596026490066225,1.661833438003274
3.615894039735099,1.677435868308455
3.6357615894039736,1.6926732635655048
3.6556291390728477,1.7074984078454345
3.6754966887417218,1.7218664384309728
3.695364238410596,1.7357348437274516
3.7152317880794703,1.7490634551938051
3.7350993377483444,1.7618144347945421
3.754966887417219,1.773952259240381
3.774834437086093,1.7854437020793823
3.794701986754967,1.7962578145198163
3.814569536423841,1.8063659057105186
3.834437086092715,1.8157415230710148
3.854304635761589,1.8243604331507848
3.8741721854304636,1.8322006034021079
3.8940397350993377,1.8392421851719158
3.9139072847682117,1.8454674981533459
3.9337748344370858,1.8508610164845665
3.9536423841059607,1.8554093566398535
3.9735099337748347,1.8591012672238627
3.993377483443709,1.861927620753411
4.013245033112583,1.8638814074900845
4.033112582781457,1.8649577313712722
4.052980132450331,1.865153808074567
4.072847682119205,1.8644689652412407
4.0927152317880795,1.8629046448765039
4.112582781456953,1.8604644079377146
4.132450331125828,1.8571539411147635
4.152317880794702,1.8529810657998307
4.172185430463576,1.8479557492341203
4.19205298013245,1.8420901178083227
4.211920529801325,1.8353984724777588
4.231788079470199,1.8278973062337818
4.251655629139073,1.8196053235472915
4.271523178807947,1.810543461667321
4.291390728476821,1.8007349136160549
4.311258278145695,1.790205152669597
4.33112582781457,1.778981958049514
4.3509933774834435,1.7670954414710747
4.370860927152318,1.754578074098897
4.390728476821192,1.7414647133457763
4.410596026490066,1.7277926288143102
4.43046357615894,1.7136015265202866
4.450331125827815,1.698933570349679
4.470198675496689,1.6838333994849108
4.490066225165563,1.6683481402900082
4.509933774834438,1.6525274108663843
4.529801324503311,1.6364233161833135
4.549668874172186,1.6200904313511295
4.569536423841059,1.6035857702462935
4.589403973509934,1.5869687363236669
4.6092715231788075,1.5703010520757423
4.629139072847682,1.5536466632377353
4.649006622516556,1.5370716135152023
4.66887417218543,1.52064388535775
4.688741721854305,1.5044332021536373
4.708609271523179,1.4885107872216516
4.728476821192054,1.4729490751759244
4.748344370860927,1.4578213716908939
4.768211920529802,1.4432014584503814
4.788079470198675,1.4291631411750134
4.80794701986755,1.4157797401232097
4.827814569536423,1.403123524369656
4.847682119205298,1.3912650934696855
4.867549668874172,1.3802727127688303
4.887417218543046,1.3702116115194056
4.9072847682119205,1.3611432559767251
4.927152317880794,1.3531246125751604
4.947019867549669,1.346207418899976
4.966887417218543,1.340437482221443
4.986754966887418,1.3358540265953025
5.006622516556291,1.3324891097403426
5.026490066225166,1.3303671299270725
5.04635761589404,1.3295044408930865
5.066225165562914,1.3299090893932033
5.086092715231788,1.3315806855711756
5.105960264900662,1.3345104111864878
5.125827814569536,1.3386811652099355
5.14569536423841,1.344067840822611
5.1655629139072845,1.3506377228164157
5.185430463576159,1.358350990151719
5.205298013245033,1.3671613052410068
5.225165562913908,1.3770164695456029
5.245033112582782,1.3878591243268734
5.264900662251656,1.3996274758025131
5.28476821192053,1.4122560253572745
5.304635761589404,1.4256762876182383
5.324503311258278,1.439817481879126
5.344370860927152,1.4546071852965519
5.364238410596027,1.4699719392625052
5.3841059602649,1.4858378032011632
5.403973509933775,1.5021308526101056
5.4238410596026485,1.5187776203834502
5.443708609271523,1.5357054822731973
5.463576158940397,1.5528429887631943
5.483443708609272,1.5701201466649328
5.503311258278146,1.5874686544391414
5.52317880794702,1.6048220956480317
5.543046357615895,1.6221160951046507
5.562913907284768,1.6392884422607807
5.582781456953643,1.6562791862091926
5.602649006622516,1.6730307064143592
5.622516556291391,1.6894877629605496
5.642384105960264,1.7055975297482515
5.662251655629139,1.7213096136998791
5.682119205298013,1.7365760626694786
5.701986754966887,1.7513513644021563
5.7218543046357615,1.765592438562185
5.741721854304636,1.77925862355138
5.7615894039735105,1.79231165957105
5.781456953642384,1.8047156691433852
5.801324503311259,1.816437136101154
5.821192052980132,1.8274448838742896
5.841059602649007,1.8377100537487103
5.860927152317881,1.8472060836423834
5.880794701986755,1.8559086878342634
5.900662251655629,1.8637958379913648
5.920529801324503,1.870847745764372
5.940397350993377,1.8770468471616923
5.960264900662251,1.8823777888633002
5.980132450331126,1.886827416597215
6.0,1.8903847656712036
6.0198675496688745,1.893041053729886
6.039735099337749,1.8947896757893596
6.059602649006623,1.8956262015894458
6.079470198675497,1.895548375293967
6.099337748344371,1.8945561175626557
6.119205298013245,1.8926515300136295
6.139072847682119,1.8898389020896258
6.158940397350993,1.886124720338114
6.178807947019867,1.8815176801078652
6.198675496688741,1.876028699658045
6.218543046357616,1.8696709366643531
6.23841059602649,1.8624598070919764
6.258278145695365,1.8544130063849713
6.2781456953642385,1.8455505328949087
6.298013245033113,1.8358947134359098
6.317880794701987,1.825470230809077
6.337748344370861,1.81430415308168
6.357615894039735,1.8024259643354437
6.377483443708609,1.7898675965112518
6.397350993377484,1.7766634618698989
6.417218543046357,1.76285048546024
6.437086092715232,1.7484681368313533
6.456953642384105,1.7335584600435185
6.47682119205298,1.7181661008185738
6.496688741721854,1.7023383294227923
6.516556291390729,1.6861250575920899
6.5364238410596025,1.669578847488386
6.556291390728477,1.6527549103192904
6.5761589403973515,1.6357110918623667
6.596026490066225,1.618507841716874
6.6158940397351,1.601208162669334
6.635761589403973,1.5838775361196777
6.655629139072848,1.5665838190931243
6.675496688741721,1.5493971079875153
6.695364238410596,1.53238956391354
6.715231788079469,1.5156351943202764
6.735099337748344,1.4992095856155052
6.754966887417219,1.4831895817478415
6.774834437086093,1.4676529042824786
6.794701986754967,1.4526777104363198
6.814569536423841,1.438342086900374
6.8344370860927155,1.4247234791080654
6.854304635761589,1.4118980579215379
6.874172185430464,1.399940028484649
6.894039735099337,1.3889208891560212
6.913907284768212,1.3789086518632736
6.933774834437086,1.3699670387204395
6.95364238410596,1.3621546730799963
6.973509933774834,1.3555242860619392
6.993377483443709,1.3501219617078755
7.013245033112583,1.3459864449576815
7.033112582781457,1.343148536399014
7.052980132450331,1.341630596052707
7.072847682119205,1.3414461753071687
7.0927152317880795,1.3425997916273973
7.112582781456954,1.3450868551071777
7.132450331125828,1.3488937496949958
7.152317880794702,1.3539980654767814
7.172185430463576,1.3603689722347203
7.19205298013245,1.3679677190826238
7.211920529801324,1.3767482406759177
7.231788079470198,1.3866578475538953
7.251655629139073,1.3976379766941653
7.271523178807947,1.4096249783010542
7.291390728476822,1.422550916051232
7.311258278145695,1.436344360230131
7.33112582781457,1.4509311561196299
7.3509933774834435,1.4662351533353897
7.370860927152318,1.482178885282796
7.390728476821192,1.4986841912684155
7.410596026490066,1.5156727768903069
7.430463576158941,1.5330667110195582
7.450331125827814,1.5507888599115003
7.470198675496689,1.5687632607347992
7.490066225165562,1.5869154380967787
7.509933774834438,1.6051726680196072
7.52980132450331,1.6234641943405115
7.549668874172186,1.6417214027346179
7.569536423841059,1.6598779575544156
7.589403973509934,1.6778699065033227
7.6092715231788075,1.6956357578644448
7.629139072847682,1.7131165346324617
7.649006622516557,1.7302558094812923
7.66887417218543,1.7469997240696955
7.6887417218543055,1.763296995761453
7.708609271523178,1.7790989144302316
7.728476821192054,1.794359331639901
7.748344370860927,1.8090346441460887
7.768211920529802,1.823083773354661
7.788079470198675,1.836468142099304
7.80794701986755,1.849151649861793
7.827814569536423,1.8611006473528262
7.847682119205298,1.872283911196154
7.8675496688741715,1.8826726193107681
7.887417218543046,1.892240327462462
7.907284768211921,1.9009629473541134
7.927152317880795,1.9088187265407177
7.9470198675496695,1.9157882303879983
7.966887417218543,1.9218543262399814
7.986754966887418,1.9270021699188777
8.006622516556291,1.9312191946488972
8.026490066225167,1.9344951024710286
8.046357615894038,1.9368218581988417
8.066225165562914,1.9381936859529696
8.086092715231787,1.9386070683037013
8.105960264900663,1.9380607480463006
8.125827814569536,1.9365557326304794
8.14569536423841,1.934095301263714
8.165562913907285,1.9306850147061738
8.185430463576159,1.9263327277730418
8.205298013245034,1.9210486045557418
8.225165562913906,1.914845136367038
8.245033112582782,1.9077371624048596
8.264900662251655,1.8997418931140433
8.28476821192053,1.8908789362038247
8.304635761589404,1.8811703252493128
8.324503311258278,1.8706405507656363
8.344370860927151,1.8593165935927831
8.364238410596027,1.8472279603631276
8.3841059602649,1.8344067207424624
8.403973509933774,1.8208875460323901
8.42384105960265,1.8067077485977394
8.443708609271523,1.791907321430123
8.463576158940398,1.7765289769771169
8.483443708609272,1.760618184149572
8.503311258278146,1.7442232021650548
8.52317880794702,1.7273951095893636
8.543046357615895,1.7101878265977666
8.562913907284768,1.6926581280924147
8.582781456953642,1.6748656448823298
8.602649006622515,1.6568728496615475
8.62251655629139,1.638745024016882
8.642384105960264,1.6205502021718639
8.66225165562914,1.6023590866479338
8.682119205298013,1.5842449305239106
8.701986754966887,1.5662833805386713
8.721854304635762,1.548552274956215
8.741721854304636,1.5311313899550472
8.76158940397351,1.5141021283848417
8.781456953642383,1.4975471451279578
8.801324503311259,1.481549904094258
8.821192052980132,1.4661941631412798
8.841059602649008,1.451563385016049
8.86092715231788,1.4377400748008642
8.880794701986755,1.4248050473169975
8.90066225165563,1.4128366314490777
8.920529801324504,1.401909822281288
8.940397350993377,1.3920953960960836
8.960264900662251,1.3834590074082527
8.980132450331126,1.3760602909614659
9.0,1.3699519946272072
9.019867549668875,1.3651791710407195
9.039735099337747,1.3617784562492354
9.059602649006623,1.3597774623980732
9.079470198675496,1.359194308440332
9.099337748344372,1.3600373081068529
9.119205298013245,1.3623048281795704
9.139072847682119,1.3659853229050012
9.158940397350994,1.3710575427228062
9.178807947019868,1.3774909079795619
9.198675496688743,1.3852460315401187
9.218543046357615,1.394275368699988
9.23841059602649,1.4045239688888813
9.258278145695364,1.415930301508399
9.27814569536424,1.4284271278506155
9.298013245033111,1.441942392224767
9.317880794701987,1.4564001078847066
9.33774834437086,1.471721216738792
9.357615894039736,1.4878244057604508
9.37748344370861,1.504626867147713
9.397350993377483,1.5220449933073545
9.417218543046358,1.5399950014358785
9.437086092715232,1.5583934856866954
9.456953642384107,1.5771578975692453
9.47682119205298,1.5962069573012356
9.496688741721854,1.6154610003540208
9.516556291390728,1.6348422644482978
9.536423841059603,1.65427512284463
9.556291390728477,1.673686270011014
9.57615894039735,1.6930048657149028
9.596026490066224,1.7121626433524826
9.6158940397351,1.7310939879555738
9.635761589403973,1.7497359888591715
9.655629139072847,1.7680284715103871
9.675496688741722,1.785914012385715
9.695364238410596,1.8033379404793357
9.715231788079471,1.82024832834811
9.735099337748345,1.8365959752571186
9.754966887417218,1.85233438457081
9.774834437086092,1.8674197371787304
9.794701986754967,1.8818108624332317
9.814569536423841,1.8954692078067612
9.834437086092716,1.9083588082450322
9.854304635761588,1.9204462559972713
9.874172185430464,1.9317006715410132
9.894039735099337,1.942093676083435
9.913907284768213,1.9515993660103572
9.933774834437086,1.9601942895644213
9.95364238410596,1.967857425962256
9.973509933774835,1.9745701671044849
9.993377483443709,1.9803163019892633
10.013245033112582,1.9850820039074848
10.033112582781456,1.9888558204747566
10.052980132450331,1.9916286665386744
10.072847682119205,1.9933938199899792
10.09271523178808,1.9941469205001654
10.112582781456952,1.9938859712058468
10.132450331125828,1.9926113433601635
10.152317880794701,1.9903257839729132
10.172185430463577,1.987034426462916
10.192052980132452,1.9827448043474691
10.211920529801324,1.9774668679938587
10.2317880794702,1.971213004455024
10.251655629139073,1.9639980604057463
10.271523178807948,1.9558393681844457
10.29139072847682,1.9467567749284274
10.311258278145695,1.936772674765237
10.331125827814569,1.925912043987521
10.350993377483444,1.9142024790913872
10.370860927152318,1.901674237496428
10.390728476821192,1.8883602806857234
10.410596026490065,1.8742963194036217
10.43046357615894,1.8595208604233648
10.450331125827816,1.8440752542426937
10.470198675496688,1.8280037428771387
10.490066225165563,1.8113535066951156
10.509933774834437,1.7941747089692375
10.529801324503312,1.7765205365017522
10.549668874172186,1.7584472343127375
10.56953642384106,1.7400141319565852
10.589403973509933,1.721283658551984
10.609271523178808,1.7023213430781798
10.629139072847682,1.6831957959071284
10.649006622516556,1.6639786669233567
10.66887417218543,1.6447445749455185
10.688741721854305,1.625571002536183
10.70860927152318,1.6065381497067595
