Time (s),Filtered Signal
0.0,-0.00133893524198926
0.03337004405286344,-0.1381735713539733
0.06674008810572687,-0.26188766802264457
0.10011013215859031,-0.35780737414941943
0.13348017621145375,-0.4100061561928244
0.16685022026431717,-0.40459010690897923
0.20022026431718062,-0.33526738296058334
0.23359030837004408,-0.2088406369470795
0.2669603524229075,-0.04741130904861735
0.3003303964757709,0.11515779092513288
0.33370044052863435,0.24256424001726698
0.3670704845814978,0.30813249374219404
0.40044052863436125,0.3045056824823962
0.43381057268722467,0.24619535754976515
0.46718061674008815,0.16321007743860938
0.5005506607929515,0.0882531401001753
0.533920704845815,0.043263639932740926
0.5672907488986785,0.03150796217465072
0.6006607929515418,0.03869894376093547
0.6340308370044053,0.04218191821205012
0.6674008810572687,0.023429937287578275
0.7007709251101322,-0.02218361521507541
0.7341409691629956,-0.0826835851479834
0.767511013215859,-0.13465401812045402
0.8008810572687225,-0.15348322727829977
0.834251101321586,-0.12396015684739846
0.8676211453744493,-0.046810954686275046
0.9009911894273128,0.061100313942103066
0.9343612334801763,0.17242893432130563
0.9677312775330397,0.2582608854015886
1.001101321585903,0.29689078583643047
1.0344713656387665,0.27962735314457804
1.06784140969163,0.21215498108858735
1.1012114537444935,0.11154490243620555
1.134581497797357,0.0003078866698755238
1.1679515418502202,-0.10035783781116388
1.2013215859030837,-0.17590016490061447
1.2346916299559472,-0.2207720159873089
1.2680616740088106,-0.23748738763501598
1.3014317180616741,-0.233371844312959
1.3348017621145374,-0.21682099965527227
1.3681718061674009,-0.19476889447197523
1.4015418502202643,-0.1720921707574864
1.4349118942731278,-0.1524025924038059
1.4682819383259913,-0.13887377694706807
1.5016519823788548,-0.13390564255786216
1.535022026431718,-0.13745387429390996
1.5683920704845815,-0.14507839905256398
1.601762114537445,-0.14736681408754712
1.6351321585903085,-0.13190852068753606
1.668502202643172,-0.08766074459765716
1.7018722466960352,-0.010134074637962249
1.7352422907488987,0.09485206866323409
1.7686123348017622,0.2106881280746625
1.8019823788546256,0.31338692586908556
1.8353524229074891,0.37806402243663195
1.8687224669603526,0.38653042311181485
1.9020925110132159,0.33352539525901687
1.9354625550660793,0.2293393843299006
1.9688325991189428,0.09757643275120656
2.002202643171806,-0.03156124103906696
2.0355726872246698,-0.13030921493728356
2.068942731277533,-0.1814186622635115
2.1023127753303967,-0.18222508324681158
2.13568281938326,-0.14331157929401184
2.1690528634361232,-0.0827192885682086
2.202422907488987,-0.01852643563784742
2.23579295154185,0.036925554141271986
2.269162995594714,0.07900253520912348
2.302533039647577,0.10884113409154389
2.3359030837004404,0.1293023179843093
2.369273127753304,0.14141154943259535
2.4026431718061674,0.14324116615530116
2.436013215859031,0.1315452985667005
2.4693832599118943,0.10477830530766004
2.5027533039647576,0.06537606736685375
2.5361233480176213,0.01975196922436799
2.5694933920704845,-0.02404921951602932
2.6028634361233483,-0.05964218489704466
2.6362334801762115,-0.08462590285186726
2.6696035242290748,-0.10073632974730744
2.7029735682819385,-0.11203202187863126
2.7363436123348017,-0.12249119975985975
2.7697136563876654,-0.1345815246741233
2.8030837004405287,-0.149474212183932
2.8364537444933924,-0.16824026041872167
2.8698237885462556,-0.1925162429103181
2.903193832599119,-0.2233911823186862
2.9365638766519826,-0.2585629270594291
2.969933920704846,-0.28936596952833704
3.0033039647577096,-0.30005697965739303
3.036674008810573,-0.27110161864976645
3.070044052863436,-0.18627979623009097
3.1034140969162998,-0.04115054828255949
3.136784140969163,0.15095342099713568
3.1701541850220267,0.35880966995187363
3.20352422907489,0.5402644209716958
3.2368942731277532,0.6544080036611148
3.270264317180617,0.6746473890005731
3.30363436123348,0.5976711863923121
3.337004405286344,0.4447534189422271
3.370374449339207,0.25481860586147403
3.4037444933920704,0.0719306596002616
3.437114537444934,-0.0679923601471849
3.4704845814977974,-0.14632775765352746
3.503854625550661,-0.16388005127278396
3.5372246696035243,-0.13639365036002488
3.5705947136563876,-0.08675155816029034
3.6039647577092513,-0.03809140726060647
3.6373348017621145,-0.010442905784387129
3.6707048458149782,-0.020352333730088667
3.7040748898678415,-0.08049636123960657
3.737444933920705,-0.19640541743590917
3.7708149779735685,-0.3602919554677729
3.8041850220264317,-0.545696884927767
3.8375550660792954,-0.7083720187368584
3.8709251101321587,-0.7966893028781136
3.9042951541850224,-0.7695913405436049
3.9376651982378856,-0.6147137688667196
3.971035242290749,-0.3574196264418155
4.004405286343612,-0.05487048571149963
4.037775330396476,0.22351259336118828
4.0711453744493395,0.42077449152394564
4.104515418502203,0.511149329375059
4.137885462555066,0.5047811585647705
4.171255506607929,0.43767928336721923
4.2046255506607935,0.35325160535188943
4.237995594713657,0.28491818722563755
4.27136563876652,0.24726460553389024
4.304735682819383,0.2376946092653186
4.3381057268722465,0.24498034989069276
4.371475770925111,0.25844133936189706
4.404845814977974,0.2726667315917439
4.438215859030837,0.2864426743346836
4.4715859030837,0.2983459538748817
4.504955947136564,0.3031364197767878
4.538325991189428,0.2919448877618449
4.571696035242291,0.25632974876382875
4.605066079295154,0.1935214379397901
4.638436123348018,0.10928574830235006
4.671806167400881,0.016289690508737093
4.705176211453745,-0.07132659698639497
4.738546255506608,-0.14408299316432535
4.7719162995594715,-0.20046082303273213
4.805286343612335,-0.2455812740520338
4.838656387665198,-0.28627265847802424
4.872026431718062,-0.32563764228490927
4.905396475770925,-0.3603821668754556
4.938766519823789,-0.3823856397842861
4.972136563876652,-0.3834494514394936
5.005506607929515,-0.36038492269463857
5.038876651982379,-0.31754473165352914
5.072246696035243,-0.2654542464786752
5.105616740088106,-0.21636883405347865
5.138986784140969,-0.17914582326062645
5.172356828193832,-0.15600870412030338
5.2057268722466965,-0.14263195256159192
5.23909691629956,-0.1311993391213883
5.272466960352423,-0.11463096169541515
5.305837004405286,-0.08973097253421966
5.3392070484581495,-0.05773442930123625
5.372577092511014,-0.022216690688488635
5.405947136563877,0.014197815631269468
5.43931718061674,0.052204089386119576
5.4726872246696034,0.09563964827071945
5.506057268722468,0.1486103676041434
5.539427312775331,0.2114317455098007
5.572797356828194,0.27781181168237734
5.606167400881057,0.3352854144975681
5.639537444933921,0.3693024486302679
5.672907488986785,0.3693796358460895
5.706277533039648,0.3343998433161078
5.739647577092511,0.27424940449304336
5.7730176211453745,0.2065973169343019
5.806387665198238,0.15001844043961585
5.839757709251102,0.11660396731483891
5.873127753303965,0.10756007153661325
5.9064977973568284,0.11377106688598038
5.939867841409692,0.12072228483854498
5.973237885462555,0.11504651205365653
6.006607929515419,0.08949710746888864
6.039977973568282,0.044486515621545465
6.073348017621146,-0.01355477628409112
6.106718061674009,-0.07524970646344954
6.140088105726872,-0.13096158986851772
6.173458149779736,-0.17236429745340245
6.2068281938325995,-0.19335836983962282
6.240198237885463,-0.19115267502532038
6.273568281938326,-0.1676810038301519
6.306938325991189,-0.13053026357004882
6.3403083700440535,-0.092143754323023
6.373678414096917,-0.0666785370538986
6.40704845814978,-0.06519215946772795
6.440418502202643,-0.0909654391875999
6.4737885462555065,-0.13702755676026568
6.507158590308371,-0.18721373857918788
6.540528634361234,-0.22077099854328058
6.573898678414097,-0.2192169538530091
6.60726872246696,-0.17327645171083658
6.640638766519824,-0.08747450400552985
6.674008810572688,0.019567853295821527
6.707378854625551,0.11990021568937617
6.740748898678414,0.18509376737403163
6.774118942731278,0.19637817462386148
6.807488986784141,0.15216111135954524
6.840859030837005,0.06943560151386233
6.874229074889868,-0.02223673834693218
6.9075991189427315,-0.09222194706849132
6.940969162995595,-0.12105042893253154
6.974339207048458,-0.10791498615867924
7.007709251101322,-0.06991197082826897
7.041079295154185,-0.03333763580625419
7.074449339207049,-0.021111999357621737
7.107819383259912,-0.042142714955086875
7.141189427312775,-0.08732730740503203
7.174559471365639,-0.1336345805031719
7.207929515418503,-0.1540570997138789
7.241299559471366,-0.12893223600313433
7.274669603524229,-0.05402818786792538
7.308039647577092,0.057437940819552516
7.3414096916299565,0.17911049871546642
7.37477973568282,0.28015368485420666
7.408149779735683,0.33506863909257034
7.441519823788546,0.33146098846885963
7.47488986784141,0.27349501510930024
7.508259911894274,0.1802653832259384
7.541629955947137,0.07988895652168533
7.575,0.0013103929812251583
7.608370044052863,-0.03371691325455457
7.641740088105728,-0.01635705728326211
7.675110132158591,0.04709240327910457
7.708480176211454,0.13673925833005776
7.741850220264317,0.22395601194530632
7.775220264317181,0.2787014249752185
7.808590308370045,0.2779450968923979
7.841960352422908,0.21312534878654768
7.875330396475771,0.094076422024098
7.9087004405286345,-0.05266910599958867
7.942070484581498,-0.191511169317943
7.975440528634362,-0.28913661139473557
8.008810572687224,-0.32545245893897073
8.042180616740088,-0.29980031018536396
8.075550660792953,-0.23003009859567966
8.108920704845815,-0.14502371195064648
8.142290748898679,-0.07392244252545813
8.175660792951541,-0.03640442717414199
8.209030837004406,-0.037525907013977886
8.24240088105727,-0.06846085538706104
8.275770925110132,-0.11204325843173235
8.309140969162996,-0.15036941637861537
8.342511013215859,-0.1713878010310339
8.375881057268723,-0.17228680395448498
8.409251101321587,-0.15900528537855282
8.44262114537445,-0.14262579651547888
8.475991189427313,-0.1342717693673908
8.509361233480176,-0.14030860003393805
8.54273127753304,-0.15932927256599028
8.576101321585904,-0.1818253274590099
8.609471365638766,-0.19272442127585748
8.64284140969163,-0.17616197863011535
8.676211453744493,-0.121078598371718
8.709581497797357,-0.025780800666360282
8.742951541850221,0.10023335241363626
8.776321585903084,0.23802589591159357
8.809691629955948,0.36411243403156096
8.84306167400881,0.45688413556307317
8.876431718061674,0.5023808114314187
8.909801762114538,0.4975309468260136
8.9431718061674,0.4499735763485284
8.976541850220265,0.37481979148480754
9.009911894273127,0.2896797482566225
9.043281938325991,0.20966242580011119
9.076651982378856,0.14384443001845387
9.110022026431718,0.09409567258526914
9.143392070484582,0.05636606820709882
9.176762114537445,0.023758775685868594
9.210132158590309,-0.009870644228217063
9.243502202643173,-0.04722331947152039
9.276872246696035,-0.0868192462265337
9.3102422907489,-0.12438395889614771
9.343612334801762,-0.15553124064951712
9.376982378854626,-0.17828259808812333
9.41035242290749,-0.19407020876355532
9.443722466960352,-0.20671572908192207
9.477092511013216,-0.2200398996396342
9.510462555066079,-0.23557691798455366
9.543832599118943,-0.2518182265290843
9.577202643171807,-0.26545520922456184
9.61057268722467,-0.2737675732617862
9.643942731277534,-0.2764487033022801
9.677312775330396,-0.27539038680685407
9.71068281938326,-0.2722366469004426
9.744052863436124,-0.2651209144186144
9.777422907488987,-0.24688019778423037
9.81079295154185,-0.20650943410244854
9.844162995594713,-0.13384969361672644
9.877533039647577,-0.025492242327545978
9.910903083700441,0.11114270482330398
9.944273127753304,0.25794787121191876
9.977643171806168,0.39088281537113967
10.01101321585903,0.48747054262715706
10.044383259911895,0.5338582554717135
10.077753303964759,0.528528454680874
10.111123348017621,0.4813445209067976
10.144493392070485,0.4086745215372329
10.177863436123348,0.32688039366383004
10.211233480176212,0.2468831445753344
10.244603524229076,0.17179342115165597
10.277973568281938,0.09818175315716407
10.311343612334802,0.02009801368323342
10.344713656387665,-0.06602086268011378
10.378083700440529,-0.1576291382598227
10.411453744493393,-0.2451048473563801
10.444823788546255,-0.3141096905860216
10.47819383259912,-0.35065311074231165
10.511563876651982,-0.34713868854679375
10.544933920704846,-0.3070048265875144
10.57830396475771,-0.24568660697833083
10.611674008810573,-0.1867155480327891
10.645044052863437,-0.15364834565094893
10.678414096916299,-0.1605153756214255
10.711784140969163,-0.20467622660993304
10.745154185022027,-0.2655977212616035
10.77852422907489,-0.31098386938513495
10.811894273127754,-0.30858200267173375
10.845264317180618,-0.23921101586602053
10.87863436123348,-0.10551583966525356
10.912004405286345,0.0676175714406922
10.945374449339207,0.24158554142298536
10.978744493392071,0.3781514417101305
11.012114537444935,0.45314874967722313
11.045484581497798,0.46401219827615614
11.078854625550662,0.4281914392166685
11.112224669603524,0.3736543596867426
11.145594713656388,0.32612601166066474
11.178964757709252,0.29882241403194304
11.212334801762115,0.28883232670375214
11.245704845814979,0.2809409338684229
11.279074889867841,0.25632644634484403
11.312444933920705,0.20177145376100047
11.34581497797357,0.11543823971779293
11.379185022026432,0.007336633573424695
11.412555066079296,-0.1048716209142982
11.445925110132158,-0.2023482970162493
11.479295154185023,-0.2710856998576412
11.512665198237887,-0.3055325497986467
11.546035242290749,-0.3092656143484392
11.579405286343613,-0.2932183007550825
11.612775330396476,-0.27239117647618044
11.64614537444934,-0.26181125816451084
11.679515418502204,-0.27224499674352065
11.712885462555066,-0.30625491854717546
11.74625550660793,-0.35566317850068574
11.779625550660793,-0.40187704529572654
11.812995594713657,-0.42017939791867714
11.846365638766521,-0.38768963534700956
11.879735682819383,-0.2927017517705492
11.913105726872248,-0.1415966687724089
11.94647577092511,0.04035879770913859
11.979845814977974,0.21585939873823165
12.013215859030838,0.34814794655014875
12.0465859030837,0.4143925394082706
12.079955947136565,0.41399881888692724
12.113325991189427,0.3679621419187475
12.146696035242291,0.3093853907280442
12.180066079295155,0.2693793270016778
12.213436123348018,0.26463356191299275
12.246806167400882,0.29196357719495997
12.280176211453744,0.33167813164562726
12.313546255506608,0.35750278856751233
12.346916299559473,0.3480930061165125
12.380286343612335,0.2950496623340768
12.413656387665199,0.20457188180956812
12.447026431718061,0.09308259224292645
12.480396475770926,-0.020294541313234955
12.51376651982379,-0.12069478068927282
12.547136563876652,-0.20114197795068145
12.580506607929516,-0.2620533976961917
12.613876651982379,-0.30776292143891104
12.647246696035243,-0.3422791555984844
12.680616740088107,-0.36641009476989045
12.71398678414097,-0.3773920359525343
12.747356828193833,-0.3708304649272716
12.780726872246696,-0.34370202113169535
12.81409691629956,-0.2967897070586474
12.847466960352424,-0.23532234403741292
12.880837004405286,-0.16753216981493188
12.91420704845815,-0.10186911558170637
12.947577092511013,-0.04422185056496072
12.980947136563877,0.0035898474436333555
13.014317180616741,0.043487429441878764
13.047687224669604,0.07932552525958199
13.081057268722468,0.11462048497347231
13.11442731277533,0.1509420851056439
13.147797356828194,0.18765208643129577
13.181167400881058,0.2229230619948638
13.21453744493392,0.2552730411370147
13.247907488986785,0.28454345076108456
13.281277533039647,0.31151477631361346
13.314647577092511,0.3361267254497764
13.348017621145376,0.3552076860891288
13.381387665198238,0.36122558028915286
13.414757709251102,0.34341478351206245
13.448127753303964,0.29159116273947294
13.481497797356829,0.2014079433998232
13.514867841409693,0.07854132430771563
13.548237885462555,-0.06078402249871426
13.58160792951542,-0.19403239593582472
13.614977973568282,-0.29997510849592457
13.648348017621146,-0.3662113569797963
13.68171806167401,-0.39282133072336445
13.715088105726872,-0.3903157405221289
13.748458149779736,-0.37318165272936316
13.781828193832599,-0.35273796595916784
13.815198237885463,-0.33315848121189123
13.848568281938327,-0.31231254819541565
13.88193832599119,-0.28598655996241196
13.915308370044054,-0.25213002847275306
13.948678414096916,-0.21224291187230743
13.98204845814978,-0.1694452462983585
14.015418502202644,-0.12533965980206513
14.048788546255507,-0.07860074954769837
14.08215859030837,-0.026708545935102995
14.115528634361233,0.030446426298022817
14.148898678414097,0.08814273864383629
14.182268722466961,0.13809596825031972
14.215638766519824,0.17333562621660603
14.249008810572688,0.1938233250743558
14.28237885462555,0.20895316533904007
14.315748898678414,0.23463129405781386
14.349118942731279,0.28576069519637204
14.382488986784141,0.3677087496694257
14.415859030837005,0.47110107242749044
14.449229074889868,0.5727397418339034
14.482599118942732,0.6425663096977159
14.515969162995596,0.653921358405879
14.549339207048458,0.5930829014170734
14.582709251101322,0.46452504158715013
14.616079295154185,0.29007766955535585
14.649449339207049,0.10238490348064605
14.682819383259913,-0.06502220834431989
14.716189427312775,-0.18767699076280997
14.74955947136564,-0.256908661236649
14.782929515418502,-0.28132054889417624
14.816299559471366,-0.28281109134559823
14.84966960352423,-0.28866089954893687
14.883039647577093,-0.32221842749829355
14.916409691629957,-0.3948327141908123
14.94977973568282,-0.5011821500637279
14.983149779735683,-0.6194071442545708
15.016519823788547,-0.716551412011535
15.04988986784141,-0.7585366405961682
15.083259911894274,-0.7221719910082082
15.116629955947138,-0.6050763681125503
15.15,-0.42897870166894897
15.183370044052865,-0.23364513837853676
15.216740088105727,-0.06257665997580017
15.250110132158591,0.053993262801502635
15.283480176211455,0.11094974745149391
15.316850220264318,0.12882295533339566
15.350220264317182,0.14223542862542943
15.383590308370044,0.18190309988828576
15.416960352422908,0.2593960106387689
15.450330396475772,0.3623270289507128
15.483700440528635,0.46184478505276766
15.517070484581499,0.5277575461861929
15.550440528634361,0.5430904357929626
15.583810572687225,0.5110386358644347
15.61718061674009,0.45189281336668224
15.650550660792952,0.3926195279471453
15.683920704845816,0.3546915148131486
15.717290748898678,0.3455066047099337
15.750660792951543,0.3561942459945354
15.784030837004407,0.3655855507983372
15.817400881057269,0.348097960027544
15.850770925110133,0.28269617940448877
15.884140969162996,0.16045186115500842
15.91751101321586,-0.011169043682635169
15.950881057268724,-0.20857808625415486
15.984251101321586,-0.39735583083487
16.01762114537445,-0.5416458847881053
16.050991189427315,-0.6150363367701731
16.084361233480177,-0.6091586981698345
16.11773127753304,-0.536542556477428
16.151101321585905,-0.4262356151709635
16.184471365638768,-0.3135396904738653
16.21784140969163,-0.22760524872851906
16.251211453744492,-0.18151395317421637
16.284581497797358,-0.16855881244612372
16.31795154185022,-0.16613657919721575
16.351321585903083,-0.14584647243878016
16.38469162995595,-0.08600015603621827
16.41806167400881,0.01835667290206457
16.451431718061674,0.15208839115251768
16.48480176211454,0.28494538803108665
16.518171806167402,0.3830608662093728
16.551541850220264,0.422187865267673
16.584911894273127,0.3969381628190524
16.618281938325993,0.322011215541753
16.651651982378855,0.22510954396278543
16.685022026431717,0.1350963349113917
16.718392070484583,0.07098614856069484
16.751762114537446,0.03657524053447651
16.785132158590308,0.022447116656070413
16.818502202643174,0.013436043709073283
16.851872246696036,-0.0027245289284371994
16.8852422907489,-0.02985530004281533
16.91861233480176,-0.06309291393243387
16.951982378854627,-0.09326575673598213
16.98535242290749,-0.11299992488063727
17.01872246696035,-0.12118813090147854
17.052092511013218,-0.123701361519057
17.08546255506608,-0.13035867964865117
17.118832599118942,-0.15001200651852872
17.152202643171808,-0.18627306861851062
17.18557268722467,-0.235757172571603
