Frequency (Hz),Amplitude
0.0,8.786203008164042
0.01993355481727575,8.78435944910089
0.0398671096345515,8.77883367144204
0.059800664451827246,8.769640376361808
0.079734219269103,8.756804074374744
0.09966777408637874,8.740359097991396
0.11960132890365449,8.720349619068996
0.13953488372093023,8.696829670471997
0.159468438538206,8.669863171524158
0.17940199335548174,8.639523956579863
0.19933554817275748,8.605895805866535
0.21926910299003324,8.569072477545367
0.23920265780730898,8.529157739700402
0.25913621262458475,8.486265400690234
0.27906976744186046,8.440519335977616
0.29900332225913623,8.392053509185676
0.318936877076412,8.341011984708247
0.3388704318936877,8.28754892872438
0.3588039867109635,8.231828594927824
0.37873754152823924,8.174025290680627
0.39867109634551495,8.114323318634543
0.4186046511627907,8.052916888138903
0.4385382059800665,7.990009989973741
0.4584717607973422,7.925816227124477
0.47840531561461797,7.860558593466044
0.49833887043189373,7.79446919137377
0.5182724252491695,7.727788878459555
0.5382059800664452,7.660766832886772
0.5581395348837209,7.5936600261011655
0.5780730897009968,7.526732591392548
0.5980066445182725,7.460255076552217
0.6179401993355482,7.394503569101884
0.637873754152824,7.329758683239176
0.6578073089700996,7.26630439887427
0.6777408637873754,7.204426745022569
0.6976744186046512,7.144412322459289
0.717607973421927,7.086546664003403
0.7375415282392027,7.031112435115726
0.7574750830564785,6.978387482657266
0.7774086378737541,6.928642745584553
0.7973421926910299,6.882140047910496
0.8172757475083057,6.839129801199837
0.8372093023255814,6.799848650880908
0.8571428571428572,6.764517107345189
0.877076411960133,6.733337208718112
0.8970099667774087,6.70649026683226
0.9169435215946844,6.684134750840997
0.9368770764119602,6.666404363657275
0.9568106312292359,6.653406364677502
0.9767441860465116,6.645220187896246
0.9966777408637875,6.6418963975691945
1.0166112956810631,6.643456014279403
1.036544850498339,6.649890233051222
1.0564784053156147,6.661160542653776
1.0764119601328903,6.67719924218083
1.0963455149501662,6.6979103381767935
1.1162790697674418,6.723170793768113
1.1362126245847177,6.752832091128428
1.1561461794019936,6.786722060673379
1.176079734219269,6.824646924971194
1.196013289036545,6.866393502584637
1.2159468438538206,6.911731516844162
1.2358803986710964,6.9604159566366715
1.255813953488372,7.012189440296727
1.275747508305648,7.066784539147999
1.2956810631229239,7.123926023674314
1.3156146179401993,7.183333002230773
1.3355481727574752,7.244720929213939
1.3554817275747508,7.307803466347013
1.3754152823920267,7.372294186935009
1.3953488372093024,7.437908118425101
1.4152823920265782,7.504363123265639
1.435215946843854,7.571381121858718
1.4551495016611296,7.63868916436353
1.4750830564784054,7.706020360288818
1.495016611295681,7.7731146762954575
1.514950166112957,7.839719613512326
1.5348837209302328,7.905590776051921
1.5548172757475083,7.970492342396523
1.5747508305647842,8.034197451003815
1.5946843853820598,8.096488510934655
1.6146179401993357,8.157157447606432
1.6345514950166113,8.216005892981515
1.6544850498338872,8.272845328659008
1.6744186046511629,8.32749718948651
1.6943521594684385,8.379792934473945
1.7142857142857144,8.429574090994066
1.73421926910299,8.476692277506578
1.754152823920266,8.52100920935396
1.7740863787375416,8.562396691550006
1.7940199335548175,8.600736601918545
1.8139534883720931,8.635920867438188
1.8338870431893688,8.667851436206089
1.8538205980066447,8.696440247046038
1.8737541528239203,8.721609198448776
1.893687707641196,8.743290118240198
1.9136212624584719,8.761424735121206
1.9335548172757475,8.775964653005849
1.9534883720930232,8.786871328897565
1.9734219269102993,8.794116054881252
1.993355481727575,8.797679944667761
2.0132890365448506,8.797553925001932
2.0332225913621262,8.793738732131942
2.0531561461794023,8.78624491343159
2.073089700996678,8.77509283416508
2.0930232558139537,8.760312689280868
2.1129568106312293,8.74194452001404
2.132890365448505,8.72003823496103
2.1528239202657806,8.694653635161863
2.1727574750830567,8.665860442579993
2.1926910299003324,8.63373833120264
2.212624584717608,8.598376959791663
2.2325581395348837,8.559876005090638
2.25249169435216,8.518345194033737
2.2724252491694354,8.473904333200203
2.292358803986711,8.426683333410503
2.312292358803987,8.376822226960629
2.332225913621263,8.324471174535768
2.352159468438538,8.269790458329528
2.3720930232558137,8.212950457317229
2.39202657807309,8.154131599990913
2.4119601328903655,8.093524289161056
2.431893687707641,8.03132879266991
2.4518272425249172,7.967755093053782
2.471760797342193,7.903022688350021
2.4916943521594686,7.837360335390847
2.511627906976744,7.771005726090007
2.5315614617940203,7.70420508644733
2.551495016611296,7.637212687321929
2.5714285714285716,7.570290255516601
2.5913621262458477,7.503706273448046
2.611295681063123,7.437735155734411
2.6312292358803986,7.372656291507326
2.6511627906976742,7.308752942250981
2.6710963455149503,7.2463109865881
2.691029900332226,7.185617505766146
2.7109634551495017,7.126959206727257
2.7308970099667778,7.070620683621507
2.7508305647840534,7.0168825234548
2.770764119601329,6.966019267200892
2.7906976744186047,6.918297244035508
2.810631229235881,6.873972303169396
2.8305647840531565,6.833287474784931
2.850498338870432,6.7964705984517755
2.870431893687708,6.7637319636774
2.8903654485049834,6.735262012460975
2.910299003322259,6.711229157377915
2.9302325581395348,6.691777770380884
2.950166112956811,6.6770263967987535
2.9700996677740865,6.66706624572656
2.990033222591362,6.661960002079015
3.0099667774086383,6.6617409971864054
3.029900332225914,6.666412764308455
3.0498338870431896,6.675948993381744
3.0697674418604657,6.690293886396164
3.089700996677741,6.70936290179291
3.1096345514950166,6.733043863976347
3.129568106312292,6.761198403153896
3.1495016611295683,6.793663681847483
3.169435215946844,6.830254357963308
3.1893687707641196,6.870764730463996
3.2093023255813957,6.914971012453543
3.2292358803986714,6.962633677670485
3.249169435215947,7.013499829654079
3.2691029900332227,7.067305547766289
3.289036544850499,7.123778170340647
3.3089700996677744,7.182638482002908
3.32890365448505,7.2436027792253554
3.3488372093023258,7.306384795055277
3.3687707641196014,7.370697470398393
3.388704318936877,7.4362545650249245
3.4086378737541527,7.50277210646577
3.428571428571429,7.5699696791173645
3.4485049833887045,7.6375715591746065
3.46843853820598,7.705307703504076
3.4883720930232562,7.7729146023288145
3.508305647840532,7.840136006714336
3.5282392026578075,7.906723542423097
3.548172757475083,7.972437221843699
3.5681063122923593,8.037045865496816
3.588039867109635,8.100327444158848
3.60797342192691,8.162069352002634
3.6279069767441863,8.222068620394845
3.647840531561462,8.28013208116513
3.6677740863787376,8.336076487312093
3.6877076411960132,8.38972859826834
3.7076411960132893,8.440925236033047
3.727574750830565,8.4895133177121
3.7475083056478407,8.535349869292475
3.7674418604651168,8.578302024825447
3.787375415282392,8.618247014603721
3.807308970099668,8.655072145390884
3.8272425249169437,8.688674775295002
3.8471760797342194,8.718962285468363
3.867109634551495,8.745852050457602
3.887043189368771,8.769271408717994
3.9069767441860463,8.7891576345378
3.9269102990033224,8.805457912387112
3.9468438538205985,8.818129314506871
3.9667774086378738,8.827138782381539
3.98671096345515,8.83246311258934
4.0066445182724255,8.834088947392098
4.026578073089701,8.832012770308552
4.046511627906977,8.826240906805642
4.0664451827242525,8.816789530138854
4.086378737541528,8.8036846722695
4.106312292358805,8.786962239681621
4.1262458471760795,8.766668033808655
4.146179401993356,8.742857775656308
4.166112956810632,8.715597134069988
4.186046511627907,8.684961756935465
4.205980066445183,8.651037304420143
4.225913621262459,8.613919483148864
4.245847176079734,8.573714079963318
4.26578073089701,8.530536993627669
4.2857142857142865,8.484514262514095
4.305647840531561,8.435782085922018
4.325581395348838,8.384486836251531
4.345514950166113,8.330785058759512
4.365448504983389,8.274843455073338
4.385382059800665,8.216838846020414
4.40531561461794,8.156958108652292
4.425249169435216,8.095398081603038
4.445182724252492,8.03236543213065
4.465116279069767,7.968076477359422
4.485049833887043,7.902756951388498
4.50498338870432,7.836641709084608
4.524916943521594,7.76997435656793
4.544850498338871,7.703006797677363
4.5647840531561465,7.635998685118428
4.584717607973422,7.5692167646250414
4.604651162790698,7.502934100382955
4.624584717607974,7.437429170260784
4.644518272425249,7.372984820171137
4.664451827242526,7.309887068241861
4.6843853820598005,7.248423751515586
4.704318936877076,7.188883010700018
4.724252491694353,7.1315516121255
4.7441860465116275,7.076713110558644
4.764119601328904,7.024645861845469
4.78405315614618,6.975620900428189
4.803986710963455,6.929899703430812
4.823920265780731,6.887731869992446
4.8438538205980075,6.8493527515107875
4.863787375415282,6.8149810750340984
4.883720930232559,6.784816607745432
4.9036544850498345,6.759037914831669
4.92358803986711,6.737800265553957
4.943521594684386,6.721233742632989
4.963455149501661,6.709441607849576
4.983388704318937,6.702498971914262
5.003322259136213,6.700451809251972
5.023255813953488,6.703316348659515
5.043189368770764,6.711078859302432
5.063122923588041,6.7236958388676635
5.083056478405315,6.741094597627611
5.102990033222592,6.763174219493927
5.122923588039868,6.789806869594368
5.142857142857143,6.820839408144033
5.162790697674419,6.856095262885148
5.182724252491695,6.8953765074249835
5.20265780730897,6.938466090487813
5.222591362126246,6.985130161299016
5.242524916943522,7.035120438756531
5.262458471760797,7.0881765763206825
5.282392026578074,7.144028480201067
5.3023255813953485,7.202398544953538
5.322259136212625,7.263003777557704
5.342192691029901,7.32555778801739
5.362126245847176,7.389772631178023
5.382059800664452,7.455360490535407
5.4019933554817285,7.5220352001528825
5.421926910299003,7.5895136053177
5.44186046511628,7.657516766226938
5.4617940199335555,7.725771011823642
5.48172757475083,7.794008852967462
5.501661129568107,7.861969765506106
5.5215946843853825,7.92940085461314
5.541528239202658,7.996057412075141
5.561461794019934,8.061703378146042
5.5813953488372094,8.12611171922836
5.601328903654485,8.189064732071284
5.621262458471762,8.250354284462075
5.641196013289036,8.309782001587093
5.661129568106313,8.367159406396917
5.681063122923589,8.422308021462888
5.700996677740864,8.475059438984463
5.72093023255814,8.525255364818445
5.740863787375416,8.572747641663673
5.760797342192691,8.617398255856218
5.780730897009967,8.65907933161366
5.800664451827243,8.697673116013487
5.820598006644518,8.733071957498428
5.840531561461795,8.765178280267339
5.8604651162790695,8.793904556530299
5.880398671096346,8.819173278275954
5.900332225913622,8.840916929912883
5.920265780730897,8.859077962899851
5.940199335548173,8.87360877326674
5.960132890365449,8.884471682744437
5.980066445182724,8.891638924062493
6.0,8.895092630833615
6.0199335548172765,8.894824832319879
6.039867109634551,8.890837453261964
6.059800664451828,8.883142318846556
6.0797342192691035,8.871761164783084
6.099667774086379,8.856725652356394
6.119601328903655,8.83807738821177
6.139534883720931,8.815867948509279
6.159468438538206,8.790158906951572
6.179401993355482,8.761021866038078
6.1993355481727574,8.728538490725581
6.219269102990033,8.692800543474071
6.23920265780731,8.653909919424343
6.259136212624584,8.61197868018353
6.279069767441861,8.567129084382586
6.299003322259137,8.519493612809404
6.318936877076412,8.469214985509144
6.338870431893688,8.41644616777381
6.3588039867109645,8.36135036141345
6.378737541528239,8.304100977108622
6.398671096345516,8.244881582987963
6.418604651162791,8.183885823857494
6.438538205980066,8.12131730473578
6.458471760797343,8.057389431530726
6.4784053156146175,7.992325200846028
6.498338870431894,7.926356930050651
6.51827242524917,7.859725917913996
6.538205980066445,7.792682025344444
6.558139534883721,7.725483165120522
6.578073089700998,7.658394689036415
6.598006644518272,7.591688660671562
6.617940199335549,7.525643002124935
6.6378737541528245,7.460540503623631
6.6578073089701,7.396667686023518
6.677740863787376,7.334313507968935
6.6976744186046515,7.2737679119600465
6.717607973421927,7.215320206866877
6.737541528239203,7.159257288569808
6.7574750830564785,7.105861705398384
6.777408637873754,7.055409580822706
6.797342192691031,7.008168412293172
6.8172757475083055,6.964394772012451
6.837209302325582,6.9243319424605145
6.857142857142858,6.8882075263018
6.877076411960133,6.856231076440827
6.897009966777409,6.828591796978491
6.9169435215946855,6.805456369175206
6.93687707641196,6.78696695781276
6.956810631229236,6.77323945222655
6.9767441860465125,6.764361992556027
6.996677740863787,6.7603938254217155
7.016611295681064,6.761364524472896
7.036544850498339,6.767273600455949
7.056478405315615,6.778090513207571
7.076411960132891,6.793755084990127
7.096345514950166,6.814178301639552
7.116279069767442,6.839243475866964
7.136212624584719,6.868807736442501
7.156146179401993,6.902703798453934
7.17607973421927,6.940741963747303
7.196013289036546,6.982712297192156
7.21594684385382,7.0283869235347725
7.235880398671097,7.07752239109843
7.2558139534883725,7.129862052107334
7.275747508305648,7.1851384145112345
7.295681063122924,7.243075426386969
7.3156146179402,7.303390660816604
7.335548172757475,7.365797376152846
7.355481727574752,7.430006433412691
7.3754152823920265,7.4957280589017055
7.395348837209303,7.56267344586087
7.415282392026579,7.630556193821315
7.435215946843854,7.699093588397225
7.45514950166113,7.768007727447206
7.475083056478406,7.837026501937008
7.495016611295681,7.905884441517334
7.514950166112956,7.9743234358838375
7.5348837209302335,8.0420933435124
7.554817275747508,8.10895249946224
7.574750830564784,8.174668133706215
7.5946843853820605,8.239016710967283
7.614617940199336,8.301784202386333
7.634551495016611,8.362766298581066
7.6544850498338874,8.421768572829471
7.674418604651163,8.478606602263472
7.694352159468439,8.533106054119989
7.714285714285715,8.58510274328826
7.73421926910299,8.634442666630685
7.754152823920266,8.680982018848118
7.774086378737542,8.72458719401506
7.794019933554818,8.765134776327464
7.813953488372093,8.802511523085386
7.83388704318937,8.836614342471517
7.853820598006645,8.867350268281786
7.8737541528239205,8.894636433410787
7.893687707641197,8.918400043587873
7.913621262458472,8.93857835259478
7.9335548172757475,8.955118639966644
7.953488372093024,8.967978191981077
7.9734219269103,8.97712428656906
7.9933554817275745,8.982534182632223
8.013289036544851,8.984195114119562
8.033222591362128,8.982104289097428
8.053156146179402,8.976268893936707
8.073089700996679,8.966706102635396
8.093023255813954,8.95344309118985
8.11295681063123,8.936517056819378
8.132890365448505,8.915975241732802
8.152823920265782,8.891874960997775
8.172757475083056,8.864283633929457
8.192691029900331,8.83327881825083
8.21262458471761,8.79894824608698
8.232558139534884,8.761389860635502
8.252491694352159,8.720711852100331
8.272425249169435,8.677032691180369
8.292358803986712,8.630481158063475
8.312292358803987,8.581196364484446
8.332225913621263,8.529327765958852
8.352159468438538,8.475035160798296
8.372093023255815,8.418488671944115
8.392026578073091,8.359868707024734
8.411960132890366,8.299365891346943
8.43189368770764,8.237180967778322
8.451827242524917,8.173524656673957
8.471760797342194,8.108617468159432
8.491694352159469,8.042689458223158
8.511627906976745,7.97597991922203
8.53156146179402,7.908736994601661
8.551495016611296,7.841217206923692
8.571428571428573,7.7736848877351195
8.591362126245848,7.706411497480745
8.611295681063122,7.639674823629349
8.6312292358804,7.573758045551367
8.651162790697676,7.508948655549065
8.67109634551495,7.445537226901914
8.691029900332227,7.383816021948004
8.710963455149502,7.324077436160346
8.730897009966778,7.266612277954842
8.750830564784053,7.211707888603312
8.77076411960133,7.15964611209024
8.790697674418604,7.110701130945238
8.81063122923588,7.065137190829946
8.830564784053157,7.023206243697104
8.850498338870432,6.985145546327608
8.870431893687707,6.95117525757149
8.890365448504983,6.921496083203483
8.91029900332226,6.896287021466159
8.930232558139535,6.8757032646510625
8.950166112956811,6.859874312071975
8.970099667774086,6.848902347247427
8.990033222591363,6.842860926932397
9.00996677740864,6.841794021918044
9.029900332225914,6.845715439558688
9.049833887043189,6.85460864628585
9.069767441860467,6.868426995587366
9.089700996677742,6.887094353824839
9.109634551495017,6.910506103623545
9.129568106312293,6.93853049313965
9.14950166112957,6.971010289922367
9.169435215946844,7.007764690807688
9.189368770764121,7.048591434570853
9.209302325581396,7.093269061986704
9.22923588039867,7.141559268365563
9.249169435215949,7.193209296256861
9.269102990033224,7.247954320436945
9.289036544850498,7.305519783052273
9.308970099667773,7.365623643391892
9.328903654485051,7.4279785137515475
9.348837209302326,7.492293659827221
9.368770764119601,7.558276850707065
9.388704318936878,7.625636049576683
9.408637873754152,7.694080941551422
9.428571428571429,7.763324299515508
9.448504983388705,7.833083192460772
9.46843853820598,7.9030800436045405
9.488372093023255,7.973043547590933
9.508305647840533,8.042709457429858
9.528239202657808,8.111821252600423
9.548172757475083,8.180130700042072
9.56810631229236,8.2473983196764
9.588039867109636,8.313393765733268
9.60797342192691,8.377896134577064
9.627906976744187,8.440694209011605
9.647840531561462,8.501586648238703
9.667774086378738,8.560382131802964
9.687707641196015,8.616899465008215
9.70764119601329,8.670967652463608
9.727574750830565,8.722425945630318
9.747508305647841,8.771123869503391
9.767441860465118,8.816921232886003
9.787375415282392,8.85968812609789
9.807308970099669,8.899304909407528
9.827242524916944,8.935662194985449
9.84717607973422,8.968660824742887
9.867109634551497,8.998211846040341
9.887043189368772,9.024236486919529
9.906976744186046,9.046666132226392
9.926910299003321,9.065442301745044
9.9468438538206,9.080516631249347
9.966777408637874,9.091850857194142
9.986710963455149,9.099416805607731
10.006644518272426,9.103196385606559
10.026578073089702,9.103181587826846
10.046511627906977,9.099374487953021
10.066445182724253,9.091787255414248
10.086378737541528,9.080442167214091
10.106312292358805,9.065371626750776
10.126245847176081,9.046618187372111
10.146179401993356,9.024234580285722
10.16611295681063,8.998283746307946
10.186046511627907,8.968838870778429
10.205980066445184,8.935983420788391
10.225913621262459,8.899811183662969
10.245847176079735,8.86042630539758
10.26578073089701,8.817943327469472
10.285714285714286,8.772487220123477
10.305647840531563,8.724193409860092
10.325581395348838,8.673207798429408
10.345514950166113,8.619686770152027
10.36544850498339,8.563797183844308
10.385382059800666,8.50571634501711
10.40531561461794,8.445631953345858
10.425249169435217,8.383742019676438
10.445182724252492,8.320254746042439
10.465116279069768,8.255388361336038
10.485049833887045,8.189370904412769
10.50498338870432,8.122439945544308
10.524916943521594,8.05484223629494
10.544850498338871,7.986833277129149
10.564784053156147,7.918676791412865
10.584717607973422,7.850644094014958
10.604651162790697,7.783013342524955
10.624584717607974,7.716068659266689
10.64451827242525,7.650099112902699
10.664451827242525,7.585397549592529
10.684385382059801,7.522259265492408
10.704318936877076,7.460980514955053
10.724252491694353,7.401856852182207
10.74418604651163,7.345181308337092
10.764119601328904,7.291242411238102
10.784053156146179,7.24032206066038
10.803986710963457,7.19269327883299
10.823920265780732,7.148617862714361
10.843853820598007,7.108343971753024
10.863787375415283,7.072103691708114
10.88372093023256,7.040110621266199
10.903654485049834,7.012557533161529
10.923588039867111,6.989614164803078
10.943521594684386,6.97142519459754
10.96345514950166,6.9581084588992255
