Frequency (Hz),Amplitude
0.0,2.693311810379358
0.04,2.693253519964663
0.08,2.6930788754441095
0.12,2.69278855621719
0.16,2.6923836920473803
0.19999999999999998,2.6918658592132543
0.24,2.6912370751293464
0.27999999999999997,2.6904997914462263
0.32,2.6896568856420817
0.36,2.6887116511212032
0.39999999999999997,2.6876677858378493
0.44,2.6865293794674296
0.48,2.6853008991504668
0.52,2.683987173838599
0.5599999999999999,2.6825933772759663
0.6,2.681125009653534
0.64,2.679587877978534
0.6799999999999999,2.6779880752059
0.72,2.6763319581836975
0.76,2.674626124469723
0.7999999999999999,2.67287738808201
0.84,2.671092754251584
0.88,2.669279393251647
0.9199999999999999,2.667444613383335
0.96,2.6655958332041196
1.0,2.6637405530910634
1.04,2.6618863262369645
1.0799999999999998,2.6600407291834003
1.1199999999999999,2.6582113320002825
1.1600000000000001,2.656405668226981
1.2,2.654631204695099
1.24,2.6528953113576463
1.28,2.651205231253469
1.3199999999999998,2.6495680507392767
1.3599999999999999,2.6479906701244786
1.4,2.6464797748460884
1.44,2.6450418073221056
1.48,2.6436829396222237
1.52,2.6424090470938433
1.5599999999999998,2.6412256830798198
1.5999999999999999,2.640138054861486
1.64,2.6391510009566526
1.68,2.6382689698972905
1.72,2.637496000605485
1.76,2.6368357044790516
1.7999999999999998,2.636291249290029
1.8399999999999999,2.6358653449899143
1.88,2.6355602315054245
1.92,2.635377668597516
1.9599999999999997,2.635318927844643
2.0,2.6353847867987983
2.0399999999999996,2.635575525350068
2.08,2.635890924322035
2.12,2.6363302663069494
2.1599999999999997,2.6368923387359158
2.2,2.6375754391658286
2.2399999999999998,2.638377382751383
2.28,2.639295511857558
2.3200000000000003,2.640326707755327
2.36,2.641467404331494
2.4,2.6427136037322843
2.44,2.644060893849933
2.48,2.6455044675520165
2.5199999999999996,2.647039143544755
2.56,2.6486593887540106
2.6,2.65035934210136
2.6399999999999997,2.6521328395472485
2.68,2.653973440269075
2.7199999999999998,2.6558744538389676
2.76,2.6578289682639245
2.8,2.659829878750089
2.84,2.661869917052857
2.88,2.6639416812754586
2.92,2.6660376659804816
2.96,2.6681502924813048
2.9999999999999996,2.6702719391837286
3.04,2.672394971851972
3.08,2.674511773677623
3.1199999999999997,2.676614775035001
3.16,2.6786964828116293
3.1999999999999997,2.68074950920803
3.2399999999999998,2.6827665999067807
3.28,2.684740661516596
3.32,2.686664788203145
3.36,2.6885322874241817
3.4,2.690336704692477
3.44,2.6920718472957277
3.4799999999999995,2.693731806908279
3.52,2.695310981034898
3.5599999999999996,2.696804093232072
3.5999999999999996,2.698206212057297
3.64,2.699512768701585
3.6799999999999997,2.700719573264921
3.7199999999999998,2.701822829638685
3.76,2.7028191489630453
3.7999999999999994,2.703705561631136
3.84,2.704479527815365
3.88,2.7051389464945923
3.9199999999999995,2.7056821629640266
3.96,2.7061079748127637
4.0,2.706415636356687
4.04,2.706604861517303
4.079999999999999,2.7066758251396723
4.12,2.706629162745329
4.16,2.7064659687186623
4.199999999999999,2.7061877929278935
4.24,2.705796635784508
4.28,2.7052949417477534
4.319999999999999,2.704685591283744
4.36,2.7039718912917876
4.4,2.7031575640136882
4.4399999999999995,2.7022467344453434
4.4799999999999995,2.7012439162734396
4.5200000000000005,2.7001539963640755
4.56,2.69898221783421
4.6,2.697734161741279
4.640000000000001,2.6964157274309954
4.68,2.69503311158833
4.72,2.693592786041909
4.76,2.6921014743775227
4.8,2.690566127422241
4.84,2.688993897666532
4.88,2.687392112697932
4.92,2.6857682477261204
4.96,2.684129897285614
5.0,2.6824847462086794
5.039999999999999,2.68084053996758
5.08,2.6792050544914114
5.12,2.6775860655690953
5.159999999999999,2.6759913179558548
5.2,2.674428494306203
5.24,2.6729051840614404
5.279999999999999,2.671428852424488
5.319999999999999,2.670006809558722
5.36,2.668646180150934
5.3999999999999995,2.667353873480993
5.4399999999999995,2.6661365541424886
5.48,2.665000613559361
5.52,2.663952142443188
5.56,2.662996904334445
5.6,2.66214031036856
5.64,2.6613873954038794
5.68,2.660742795643887
5.72,2.660210727879946
5.76,2.659794970473692
5.8,2.659498846189897
5.84,2.6593252069812325
5.879999999999999,2.6592764208159605
5.92,2.6593543606283285
5.96,2.6595603954592173
5.999999999999999,2.6598953838418655
6.04,2.6603596694740026
6.08,2.6609530792039298
6.119999999999999,2.6616749233439445
6.16,2.66252399831025
6.2,2.6634985915742417
6.239999999999999,2.664596488895993
6.279999999999999,2.6658149837970493
6.32,2.667150889216321
6.359999999999999,2.668600551280251
6.3999999999999995,2.670159865106477
6.44,2.6718242925490827
6.4799999999999995,2.673588881783471
6.52,2.675448288619641
6.56,2.677396799424684
6.6,2.6794283555283727
6.64,2.6815365789798817
6.68,2.6837147995191746
6.72,2.6859560826230218
6.76,2.6882532584833885
6.8,2.690598951774647
6.84,2.6929856120659186
6.88,2.6954055447356082
6.92,2.697850942246959
6.959999999999999,2.7003139156459794
7.0,2.702786526146334
7.04,2.705260816669822
7.08,2.7077288432155084
7.119999999999999,2.710182705935602
7.16,2.7126145798015364
7.199999999999999,2.71501674474939
7.239999999999999,2.7173816151996486
7.28,2.719701768852407
7.32,2.7219699746651145
7.359999999999999,2.7241792199261385
7.3999999999999995,2.726322736343396
7.4399999999999995,2.728394025073311
7.4799999999999995,2.730386880621015
7.52,2.7322954135484063
7.5600000000000005,2.734114071931963
7.599999999999999,2.7358376615173645
7.64,2.737461364522835
7.68,2.7389807570477487
7.719999999999999,2.740391825047294
7.76,2.741690978838201
7.800000000000001,2.7428750661042205
7.839999999999999,2.7439413833737563
7.88,2.744887685945286
7.92,2.745712196239521
7.959999999999999,2.746413610560114
8.0,2.746991104247695
8.040000000000001,2.7474443352146367
8.08,2.747773445850769
8.12,2.7479790632926946
8.159999999999998,2.748062298052152
8.2,2.748024741001349
8.24,2.7478684587160007
8.28,2.747595987179543
8.32,2.747210323854953
8.36,2.74671491813367
8.399999999999999,2.7461136601744527
8.44,2.745410868148509
8.48,2.7446112739110182
8.52,2.7437200071232146
8.56,2.7427425778535977
8.6,2.7416848576914568
8.639999999999999,2.7405530594109337
8.68,2.739353715229132
8.72,2.7380936537074434
8.76,2.736779975351227
8.8,2.7354200269691877
8.84,2.734021374860377
8.879999999999999,2.732591776903465
8.92,2.731139153629904
8.959999999999999,2.7296715583697218
9.0,2.72819714656584
9.040000000000001,2.726724144360078
9.079999999999998,2.725260816561113
9.12,2.7238154341117164
9.16,2.7223962411793536
9.2,2.7210114220007435
9.24,2.7196690676169255
9.280000000000001,2.7183771426409984
9.32,2.717143452205499
9.36,2.7159756092405205
9.399999999999999,2.7148810022370196
9.44,2.7138667636520433
9.48,2.7129397391139634
9.52,2.712106457585996
9.559999999999999,2.711373102645287
9.6,2.7107454850326214
9.639999999999999,2.7102290166242637
9.68,2.7098286859726604
9.72,2.709549035556442
9.76,2.709394140872851
9.8,2.709367591496799
9.84,2.7094724742209046
9.879999999999999,2.7097113583796175
9.92,2.710086283448412
9.959999999999999,2.7105987489958268
10.0,2.7112497070521977
10.04,2.712039556944238
10.079999999999998,2.7129681426295025
10.12,2.7140347525491864
10.16,2.7152381220020594
10.2,2.716576438026567
10.24,2.7180473467626096
10.280000000000001,2.71964796324927
10.319999999999999,2.7213748836000975
10.36,2.7232241994834
10.4,2.7251915148218786
10.44,2.7272719646134744
10.48,2.729460235764101
10.52,2.731750589812722
10.559999999999999,2.7341368874203034
10.6,2.736612614486408
10.639999999999999,2.739170909750868
10.68,2.7418045937327027
10.72,2.7445061988547717
10.76,2.7472680005999086
10.799999999999999,2.75008204954303
10.84,2.7529402041034317
10.879999999999999,2.7558341638624526
10.92,2.7587555032934583
10.96,2.7616957057540192
11.0,2.764646197593718
11.04,2.7675983822353785
11.08,2.7705436740925133
11.12,2.773473532191201
11.16,2.7763794933705603
11.2,2.7792532049421763
11.24,2.7820864566952337
11.28,2.7848712121407315
11.319999999999999,2.7875996388947493
11.36,2.7902641381073043
11.4,2.79285737284992
11.44,2.7953722953813434
11.48,2.79780217321705
11.52,2.800140613934147
11.559999999999999,2.8023815886489536
11.6,2.8045194541099616
11.64,2.8065489733539835
11.68,2.8084653348781106
11.72,2.8102641702845608
11.759999999999998,2.811941570359762
11.799999999999999,2.8134940995528317
11.84,2.8149188088223136
11.879999999999999,2.816213246823363
11.92,2.8173754694107624
11.96,2.8184040474360748
11.999999999999998,2.819298072820044
12.04,2.820057162884052
12.08,2.8206814629269723
12.12,2.821171647036343
12.16,2.82152891712529
12.200000000000001,2.821755000189194
12.239999999999998,2.8218521437787563
12.28,2.8218231096888955
12.32,2.8216711658658062
12.36,2.821400076537692
12.4,2.8210140905780445
12.44,2.8205179281140156
12.479999999999999,2.8199167653963992
12.52,2.819216217952081
12.559999999999999,2.818422322044493
12.6,2.8175415144726914
12.64,2.8165806107451967
12.68,2.815546781670609
12.719999999999999,2.8144475284133352
12.76,2.813290656069524
12.799999999999999,2.8120842458253814
12.84,2.8108366257675717
12.88,2.8095563404231885
12.92,2.808252119114929
12.959999999999999,2.8069328432254137
12.999999999999998,2.805607512473137
13.04,2.8042852103110634
13.08,2.802975068567565
13.12,2.8016862314578184
13.16,2.800427819102121
13.2,2.7992088906955246
13.239999999999998,2.798038407480763
13.28,2.7969251956833725
13.32,2.795877909574232
13.36,2.79490499483014
13.4,2.7940146523676237
13.44,2.7932148028284995
13.479999999999999,2.7925130518980565
13.52,2.791916656637535
13.559999999999999,2.79143249301223
13.6,2.791067024794517
13.64,2.790826274017738
13.68,2.79071579315173
13.719999999999999,2.7907406391642815
13.76,2.7909053496245013
13.799999999999999,2.791213920994399
13.84,2.7916697892437154
13.88,2.7922758129103706
13.919999999999998,2.7930342587150063
13.959999999999999,2.7939467898229466
14.0,2.7950144568307795
14.04,2.7962376915378333
14.08,2.797616303545147
14.120000000000001,2.7991494797065233
14.16,2.800835786437882
14.2,2.8026731748728344
14.239999999999998,2.804658988834168
14.28,2.8067899755732695
14.32,2.80906229921217
14.36,2.8114715568066586
14.399999999999999,2.814012796933314
14.44,2.8166805406890805
14.479999999999999,2.819468804978796
14.52,2.8223711279544017
14.56,2.825380596459201
14.6,2.828489875321712
14.64,2.8316912383363357
14.68,2.834976600762344
14.719999999999999,2.8383375531683734
14.76,2.8417653964469585
14.799999999999999,2.8452511778221963
14.84,2.84878572767382
14.879999999999999,2.8523596970020932
14.919999999999998,2.8559635953605857
14.959999999999999,2.8595878290872605
15.0,2.8632227396689145
15.04,2.866858642079136
15.079999999999998,2.870485862936067
15.120000000000001,2.874094778332633
15.159999999999998,2.8776758511989753
15.199999999999998,2.8812196680640496
15.24,2.8847169750908668
15.28,2.8881587132674627
15.319999999999999,2.8915360526432865
15.36,2.8948404255082445
15.399999999999999,2.898063558419053
15.439999999999998,2.901197502984659
15.48,2.904234665329524
15.52,2.907167834160031
15.559999999999999,2.9099902073656296
15.600000000000001,2.9126954170921495
15.639999999999999,2.915277553230255
15.679999999999998,2.917731185267077
15.72,2.9200513824538037
15.76,2.922233732246339
15.799999999999999,2.924274356980103
15.84,2.9261699287436396
15.879999999999999,2.9279176824191517
15.919999999999998,2.929515426860913
15.96,2.930961554185525
16.0,2.9322550471504187
16.04,2.933395484599569
16.080000000000002,2.934383044957664
16.12,2.9352185077563133
16.16,2.9359032531780973
16.200000000000003,2.9364392596067295
16.24,2.9368290991739014
16.279999999999998,2.937075931296097
16.319999999999997,2.9371834941974306
16.36,2.937156094417691
16.4,2.936998594308128
16.439999999999998,2.936716397521361
16.48,2.9363154325058898
16.52,2.935802134020453
16.56,2.9351834226884606
16.6,2.9344666826185617
16.64,2.933659737123447
16.68,2.932770822575917
16.72,2.9318085604485034
16.759999999999998,2.930781927590869
16.799999999999997,2.929700224807758
16.84,2.92857304380926
16.88,2.927410232614642
16.919999999999998,2.9262218595011085
16.96,2.925018175599084
17.0,2.9238095762464145
17.04,2.9226065612247107
17.080000000000002,2.921419694012137
17.12,2.9202595601978802
17.16,2.9191367252144946
17.2,2.9180616915547763
17.24,2.917044855650044
17.279999999999998,2.9160964645961442
17.32,2.915226572922273
17.36,2.9144449996054322
17.4,2.9137612855400103
17.44,2.9131846516773043
17.48,2.9127239580536854
17.52,2.9123876639283495
17.56,2.912183789252155
17.6,2.9121198776876573
17.64,2.9122029613972344
17.68,2.9124395278107857
17.72,2.9128354885772394
17.759999999999998,2.9133961508945823
17.799999999999997,2.914126191401815
17.84,2.9150296328027085
17.88,2.916109823376131
17.919999999999998,2.9173694195106625
17.96,2.9188103713827513
18.0,2.920433911877795
18.04,2.922240548832549
18.080000000000002,2.9242300606554044
18.12,2.9264014953585553
18.159999999999997,2.9287531730133334
18.2,2.9312826916170147
18.24,2.9339869363368103
18.279999999999998,2.936862092074559
18.32,2.939903659274239
18.36,2.943106472874084
18.4,2.946464724285853
18.44,2.949971986266181
18.48,2.953621240528789
18.52,2.9574049079320015
18.560000000000002,2.961314881063527
18.6,2.9653425590338824
18.64,2.969478884281251
18.679999999999996,2.973714381183932
18.72,2.9780391962718076
18.759999999999998,2.982443139825532
18.799999999999997,2.9869157286510113
18.84,2.9914462298175684
18.88,2.9960237051502747
18.919999999999998,3.0006370562707807
18.96,3.0052750699857866
19.0,3.009926463828395
19.04,3.014579931564632
19.080000000000002,3.019224188485122
19.119999999999997,3.023848016310381
19.159999999999997,3.028440307546934
19.2,3.032990109140717
19.24,3.03748666528345
19.279999999999998,3.041919459237038
19.32,3.046278254050295
19.36,3.0505531320513057
19.4,3.0547345330075344
19.44,3.058813290854172
19.48,3.06278066889914
19.52,3.066628393420676
19.560000000000002,3.070348685580381
19.6,3.0739342915810517
19.639999999999997,3.0773785110043943
19.68,3.0806752232691466
19.72,3.0838189121547748
19.759999999999998,3.0868046883402322
19.8,3.0896283099109048
19.84,3.0922862007901846
19.88,3.0947754670549292
19.919999999999998,3.0970939110964655
19.96,3.0992400435909877
20.0,3.1012130932450233
20.04,3.1030130142832757
20.08,3.1046404916477264
20.119999999999997,3.10609694387829
20.159999999999997,3.107384523646822
20.2,3.1085061159177867
20.24,3.1094653337106988
20.279999999999998,3.1102665114413135
20.32,3.110914695820939
20.36,3.111415634295874
20.4,3.1117757610122037
20.44,3.112002180294941
20.48,3.1121026476348708
20.52,3.1120855481816037
20.560000000000002,3.111959872747218
20.599999999999998,3.1117351913315945
20.639999999999997,3.111421624188183
20.68,3.1110298104574876
20.72,3.110570874405064
20.759999999999998,3.110056389311346
20.8,3.1094983390720494
20.84,3.108909077580357
20.88,3.1083012859754597
20.92,3.107687927856198
20.96,3.1070822025736264
21.0,3.1064974967319166
21.04,3.105947334043363
21.08,3.105445323699755
21.119999999999997,3.105005107439336
21.159999999999997,3.10464030550534
21.2,3.1043644617088093
21.24,3.1041909878244818
21.279999999999998,3.1041331075640572
21.32,3.1042038003855748
21.36,3.10441574541077
21.4,3.1047812657338527
21.44,3.1053122734148904
21.48,3.1060202154585013
21.52,3.1069160210837703
21.56,3.1080100505938417
21.599999999999998,3.1093120461532795
21.639999999999997,3.110831084778087
21.68,3.112575533836792
21.72,3.1145530093514004
21.759999999999998,3.116770337374231
21.8,3.119233518700682
21.84,3.1219476971589066
21.88,3.1249171316955158
21.92,3.1281451724517866
21.96,3.1316342409979154
22.0,3.135385814863786
22.04,3.1394004164740212
22.08,3.14367760656304
22.119999999999997,3.1482159821130224
22.16,3.1530131788244264
22.2,3.158065878095495
22.24,3.1633698184546115
22.28,3.1689198113575565
22.32,3.174709761231559
22.36,3.180732689619358
22.4,3.186980763250158
22.44,3.1934453258402704
22.48,3.200116933404906
22.519999999999996,3.2069853928439573
22.56,3.214039803549092
22.599999999999998,3.2212686017667904
22.639999999999997,3.2286596074425713
22.68,3.2362000732649188
22.72,3.2438767356239326
22.759999999999998,3.2516758671987565
22.8,3.259583330889552
22.84,3.267584634813936
22.88,3.2756649880939857
22.92,3.2838093571680864
22.96,3.2920025223717375
23.0,3.300229134542526
23.04,3.3084737714168604
23.08,3.316720993599058
23.119999999999997,3.324955399897284
23.16,3.333161681834774
23.2,3.34132467715912
23.24,3.349429422186554
23.28,3.357461202832142
23.32,3.3654056041903373
23.36,3.373248558543458
23.400000000000002,3.380976391687982
23.44,3.3885758674803865
23.479999999999997,3.396034230515032
23.519999999999996,3.4033392468567882
23.56,3.4104792427602098
23.599999999999998,3.417443141315493
23.639999999999997,3.4242204969688035
23.68,3.4308015278712163
23.72,3.437177146016199
23.759999999999998,3.4433389851305716
23.8,3.449279426287948
23.84,3.4549916212172733
23.88,3.460469513281777
23.92,3.4657078561059915
23.96,3.470702229830129
23.999999999999996,3.475449054972487
24.04,3.479945603881355
24.08,3.484190009758654
24.119999999999997,3.48818127323776
24.16,3.4919192664984307
24.2,3.4954047349018103
24.24,3.498639296128835
24.28,3.501625436805629
24.32,3.504366506600128
24.36,3.506866709774854
24.400000000000002,3.509131094182065
24.439999999999998,3.5111655376890356
24.479999999999997,3.512976732023383
24.52,3.5145721640310468
24.56,3.5159600943429816
24.599999999999998,3.5171495334506555
24.64,3.518150215195517
24.68,3.51897256768323
24.72,3.5196276816404
24.759999999999998,3.5201272762390037
24.8,3.520483662422611
24.84,3.5207097037780497
24.88,3.520818775007029
24.92,3.5208247180639125
24.959999999999997,3.520741796038685
24.999999999999996,3.5205846448777858
25.04,3.520368223050211
25.08,3.5201077592815673
25.119999999999997,3.519818698495007
25.16,3.51951664611451
25.2,3.5192173109031537
25.24,3.518936446526159
25.28,3.5186897920459206
25.32,3.5184930115731174
25.36,3.518361633314733
25.4,3.5183109882754695
25.439999999999998,3.518356148884011
25.479999999999997,3.5185118678289284
25.52,3.518792517401002
25.56,3.519212029648641
25.599999999999998,3.5197838376609765
25.64,3.5205208182984484
25.68,3.5214352366935198
25.72,3.5225386928438387
25.76,3.5238420706169618
25.8,3.5253554894792223
25.84,3.527088259251669
25.880000000000003,3.5290488381828338
25.919999999999998,3.531244794611875
25.959999999999997,3.533682772476069
25.999999999999996,3.5363684608941544
26.04,3.5393065680316065
26.08,3.5425007994261173
26.119999999999997,3.5459538409213263
26.16,3.5496673463249517
26.2,3.5536419298739452
26.24,3.5578771635548243
26.28,3.562371579292347
26.32,3.5671226759844745
26.36,3.5721269313268404
26.4,3.577379818335958
26.439999999999998,3.5828758264477325
26.479999999999997,3.5886084870368067
26.52,3.5945704031732557
26.56,3.6007532834065863
26.599999999999998,3.6071479793428995
26.64,3.6137445267600197
26.68,3.620532189987226
26.72,3.6274995092611215
26.76,3.6346343507574006
26.8,3.641923958989463
26.84,3.6493550112591375
26.88,3.6569136738421038
26.919999999999998,3.664585659590649
26.959999999999997,3.672356286639081
27.0,3.680210537902219
27.04,3.688133121064614
27.08,3.696108528767211
27.119999999999997,3.704121098708949
27.16,3.7121550733928537
27.2,3.7201946592593087
27.24,3.7282240849632124
27.28,3.7362276585662415
27.32,3.7441898234303412
27.36,3.752095212613601
27.4,3.7599287015846157
27.439999999999998,3.7676754590861443
27.479999999999997,3.7753209959932588
27.52,3.7828512120249806
27.56,3.7902524401817295
27.599999999999998,3.7975114887933423
27.64,3.804615681074453
27.68,3.8115528920949187
27.72,3.8183115830834367
27.76,3.824880832991906
27.8,3.831250367256948
27.839999999999996,3.8374105837029786
27.88,3.8433525755386264
27.919999999999998,3.8490681514049907
27.959999999999997,3.8545498524404413
28.0,3.8597909663322563
28.04,3.864785538330757
28.08,3.869528379206368
28.12,3.8740150701348024
28.16,3.8782419644999826
28.2,3.882206186608726
28.240000000000002,3.8859056273156165
28.28,3.889338936560934
28.32,3.8925055128292176
28.359999999999996,3.8954054895408587
