Frequency (Hz),Amplitude
0.0,0.9505728108161682
0.020066889632107024,0.9561461699991155
0.04013377926421405,0.9726530605068273
0.060200668896321065,0.9994889861383593
0.0802675585284281,1.0357504732726277
0.10033444816053512,1.0803539445967087
0.12040133779264213,1.1321492415265713
0.14046822742474915,1.1900074718648268
0.1605351170568562,1.252877141402636
0.1806020066889632,1.3198124081875653
0.20066889632107024,1.3899812955602036
0.22073578595317725,1.4626616418616065
0.24080267558528426,1.5372307567987555
0.2608695652173913,1.6131527025197292
0.2809364548494983,1.6899654664449932
0.3010033444816054,1.767269169536729
0.3210702341137124,1.8447157704662493
0.34113712374581934,1.922000348753685
0.3612040133779264,1.9988538633553223
0.3812709030100334,2.0750372064378677
0.4013377926421405,2.1503363540231066
0.42140468227424743,2.2245584256801862
0.4414715719063545,2.297528487762802
0.4615384615384615,2.3690869601083313
0.4816053511705685,2.439087510437951
0.5016722408026756,2.5073953421801267
0.5217391304347826,2.5738857996033904
0.5418060200668896,2.6384432291091504
0.5618729096989966,2.700960047670845
0.5819397993311036,2.761335979152964
0.6020066889632107,2.8194774270287613
0.6220735785953176,2.875296958215574
0.6421404682274248,2.9287128776798688
0.6622073578595318,2.9796488773908796
0.6822742474916387,3.028033746331344
0.7023411371237458,3.07380113077382
0.7224080267558528,3.1168893360334966
0.7424749163879598,3.1572411625167582
0.7625418060200668,3.194803770181937
0.7826086956521738,3.229528566578375
0.802675585284281,3.261371114482984
0.8227424749163879,3.290291055850218
0.8428093645484949,3.3162520493629613
0.862876254180602,3.3392217193436577
0.882943143812709,3.359171614176933
0.903010033444816,3.3760771727227152
0.923076923076923,3.3899176974759415
0.9431438127090299,3.400676333464806
0.963210702341137,3.408340052083652
0.983277591973244,3.4128996392354574
1.0033444816053512,3.4143496873184818
1.0234113712374582,3.4126885907374738
1.0434782608695652,3.407918544755787
1.0635451505016722,3.4000455476354574
1.0836120401337792,3.3890794061413194
1.1036789297658862,3.3750337446163443
1.1237458193979932,3.357926017972549
1.1438127090301002,3.337777529089232
1.1638795986622072,3.3146134512722285
1.1839464882943145,3.2884628566097964
1.2040133779264215,3.2593587512685196
1.2240802675585283,3.2273381190134667
1.2441471571906353,3.1924419745195856
1.2642140468227423,3.15471542837625
1.2842809364548495,3.114207766087529
1.3043478260869565,3.0709725438528106
1.3244147157190636,3.0250677044969274
1.3444816053511706,2.976555717630392
1.3645484949832773,2.925503748992079
1.3846153846153846,2.87198386499767
1.4046822742474916,2.8160732798404458
1.4247491638795986,2.7578546541298303
1.4448160535117056,2.697416456091528
1.4648829431438126,2.6348533988941445
1.4849498327759196,2.570266970844327
1.5050167224080266,2.5037660791705836
1.5250836120401337,2.4354678331034667
1.5451505016722407,2.3654984982114193
1.5652173913043477,2.293994661776547
1.5852842809364547,2.2211046587524548
1.605351170568562,2.1469903199344493
1.625418060200669,2.0718291187811833
1.6454849498327757,1.9958168111427794
1.6655518394648827,1.919170682958499
1.6856187290969897,1.8421335440863766
1.705685618729097,1.7649786297311576
1.725752508361204,1.6880155897204467
1.745819397993311,1.6115977506394215
1.765886287625418,1.536130808793559
1.7859531772575248,1.4620830217386103
1.806020066889632,1.3899967604712227
1.826086956521739,1.3205008827284246
1.846153846153846,1.2543226795314308
1.866220735785953,1.192297011194302
1.8862876254180598,1.1353686273553165
1.9063545150501673,1.0845817345769106
1.926421404682274,1.041049336596387
1.9464882943143813,1.0058952396898124
1.966555183946488,0.9801660421136628
1.9866220735785953,0.9647203434455686
2.0066889632107023,0.960115868570587
2.026755852842809,0.9665251120615173
2.0468227424749164,0.9837074342039277
2.0668896321070234,1.0110476931767558
2.0869565217391304,1.0476475654792687
2.1070234113712374,1.0924400547406263
2.1270903010033444,1.1442975710091405
2.1471571906354514,1.2021151250898372
2.1672240802675584,1.2648634102147365
2.1872909698996654,1.3316155563649579
2.2073578595317724,1.4015549482545435
2.2274247491638794,1.4739714078471227
2.2474916387959865,1.5482513571973866
2.267558528428094,1.6238656671507503
2.2876254180602005,1.7003573533116705
2.3076923076923075,1.777330222863258
2.3277591973244145,1.8544389270056378
2.3478260869565215,1.9313805116092546
2.367892976588629,2.007887376957527
2.3879598662207355,2.0837214806958717
2.408026755852843,2.158669598093915
2.4280936454849495,2.2325394617893597
2.4481605351170566,2.3051566232267446
2.468227424749164,2.3763619015222197
2.4882943143812706,2.4460093083091237
2.508361204013378,2.51396435746104
2.5284280936454846,2.5801026859005294
2.548494983277592,2.644308926038441
2.568561872909699,2.7064757820649548
2.5886287625418056,2.7665032717260067
2.608695652173913,2.8242981027606118
2.6287625418060196,2.8797731591979403
2.648829431438127,2.9328470775175157
2.668896321070234,2.9834438965092596
2.688963210702341,3.031492767731363
2.709030100334448,3.0769277159145134
2.7290969899665547,3.1196874406266386
2.749163879598662,3.1597151520946625
2.769230769230769,3.1969584353572205
2.789297658862876,3.231369137957903
2.809364548494983,3.262903277231535
2.82943143812709,3.291520963925314
2.849498327759197,3.3171863394629284
2.869565217391304,3.3398675246281897
2.8896321070234112,3.359536577834014
2.9096989966555182,3.3761694614693147
2.9297658862876252,3.3897460150923617
2.9498327759197323,3.4002499344754282
2.9698996655518393,3.4076687557099037
2.9899665551839463,3.4119938437608845
3.0100334448160533,3.4132203850215914
3.0301003344481603,3.4113473835650447
3.0501672240802673,3.4063776609291567
3.0702341137123748,3.398317859404637
3.0903010033444813,3.3871784489271053
3.1103678929765888,3.3729737378102387
3.1304347826086953,3.3557218876978547
3.1505016722408024,3.335444933265778
3.1705685618729094,3.3121688073721582
3.1906354515050164,3.2859233725439245
3.210702341137124,3.256742459903004
3.2307692307692304,3.224663916886393
3.250836120401338,3.189729665407885
3.270903010033445,3.1519857724571674
3.2909698996655514,3.111482535547486
3.311036789297659,3.068274585922261
3.3311036789297654,3.022421013035305
3.351170568561873,2.97398551455314
3.3712374581939795,2.9230365770245745
3.391304347826087,2.8696476934618955
3.411371237458194,2.813897625430926
3.4314381270903005,2.755870718917291
3.451505016722408,2.6956572853048506
3.471571906354515,2.6333540613686925
3.491638795986622,2.569064765376897
3.511705685618729,2.5029007703673067
3.531772575250836,2.43498192060883
3.551839464882943,2.365437523401687
3.5719063545150496,2.294407555983245
3.591973244147157,2.2220441366829493
3.612040133779264,2.1485133209076204
3.632107023411371,2.073997296274368
3.652173913043478,1.9986970672971827
3.672240802675585,1.9228357381093273
3.692307692307692,1.8466625205581113
3.712374581939799,1.770457611827874
3.732441471571906,1.694538094835755
3.752508361204013,1.6192650053132942
3.7725752508361197,1.5450516627979627
3.7926421404682276,1.4723732468964421
3.8127090301003346,1.4017773649011416
3.832775919732441,1.3338949293671214
3.852842809364548,1.2694499535025183
3.872909698996655,1.2092657966925058
3.8929765886287626,1.154263958522585
3.9130434782608696,1.1054499798724313
3.933110367892976,1.0638800913309459
3.953177257525083,1.0306033030832114
3.9732441471571907,1.0065783045085495
3.9933110367892977,0.9925734974492181
4.013377926421405,0.9890693924495358
4.033444816053511,0.9961893697829267
4.053511705685618,1.0136808262502364
4.073578595317726,1.040953170016194
4.093645484949833,1.077159851766766
4.113712374581939,1.1212995787348723
4.133779264214047,1.1723121090625088
4.153846153846153,1.2291530671383721
4.173913043478261,1.2908429717677277
4.193979933110368,1.3564932184023055
4.214046822742475,1.425315016934031
4.234113712374581,1.4966174718216356
4.254180602006689,1.5697997366475693
4.274247491638796,1.6443406181102973
4.294314381270903,1.7197876820027476
4.314381270903009,1.7957469700014719
4.334448160535117,1.8718738337026783
4.354515050167224,1.9478650408057212
4.374581939799331,2.0234521213458985
4.394648829431437,2.0983958345541542
4.414715719063545,2.1724816059968393
4.434782608695651,2.245515783349607
4.454849498327759,2.317322571846111
4.474916387959866,2.38774152845183
4.494983277591973,2.456625512633963
4.5150501672240795,2.5238390090858207
4.535117056856188,2.589256753065624
4.555183946488294,2.652762601942153
4.575250836120401,2.714248607241496
4.595317725752508,2.7736142502275207
4.615384615384615,2.8307658111264526
4.635451505016722,2.8856158478108367
4.655518394648829,2.9380827643448275
4.6755852842809364,2.988090453478199
4.695652173913043,3.035568000137674
4.71571906354515,3.0804494353482843
4.735785953177258,3.1226735319388976
4.7558528428093645,3.1621836349404884
4.775919732441471,3.198927520845401
4.795986622073578,3.232857280921589
4.816053511705686,3.263929224613308
4.8361204013377925,3.292103799747222
4.856187290969899,3.3173455268295893
4.8762541806020065,3.3396229451902655
4.896321070234113,3.3589085691214025
4.916387959866221,3.375178852488799
4.936454849498328,3.388414160573689
4.956521739130435,3.398598748143052
4.976588628762541,3.4057207429553493
4.996655518394649,3.409772134092898
5.016722408026756,3.4107487646781736
5.036789297658863,3.4086503286836893
5.056856187290969,3.4034803716890183
5.076923076923077,3.3952462955775817
5.096989966555184,3.3839593673044184
5.117056856187291,3.3696347320080084
5.137123745819398,3.35229143088857
5.157190635451505,3.3319524244361456
5.177257525083611,3.3086446217696492
5.197324414715719,3.282398917047559
5.217391304347826,3.253250234139163
5.237458193979933,3.221237581009435
5.257525083612039,3.186404115579777
5.277591973244148,3.148797225192335
5.297658862876254,3.108468622240306
5.317725752508361,3.0654744590479206
5.337792642140468,3.019875465711071
5.357859531772575,2.971737115369292
5.377926421404682,2.9211298223024773
5.397993311036789,2.8681291793707477
5.418060200668896,2.812816242692271
5.438127090301003,2.7552778731403857
5.458193979933109,2.695607146314082
5.478260869565218,2.6339038451843195
5.498327759197324,2.570275052755067
5.518394648829431,2.5048358659345276
5.538461538461538,2.4377102565451616
5.558528428093646,2.369032111187223
5.578595317725752,2.2989464886966933
5.598662207357859,2.2276111423810288
5.618729096989966,2.155198364194501
5.638795986622073,2.081897219504821
5.65886287625418,2.007916253778892
5.678929765886288,1.9334867654779353
5.698996655518394,1.8588667507521555
5.719063545150501,1.784345631397709
5.739130434782608,1.7102498711657301
5.759197324414716,1.6369495551624509
5.7792642140468224,1.5648659335013
5.799331103678929,1.4944797836375838
5.8193979933110365,1.4263401827027637
5.839464882943144,1.3610728460648729
5.8595317725752505,1.299386524714579
5.879598662207358,1.2420750386773736
5.8996655518394645,1.1900114402211788
5.919732441471571,1.1441298600874386
5.9397993311036785,1.105390457585975
5.959866220735786,1.0747245791003428
5.9799331103678925,1.0529616657671628
5.999999999999999,1.0407465160893052
6.020066889632107,1.0384629018081992
6.040133779264214,1.0461829082572232
6.060200668896321,1.0636569222429169
6.080267558528428,1.0903474018502344
6.100334448160535,1.1254961177097016
6.120401337792642,1.1682064112396626
6.1404682274247495,1.2175221752912724
6.160535117056856,1.2724914496473387
6.180602006688963,1.332210173631887
6.200668896321069,1.3958473790693349
6.2207357859531776,1.46265594294163
6.240802675585284,1.5319735633945966
6.260869565217391,1.6032179371748416
6.280936454849498,1.6758790389791305
6.301003344481605,1.7495103910792644
6.321070234113712,1.8237204334112396
6.341137123745819,1.8981645727318257
6.361204013377926,1.9725381565440196
6.381270903010033,2.0465704247692336
6.40133779264214,2.1200193902606985
6.421404682274248,2.1926675525136643
6.441471571906354,2.2643183336850092
6.461538461538461,2.3347931275459306
6.481605351170568,2.4039288615078473
6.501672240802676,2.471575984435254
6.521739130434782,2.5375968059473624
6.54180602006689,2.6018641250170127
6.561872909698996,2.6642600963619274
6.581939799331103,2.724675292256626
6.60200668896321,2.7830079250436746
6.622073578595318,2.83916320194841
6.642140468227424,2.8930527889892477
6.662207357859531,2.9445943650090247
6.682274247491639,2.9937112502979373
6.702341137123746,3.0403320970786116
6.722408026755852,3.084390631400309
6.742474916387959,3.125825437840921
6.762541806020066,3.164579779925235
6.782608695652174,3.200601450400631
6.80267558528428,3.233842646522147
6.822742474916388,3.264259866329062
6.842809364548494,3.291813822580758
6.862876254180601,3.3164693715880182
6.882943143812709,3.3381954546499255
6.903010033444816,3.3569650502036703
6.9230769230769225,3.372755135131241
6.94314381270903,3.385546653952921
6.963210702341137,3.3953244948854584
6.983277591973244,3.40207747195809
7.0033444816053505,3.405798312571879
7.023411371237458,3.4064836500611295
7.0434782608695645,3.404134020975804
7.063545150501672,3.3987538669560364
7.083612040133779,3.390351541217187
7.103678929765886,3.378939319811596
7.123745819397993,3.3645334179844917
7.143812709030099,3.347154012101401
7.1638795986622075,3.32682526779649
7.183946488294314,3.3035753751812895
7.204013377926421,3.2774365921664734
7.224080267558528,3.248445297192057
7.2441471571906355,3.2166420529418316
7.264214046822742,3.1820716829445135
7.2842809364548495,3.1447833633481115
7.304347826086956,3.1048307326088813
7.324414715719063,3.0622720223776465
7.34448160535117,3.0171702135138045
7.364548494983278,2.969593221935235
7.384615384615384,2.919614119949142
7.404682274247491,2.867311399840547
7.424749163879598,2.812769287864123
7.444816053511706,2.7560781184435474
7.464882943143812,2.6973347803920245
7.48494983277592,2.6366432494006165
7.505016722408026,2.5741152239814404
7.525083612040134,2.509870885592746
7.545150501672239,2.444039807909776
7.565217391304348,2.3767620452290226
7.585284280936455,2.308189435867827
7.605351170568561,2.2384871631428704
7.625418060200669,2.1678356239479513
7.645484949832775,2.096432662725881
7.665551839464882,2.0244962359379377
7.685618729096991,1.952267577448366
7.705685618729096,1.8800149358441571
7.725752508361204,1.8080379459997231
7.74581939799331,1.7366726716857248
7.765886287625418,1.6662973020360716
7.785953177257525,1.597338384904686
7.806020066889631,1.5302773105768663
7.826086956521739,1.465656490185478
7.846153846153847,1.4040842748076463
7.866220735785952,1.3462371198808654
7.88628762541806,1.2928568504285785
7.906354515050166,1.2447402631690956
7.926421404682274,1.202718014444908
7.946488294314381,1.1676202788685652
7.966555183946488,1.1402285865527741
7.986622073578595,1.1212168336150186
8.006688963210701,1.1110891402425647
8.02675585284281,1.1101262233906923
8.046822742474916,1.1183527775675188
8.066889632107022,1.1355344324974048
8.08695652173913,1.1612051287089404
8.107023411371236,1.194717630110672
8.127090301003344,1.2353050561509091
8.147157190635452,1.282141277100694
8.167224080267557,1.334391586795508
8.187290969899665,1.391249791942786
8.207357859531772,1.4519617408845311
8.227424749163879,1.5158375602469722
8.247491638795987,1.5822556325819292
8.267558528428093,1.6506611771715065
8.2876254180602,1.7205617107687472
8.307692307692307,1.7915210056472615
8.327759197324415,1.8631525941593878
8.347826086956522,1.9351134423976013
8.367892976588628,2.0070981230855147
8.387959866220736,2.0788336311622846
8.408026755852843,2.1500748741748
8.42809364548495,2.2206008082341513
8.448160535117056,2.29021116032712
8.468227424749163,2.3587236665204845
8.488294314381271,2.4259717548552158
8.508361204013378,2.491802606418439
8.528428093645484,2.5560755351805575
8.548494983277592,2.6186606349753507
8.568561872909697,2.6794376495643424
8.588628762541806,2.7382950286216636
8.608695652173914,2.7951291385324266
8.628762541806019,2.849843602095008
8.648829431438127,2.9023487456107566
8.668896321070234,2.9525611355206607
8.68896321070234,3.0004031898044152
8.709030100334449,3.0458028518879803
8.729096989966555,3.0886933168963004
8.749163879598662,3.12901280181359
8.769230769230768,3.1667043525383893
8.789297658862875,3.201715681998458
8.809364548494983,3.233999034465696
8.82943143812709,3.263511072020849
8.849498327759196,3.2902127797923075
8.869565217391303,3.3140693871570623
8.889632107023411,3.3350503025660707
8.909698996655518,3.353129060056795
8.929765886287624,3.368283275857252
8.949832775919733,3.3804946137788976
8.96989966555184,3.3897487583507
8.989966555183946,3.3960353948707014
9.010033444816054,3.3993481957517626
9.030100334448159,3.3996848127209294
9.050167224080267,3.397046874601004
9.070234113712376,3.3914399905649493
9.09030100334448,3.3828737589111335
9.110367892976589,3.371361781565632
9.130434782608695,3.356921684680374
9.150501672240802,3.3395751458672036
9.17056856187291,3.319347928792495
9.190635451505017,3.2962699260599537
9.210702341137123,3.270375211535782
9.23076923076923,3.241702103527438
9.250836120401337,3.2102932405216453
9.270903010033445,3.176195671528201
9.290969899665551,3.1394609634733235
9.311036789297658,3.100145328552434
9.331103678929765,3.058309775001023
9.351170568561873,3.014020285391711
9.37123745819398,2.96734802733523
9.391304347826086,2.9183696023769805
9.411371237458194,2.867167339967534
9.4314381270903,2.8138296446760034
9.451505016722408,2.7584514063472083
9.471571906354516,2.701134484716076
9.49163879598662,2.6419882821277016
9.511705685618729,2.58113042050859
9.531772575250837,2.518687541625061
9.551839464882942,2.4547962529595697
9.57190635451505,2.3896042452057626
9.591973244147155,2.3232716113288943
9.612040133779264,2.255972401136232
9.632107023411372,2.1878964489282984
9.652173913043477,2.1192515143077424
9.672240802675585,2.0502657763545358
9.692307692307692,1.9811907171120169
9.712374581939798,1.9123044185147064
9.732441471571907,1.8439152727708745
9.752508361204013,1.7763660629011397
9.77257525083612,1.710038298143035
9.792642140468226,1.6453565761465312
9.812709030100335,1.5827925766788173
9.832775919732441,1.5228680583262575
9.852842809364548,1.4661559287330075
9.872909698996656,1.4132781127856286
9.89297658862876,1.3648986199333735
9.91304347826087,1.32171004856295
9.933110367892976,1.284411976958341
9.953177257525082,1.2536805323965727
9.97324414715719,1.2301300783554616
9.993311036789297,1.21427030683551
10.013377926421404,1.2064644840247873
10.033444816053512,1.2068961380760317
10.053511705685617,1.2155510383408685
10.073578595317725,1.2322185224240096
10.093645484949834,1.256511872379691
10.113712374581938,1.2879032038937632
10.133779264214047,1.3257658230496736
10.153846153846153,1.369416863680446
10.17391304347826,1.418154744644372
10.193979933110368,1.4712884863646
10.214046822742475,1.5281582069309774
10.234113712374581,1.5881476617839974
10.254180602006688,1.6506904388371717
10.274247491638796,1.715271569476596
10.294314381270903,1.781426120628166
10.31438127090301,1.8487359999639825
10.334448160535118,1.916825862616735
10.354515050167223,1.9853587144044245
10.37458193979933,2.0540315818800834
10.394648829431437,2.1225714598520833
10.414715719063544,2.1907316401335746
10.434782608695652,2.2582884575701705
10.454849498327757,2.3250384490318403
10.474916387959865,2.3907958988815277
10.494983277591974,2.4553907338531733
10.515050167224079,2.5186667267581053
10.535117056856187,2.5804799690049243
10.555183946488295,2.6406975746559285
10.5752508361204,2.6991965824777018
10.595317725752508,2.755863026475702
10.615384615384615,2.8105911493409574
10.635451505016722,2.8632827368783746
10.65551839464883,2.9138465547420473
10.675585284280936,2.9621978716527266
10.695652173913043,3.008258055729836
10.71571906354515,3.051954232669537
10.735785953177256,3.0932189962809953
10.755852842809364,3.131990163397425
10.775919732441471,3.1682105664464317
10.795986622073578,3.2018278780315366
10.816053511705684,3.2327944627751983
10.836120401337793,3.2610672524313524
