Time (s),Filtered Signal
0.0,-0.01703723388586611
0.033370535714285714,-0.5750431620873839
0.06674107142857143,-1.0069232187223305
0.10011160714285713,-1.21638297993322
0.13348214285714285,-1.1595988372692994
0.16685267857142858,-0.8564047235747719
0.20022321428571427,-0.3854002114225074
0.23359375,0.13755289532136453
0.2669642857142857,0.5925715309698713
0.30033482142857143,0.8906328937120174
0.33370535714285715,0.9978186633796139
0.36707589285714287,0.9395523542406736
0.40044642857142854,0.7830895733481976
0.43381696428571426,0.6057639301859882
0.4671875,0.46287747215203723
0.5005580357142857,0.36922257185460017
0.5339285714285714,0.3016716885495076
0.5672991071428571,0.2201710270324019
0.6006696428571429,0.09581319352645634
0.6340401785714286,-0.0683122471094636
0.6674107142857143,-0.23377209371330118
0.70078125,-0.3424161541159819
0.7341517857142857,-0.3433112511737923
0.7675223214285715,-0.21824801676552846
0.8008928571428571,0.00580719176699274
0.8342633928571428,0.26270877231405865
0.8676339285714285,0.4689348055572981
0.9010044642857142,0.5523592717850461
0.934375,0.4770237913405033
0.9677455357142857,0.2550828473225107
1.0011160714285714,-0.057806234956864995
1.0344866071428571,-0.381364973686126
1.0678571428571428,-0.6367295313414622
1.1012276785714286,-0.770484022842115
1.1345982142857143,-0.7688866169258061
1.16796875,-0.6584746827765825
1.2013392857142857,-0.4940791184408036
1.2347098214285714,-0.33910231599632257
1.2680803571428572,-0.24468686350942725
1.3014508928571429,-0.23412664874906886
1.3348214285714286,-0.29705578689940504
1.3681919642857143,-0.39505452254761053
1.4015625,-0.4767697992267994
1.4349330357142858,-0.49727491460740875
1.4683035714285715,-0.4344801434476655
1.5016741071428572,-0.29615119754239483
1.535044642857143,-0.11470116572269715
1.5684151785714286,0.06787143456240216
1.6017857142857141,0.21805880228059255
1.6351562499999999,0.3236349119667464
1.6685267857142856,0.39534506753492094
1.7018973214285713,0.45706480181483994
1.735267857142857,0.5296898072539116
1.7686383928571427,0.6171445689464221
1.8020089285714285,0.7018137890187465
1.8353794642857142,0.751877804489451
1.86875,0.7368830280435562
1.9021205357142856,0.6435733287866087
1.9354910714285714,0.4838346089227912
1.968861607142857,0.29069499157873974
2.002232142857143,0.10451168031589422
2.0356026785714287,-0.043554133917113394
2.0689732142857142,-0.14255043585991173
2.10234375,-0.20219882913255097
2.1357142857142857,-0.2433501110483772
2.169084821428571,-0.2838589437620124
2.202455357142857,-0.3271234476703105
2.2358258928571426,-0.35879986739972547
2.2691964285714286,-0.3531775240342489
2.302566964285714,-0.2863458734016303
2.3359375,-0.1503017790475541
2.3693080357142855,0.03843378743476616
2.4026785714285714,0.24004609281092246
2.436049107142857,0.40282297788687943
2.469419642857143,0.48063169928717475
2.5027901785714284,0.4495576438744938
2.5361607142857143,0.31686736144236477
2.56953125,0.1185045077913932
2.6029017857142858,-0.09392978058716558
2.6362723214285713,-0.27134796816710577
2.669642857142857,-0.3830137771984162
2.7030133928571427,-0.42378830581032656
2.7363839285714286,-0.41063453545723033
2.769754464285714,-0.37122783955179
2.803125,-0.3308071037846951
2.8364955357142856,-0.3032993397896885
2.8698660714285715,-0.2896196763068288
2.903236607142857,-0.2820188260368297
2.936607142857143,-0.2707958118659234
2.9699776785714285,-0.24966714475640764
3.0033482142857144,-0.2178977069960915
3.03671875,-0.17938005344864985
3.070089285714286,-0.13999638055904962
3.1034598214285714,-0.10465268704072234
3.1368303571428573,-0.07494816592907724
3.170200892857143,-0.04812668687465824
3.2035714285714283,-0.017790119884534775
3.2369419642857142,0.023536845900698416
3.2703124999999997,0.0807142386731428
3.3036830357142857,0.15275832806528206
3.337053571428571,0.23186262582915235
3.370424107142857,0.30554068373627846
3.4037946428571426,0.3611031997623281
3.4371651785714286,0.3902925149989505
3.470535714285714,0.39174576440643466
3.50390625,0.3702279383300299
3.5372767857142855,0.33348727041954535
3.5706473214285714,0.28891560747404266
3.604017857142857,0.24210766574091774
3.637388392857143,0.1979686339727666
3.6707589285714284,0.16310085108885689
3.7041294642857143,0.14699127339834145
3.7375,0.15988512047272702
3.7708705357142858,0.20720432318375684
3.8042410714285713,0.2829750468548747
3.837611607142857,0.3663400915048752
3.8709821428571427,0.42451219862051653
3.9043526785714286,0.422450640740023
3.937723214285714,0.3357110330225103
3.97109375,0.16068133986450947
4.004464285714286,-0.08266856842391958
4.0378348214285715,-0.3567148325423775
4.0712053571428575,-0.6176900613034584
4.1045758928571425,-0.8273344237575844
4.1379464285714285,-0.9600965941537717
4.171316964285714,-1.0045325549064523
4.2046875,-0.9609052074479318
4.238058035714285,-0.8382970121026306
4.271428571428571,-0.6532257879500781
4.304799107142857,-0.42914253237054545
4.338169642857142,-0.19452389778316306
4.371540178571428,0.022027325458459313
4.404910714285714,0.19869258021068553
4.43828125,0.32600891827186607
4.471651785714285,0.4076295180598671
4.505022321428571,0.4553379377739236
4.538392857142857,0.48094841970532726
4.571763392857143,0.4898045435546233
4.605133928571428,0.47961964875399554
4.638504464285714,0.4449432656609209
4.671875,0.383888432415446
4.705245535714286,0.3023541329352745
4.738616071428571,0.21274007401582562
4.771986607142857,0.12787569947059857
4.805357142857143,0.054094596725955596
4.838727678571429,-0.011992673359352177
4.872098214285714,-0.08075094323693693
4.90546875,-0.16214238726299435
4.938839285714286,-0.25775477738871716
4.972209821428572,-0.3565495859233122
5.005580357142857,-0.4366122612860826
5.038950892857143,-0.4722364711242222
5.072321428571429,-0.4434196188350363
5.105691964285715,-0.3441399227334217
5.1390625,-0.18645082194949336
5.172433035714286,0.0011994878557564186
5.2058035714285715,0.18137298135889038
5.2391741071428575,0.3188766793111161
5.2725446428571425,0.3921331568736504
5.3059151785714285,0.4001107429071473
5.339285714285714,0.36134706412378315
5.3726562499999995,0.30486845793246026
5.406026785714285,0.2568370315640444
5.439397321428571,0.22922104751243483
5.472767857142857,0.21601274497290315
5.506138392857142,0.19874320487993224
5.539508928571428,0.15831036976729812
5.572879464285714,0.08698824022494077
5.60625,-0.005534871595286022
5.639620535714285,-0.09527801215172486
5.672991071428571,-0.15497978212236319
5.706361607142857,-0.1677843916235879
5.739732142857143,-0.13673830088674171
5.773102678571428,-0.08486610671975885
5.806473214285714,-0.04508609665154399
5.83984375,-0.04453770433612756
5.873214285714286,-0.09114074395083764
5.906584821428571,-0.16936081467282782
5.939955357142857,-0.24748992991123955
5.973325892857143,-0.29279883219991293
6.006696428571429,-0.28691554133001335
6.040066964285714,-0.2337848148195449
6.0734375,-0.15642448209200632
6.106808035714286,-0.08436018788936678
6.140178571428572,-0.03827641344019666
6.173549107142857,-0.01983892288085482
6.206919642857143,-0.012118434603922966
6.240290178571429,0.009319776646732104
6.273660714285715,0.06029190043767428
6.30703125,0.13559149020202244
6.340401785714286,0.20770318482747016
6.3737723214285715,0.23849138287006072
6.407142857142857,0.19867974870110638
6.4405133928571425,0.08522095621396833
6.4738839285714285,-0.072921664072924
6.507254464285714,-0.22444707340226192
6.5406249999999995,-0.31680255462506524
6.573995535714285,-0.31869304021110867
6.607366071428571,-0.23323401103428196
6.640736607142857,-0.09567555000310374
6.674107142857142,0.04279863773960002
6.707477678571428,0.1372414137153855
6.740848214285714,0.16688722592076305
6.77421875,0.1413010363694233
6.807589285714285,0.09287803874050511
6.840959821428571,0.059794649573891634
6.874330357142857,0.06729476885877955
6.907700892857143,0.11564145057212216
6.941071428571428,0.1801971486510088
6.974441964285714,0.223883435708736
7.0078125,0.21655694891793564
7.041183035714286,0.15208920310817692
7.074553571428571,0.054309639972389974
7.107924107142857,-0.03206389307405312
7.141294642857143,-0.06184765170755548
7.174665178571429,-0.011272922763278374
7.208035714285714,0.10983907158826946
7.24140625,0.2619464346259539
7.274776785714286,0.39354662975175714
7.308147321428572,0.46331843752156177
7.341517857142857,0.45522227075238275
7.374888392857143,0.37974253999125723
7.408258928571429,0.2626999911109159
7.441629464285715,0.1298675999675964
7.475,-0.0031001427982579144
7.508370535714286,-0.13068666911518287
7.5417410714285715,-0.25016307096384754
7.575111607142857,-0.3545194923151069
7.6084821428571425,-0.43249001515553687
7.6418526785714285,-0.4765163838937778
7.675223214285714,-0.4926459566937045
7.7085937499999995,-0.503526048348425
7.741964285714285,-0.5391283983299782
7.775334821428571,-0.6177880424868243
7.808705357142857,-0.7277097714594893
7.842075892857142,-0.8212933718135328
7.875446428571428,-0.8293656694674261
7.908816964285714,-0.6919218097101479
7.9421875,-0.3918312032918595
7.975558035714285,0.025925342447567674
8.008928571428571,0.461649509289479
8.042299107142856,0.7947218920698831
8.075669642857143,0.9302630475521025
8.109040178571428,0.8379584669756741
8.142410714285715,0.5652885231488691
8.17578125,0.2190682683530355
8.209151785714285,-0.07631956837789498
8.242522321428572,-0.2255055503671208
8.275892857142857,-0.1939878802390539
8.309263392857142,-0.01365159237478741
8.342633928571429,0.23726939240572803
8.376004464285714,0.4684579487330656
8.409375,0.6105869310437612
8.442745535714286,0.6349518444923713
8.47611607142857,0.5550548684341436
8.509486607142858,0.4133627430134726
8.542857142857143,0.2611582884896658
8.576227678571428,0.13992289644830463
8.609598214285715,0.07005744511875585
8.64296875,0.0489229160957799
8.676339285714285,0.05683225890975733
8.709709821428572,0.06756695436530814
8.743080357142857,0.059309897859591634
8.776450892857143,0.02237130969767646
8.809821428571428,-0.03850998851570868
8.843191964285714,-0.10753698127070666
8.8765625,-0.16519852903342253
8.909933035714285,-0.19664851914438244
8.94330357142857,-0.1980417876852004
8.976674107142857,-0.1786053689822037
9.010044642857142,-0.1576476460046177
9.04341517857143,-0.15730350983829255
9.076785714285714,-0.19333970688931063
9.11015625,-0.26748032930451343
9.143526785714286,-0.36484442361036423
9.176897321428571,-0.4585842882525233
9.210267857142856,-0.5207353407593293
9.243638392857143,-0.5348693131601758
9.277008928571428,-0.5043692090583787
9.310379464285715,-0.4515189283882244
9.34375,-0.40693639711798996
9.377120535714285,-0.39408159906441315
9.410491071428572,-0.41668411693495916
9.443861607142857,-0.45588515105876104
9.477232142857142,-0.4788762093065518
9.510602678571429,-0.4544467696108413
9.543973214285714,-0.36679894015416153
9.57734375,-0.21984723649407267
9.610714285714286,-0.029824646419111384
9.64408482142857,0.18872315782302687
9.677455357142858,0.4339022920170591
9.710825892857143,0.7159032790221656
9.744196428571428,1.0431069587218704
9.777566964285715,1.4017444601786357
9.8109375,1.7416046108642151
9.844308035714285,1.9791262159805814
9.877678571428572,2.0211554454711576
9.911049107142857,1.801499599621405
9.944419642857143,1.3141136226852475
9.977790178571428,0.6262563428289484
10.011160714285714,-0.13669968447964204
10.04453125,-0.8297795940292957
10.077901785714285,-1.3338933200405
10.11127232142857,-1.5889195952253732
10.144642857142857,-1.601902282963053
10.178013392857142,-1.4305574411218351
10.21138392857143,-1.153459467466701
10.244754464285714,-0.8421051577315214
10.278125,-0.5455908366084526
10.311495535714286,-0.2897699714702173
10.344866071428571,-0.08518840720731566
10.378236607142856,0.06433465364849558
10.411607142857143,0.1578141210499431
10.444977678571428,0.19815722211074294
10.478348214285715,0.19468933328543872
10.51171875,0.1632223221210111
10.545089285714285,0.12213803469724507
10.578459821428572,0.08610906614510888
10.611830357142857,0.060875049312539016
10.645200892857142,0.042063047609240053
10.678571428571429,0.018948972711910154
10.711941964285714,-0.018400255534842303
10.745312499999999,-0.07183661149714593
10.778683035714286,-0.13122129398027105
10.81205357142857,-0.1762390816554994
10.845424107142858,-0.18390596998116615
10.878794642857143,-0.13896896059373764
10.912165178571428,-0.042507820202582106
10.945535714285715,0.08573808752670492
10.97890625,0.21317738214176837
11.012276785714285,0.3062374757414515
11.045647321428572,0.3430331351023414
11.079017857142857,0.3209587469459418
11.112388392857143,0.2558059006789491
11.145758928571428,0.17331494888812046
11.179129464285714,0.09783656352177472
11.2125,0.04386844774345716
11.245870535714285,0.014052701658173612
11.27924107142857,0.0031813939138434608
11.312611607142857,0.004444407145712822
11.345982142857142,0.013607634882637278
11.37935267857143,0.02910183365260577
11.412723214285714,0.049226539319508725
11.44609375,0.069462866531129
11.479464285714286,0.08223109189942077
11.512834821428571,0.07925873256126324
11.546205357142856,0.05490556416013625
11.579575892857143,0.00852731319952373
11.612946428571428,-0.054982419844592165
11.646316964285715,-0.12612114951007658
11.6796875,-0.19243311162445378
11.713058035714285,-0.2405769161316886
11.746428571428572,-0.2589460085687413
11.779799107142857,-0.24073262899676748
11.813169642857142,-0.18647727816955711
11.846540178571429,-0.10460278795727156
11.879910714285714,-0.009055517381482234
11.913281249999999,0.08512401629157394
11.946651785714286,0.16588950771291458
11.98002232142857,0.22548611214319705
12.013392857142858,0.2584611942397675
12.046763392857143,0.25864901017606634
12.080133928571428,0.21877936897176867
12.113504464285715,0.13488037102833703
12.146875,0.013843247989257824
12.180245535714285,-0.1210750143413494
12.213616071428572,-0.23255403730659502
12.246986607142857,-0.28141632182376247
12.280357142857143,-0.24473567855887524
12.313727678571428,-0.13092784758246964
12.347098214285714,0.017470959837135043
12.38046875,0.13752707658571198
12.413839285714285,0.1719869587083747
12.44720982142857,0.09633821713951558
12.480580357142857,-0.0665069565661941
12.513950892857142,-0.2524137053912308
12.54732142857143,-0.3818693072522645
12.580691964285714,-0.39430416380161204
12.6140625,-0.2748351345967862
12.647433035714286,-0.06047719578629744
12.680803571428571,0.17718686895990468
12.714174107142856,0.36409840249002895
12.747544642857143,0.4544794074266482
12.780915178571428,0.44535995652874266
12.814285714285713,0.36902541391190263
12.84765625,0.2693677616382781
12.881026785714285,0.17628235085687952
12.914397321428572,0.09245570490402148
12.947767857142857,-0.0007283603460571714
12.981138392857142,-0.12257679795505277
13.014508928571429,-0.27073534666598914
13.047879464285714,-0.41134930015861776
13.081249999999999,-0.4892439215851381
13.114620535714286,-0.4544397448430553
13.14799107142857,-0.2917185164205622
13.181361607142858,-0.03717734290461143
13.214732142857143,0.22863156942569995
13.248102678571428,0.41007334625215563
13.281473214285715,0.4361168762191974
13.31484375,0.292441908127859
13.348214285714285,0.03078683683427421
13.381584821428572,-0.24973759782683846
13.414955357142857,-0.44210611295843716
13.448325892857143,-0.4749135350131901
13.481696428571428,-0.3412450970777788
13.515066964285714,-0.10038140185517685
13.5484375,0.14844281724061645
13.581808035714285,0.3089536929558276
13.61517857142857,0.3289438679289367
13.648549107142857,0.2217778335715008
13.681919642857142,0.05887353817318302
13.71529017857143,-0.0636543801594133
13.748660714285714,-0.06953045360680381
13.78203125,0.0617999147879844
13.815401785714286,0.2840682050432531
13.848772321428571,0.5028774305476471
13.882142857142856,0.6158010561517993
13.915513392857143,0.5560578812885594
13.948883928571428,0.3207730463695885
13.982254464285713,-0.027797516894166565
14.015625,-0.387512916496099
14.048995535714285,-0.6561852068785808
14.082366071428572,-0.7686764909238001
14.115736607142857,-0.7163778911087436
14.149107142857142,-0.5428912300903121
14.182477678571429,-0.3202784333018477
14.215848214285714,-0.11781019250197865
14.249218749999999,0.023190145848162032
14.282589285714286,0.09900831008273044
14.31595982142857,0.13588012277889513
14.349330357142858,0.17064019315758228
14.382700892857143,0.229622311340151
14.416071428571428,0.31544509121316794
14.449441964285715,0.40688548759417936
14.4828125,0.47070107051840393
14.516183035714285,0.4789101745353072
14.549553571428572,0.4229609080642936
14.582924107142857,0.31813357249942453
14.616294642857143,0.19639395556176115
14.649665178571428,0.09148098110342835
14.683035714285714,0.023698151725666253
14.71640625,-0.008117767477129764
14.749776785714285,-0.02375809007235836
14.78314732142857,-0.04992384697322043
14.816517857142857,-0.10613078036226052
14.849888392857142,-0.1955356284143271
14.88325892857143,-0.30468839088416033
14.916629464285714,-0.4109969612633698
14.95,-0.49284229315595107
14.983370535714286,-0.5369638138863161
15.016741071428571,-0.5405406940158349
15.050111607142856,-0.5089043264946876
15.083482142857143,-0.4516380768113349
15.116852678571428,-0.3793473396118915
15.150223214285713,-0.3018273290313184
15.18359375,-0.2272691893352349
15.216964285714285,-0.16202127723626278
15.250334821428572,-0.11064616042033969
15.283705357142857,-0.07590666358827636
15.317075892857142,-0.05800383124717951
15.350446428571429,-0.05261385741860694
15.383816964285714,-0.04842191366384332
15.417187499999999,-0.02628838599922081
15.450558035714286,0.03744909735502481
15.48392857142857,0.16267867689613316
15.517299107142858,0.35453907568948473
15.550669642857143,0.5949168739516477
15.584040178571428,0.841960976821462
15.617410714285715,1.0402616363769548
15.65078125,1.1392472680272516
15.684151785714285,1.1125942379836486
15.717522321428572,0.9696754271309695
15.750892857142857,0.752691089374529
15.784263392857143,0.5194344229694474
15.817633928571428,0.3188739506422485
15.851004464285714,0.1710933334726785
15.884375,0.06174367896272983
15.917745535714285,-0.04594210213066063
15.95111607142857,-0.18782675846047217
15.984486607142857,-0.37667746484537695
16.017857142857142,-0.5928089619511357
16.05122767857143,-0.7919778323029607
16.084598214285712,-0.9255521484103059
16.11796875,-0.9620181079319904
16.151339285714286,-0.8993498891397835
16.18470982142857,-0.7635370669836415
16.218080357142856,-0.5957329494659444
16.251450892857143,-0.43519832277821907
16.28482142857143,-0.30577287346463783
16.318191964285713,-0.21077367810224673
16.3515625,-0.13706990822869985
16.384933035714287,-0.06554503043007637
16.41830357142857,0.016791570764357854
16.451674107142857,0.108035900488809
16.485044642857144,0.1897348150551251
16.518415178571427,0.23363454344720525
16.551785714285714,0.21478603288922607
16.58515625,0.12578457838597618
16.618526785714284,-0.01453091285399133
16.65189732142857,-0.16303181470002454
16.685267857142858,-0.2655523450236701
16.71863839285714,-0.27664914104267907
16.752008928571428,-0.17755622407249022
16.785379464285715,0.015501890782101074
16.81875,0.2561503772907806
16.852120535714285,0.48352059878103776
16.88549107142857,0.6420417687311856
16.91886160714286,0.6977465417879428
16.95223214285714,0.6458276503989521
16.98560267857143,0.5082008220693057
17.018973214285715,0.3235361312311236
17.05234375,0.1343056690066461
17.085714285714285,-0.024488476870255054
17.119084821428572,-0.13172289434929083
17.152455357142856,-0.18085114076312003
17.185825892857142,-0.1763431603616415
17.21919642857143,-0.12870601292777983
17.252566964285712,-0.05083702572370311
17.2859375,0.04303347518755651
17.319308035714286,0.13663096528164476
17.35267857142857,0.21141180351776734
17.386049107142856,0.24891929876419575
17.419419642857143,0.23603100807583624
17.45279017857143,0.1710258264981099
17.486160714285713,0.06696684136675696
17.51953125,-0.05047197288786487
17.552901785714287,-0.15099987133208487
17.58627232142857,-0.21057290210682397
17.619642857142857,-0.2202539268770807
17.653013392857144,-0.1888541481245579
