Frequency (Hz),Amplitude
0.0,1.0733572975254084
0.01978021978021978,1.1182173769899186
0.03956043956043956,1.2429660004602487
0.05934065934065934,1.4263925655150527
0.07912087912087912,1.6484447965397788
0.0989010989010989,1.8948856218656907
0.11868131868131868,2.156573901331932
0.13846153846153844,2.4277235364130485
0.15824175824175823,2.7045839181346243
0.17802197802197803,2.984626794769444
0.1978021978021978,3.266070762174729
0.21758241758241756,3.5476033831310594
0.23736263736263735,3.8282157424311385
0.2571428571428572,4.107101411654401
0.2769230769230769,4.383593071672024
0.2967032967032967,4.657121712787412
0.31648351648351647,4.927189729307985
0.3362637362637363,5.193352784637874
0.35604395604395606,5.455207346621628
0.3758241758241758,5.7123819711032455
0.3956043956043956,5.964531114328613
0.4153846153846154,6.211330683724053
0.4351648351648351,6.4524748042320965
0.45494505494505494,6.687673447908583
0.4747252747252747,6.916650685255641
0.4945054945054945,7.139143390033948
0.5142857142857143,7.3549002785831235
0.5340659340659341,7.563681198356235
0.5538461538461538,7.765256603724492
0.5736263736263736,7.959407173520641
0.5934065934065934,8.14592353647341
0.6131868131868132,8.324606079103324
0.6329670329670329,8.495264816783166
0.6527472527472528,8.65771931318272
0.6725274725274726,8.811798636675936
0.6923076923076923,8.95734134481085
0.7120879120879121,9.094195489853231
0.7318681318681318,9.222218639875319
0.7516483516483516,9.341277910986612
0.7714285714285715,9.451250007178356
0.7912087912087912,9.552021264938674
0.810989010989011,9.643487700336431
0.8307692307692308,9.725555056703179
0.8505494505494506,9.7981388513887
0.8703296703296702,9.861164420346505
0.8901098901098901,9.914566959535868
0.9098901098901099,9.958291562317129
0.9296703296703297,9.992293252177328
0.9494505494505494,10.016537010259098
0.9692307692307692,10.03099779728384
0.989010989010989,10.035660569564753
1.0087912087912088,10.03052028889944
1.0285714285714287,10.015581926219808
1.0483516483516484,9.990860458960865
1.0681318681318681,9.956380862192782
1.087912087912088,9.912178093644734
1.1076923076923075,9.858297072837388
1.1274725274725275,9.794792654636089
1.1472527472527472,9.721729597642371
1.1670329670329669,9.639182527960772
1.1868131868131868,9.547235899016364
1.2065934065934065,9.445983948260515
1.2263736263736265,9.335530651796434
1.2461538461538462,9.21598967819034
1.2659340659340659,9.08748434301995
1.2857142857142858,8.95014756606566
1.3054945054945055,8.804121833489441
1.3252747252747252,8.649559167899652
1.3450549450549452,8.48662110990002
1.3648351648351649,8.315478715616067
1.3846153846153846,8.136312575843782
1.4043956043956045,7.949312863961149
1.4241758241758242,7.754679421701199
1.443956043956044,7.552621894471356
1.4637362637362636,7.343359931350669
1.4835164835164834,7.127123469534724
1.5032967032967033,6.904153129301385
1.523076923076923,6.674700754229979
1.542857142857143,6.439030143436135
1.5626373626373626,6.197418039498633
1.5824175824175823,5.950155459843327
1.6021978021978023,5.697549494128679
1.621978021978022,5.439925741136397
1.6417582417582417,5.177631634520524
1.6615384615384616,4.9110410215946105
1.6813186813186813,4.640560536355152
1.7010989010989013,4.366638586206361
1.720879120879121,4.089778218492105
1.7406593406593405,3.8105558659051115
1.7604395604395604,3.529649201039662
1.7802197802197801,3.2478794486541043
1.7999999999999998,2.9662772360314755
1.8197802197802198,2.6861877771029063
1.8395604395604395,2.4094434426697218
1.8593406593406594,2.138654067062761
1.879120879120879,1.8777039995054523
1.8989010989010988,1.6326003043132542
1.9186813186813187,1.412836704789309
1.9384615384615385,1.2331347483832802
1.9582417582417584,1.1139288761614534
1.978021978021978,1.0760557951299226
1.9978021978021978,1.1279004509668107
2.0175824175824175,1.2582572467252662
2.0373626373626372,1.4456341576473597
2.0571428571428574,1.670369319251087
2.076923076923077,1.9186731702493174
2.096703296703297,2.1817176367419613
2.1164835164835165,2.4539076792449093
2.1362637362637362,2.7316057127310884
2.1560439560439564,3.0123508726166555
2.175824175824176,3.2944028177893356
2.195604395604396,3.5764747758886504
2.215384615384615,3.857574268466916
2.2351648351648348,4.136905620575196
2.254945054945055,4.413808669879697
2.2747252747252746,4.6877192277948705
2.2945054945054943,4.958142956249525
2.314285714285714,5.224637730219214
2.3340659340659338,5.486801496907839
2.353846153846154,5.744263774776453
2.3736263736263736,5.996679612251376
2.3934065934065933,6.243725239745133
2.413186813186813,6.485094907306679
2.4329670329670328,6.720498565301975
2.452747252747253,6.949660152928823
2.4725274725274726,7.172316330512251
2.4923076923076923,7.388215539446158
2.512087912087912,7.597117306430184
2.5318681318681318,7.798791731407764
2.5516483516483515,7.993019114623619
2.5714285714285716,8.179589689629521
2.5912087912087913,8.358303437295927
2.610989010989011,8.528969961887443
2.6307692307692307,8.691408414682314
2.6505494505494505,8.845447453907557
2.6703296703296706,8.990925232234696
2.6901098901098903,9.127689404956122
2.70989010989011,9.255597153396428
2.7296703296703297,9.374515219219026
2.7494505494505495,9.484319946148707
2.769230769230769,9.584897326304873
2.7890109890109893,9.676143048873337
2.808791208791209,9.757962549269196
2.8285714285714287,9.830271057284865
2.8483516483516484,9.892993642994512
2.8681318681318677,9.946065259413317
2.887912087912088,9.989430781098303
2.9076923076923076,10.023045038036
2.9274725274725273,10.046872844297052
2.947252747252747,10.06088902105511
2.9670329670329667,10.06507841367125
2.986813186813187,10.059435902639546
3.0065934065934066,10.043966408276784
3.0263736263736263,10.018684889124028
3.046153846153846,9.983616334110664
3.0659340659340657,9.938795748616554
3.085714285714286,9.884268134657495
3.1054945054945056,9.82008846551539
3.1252747252747253,9.746321655242374
3.145054945054945,9.663042523589382
3.1648351648351647,9.570335757051067
3.184615384615385,9.46829586688497
3.2043956043956046,9.357027145161034
3.2241758241758243,9.236643620137864
3.243956043956044,9.107269012555387
3.2637362637362637,8.96903669479655
3.2835164835164834,8.822089655322111
3.3032967032967036,8.666580471351704
3.3230769230769233,8.50267129348407
3.342857142857143,8.33053384687077
3.3626373626373627,8.150349454743845
3.3824175824175824,7.96230909163959
3.4021978021978025,7.76661347567986
3.4219780219780223,7.563473211941632
3.441758241758242,7.353109002505509
3.4615384615384617,7.135751943567573
3.481318681318681,6.911643936519494
3.501098901098901,6.681038248866591
3.520879120879121,6.444200273318292
3.5406593406593405,6.201408550927834
3.5604395604395602,5.952956149166604
3.58021978021978,5.699152521963633
3.5999999999999996,5.440326031760801
3.61978021978022,5.176827392646361
3.6395604395604395,4.909034413395284
3.659340659340659,4.637358604128094
3.679120879120879,4.362254501344721
3.6989010989010986,4.0842330339373545
3.718681318681319,3.8038810217321344
3.7384615384615385,3.5218901917321452
3.758241758241758,3.239101326175751
3.7780219780219784,2.9565730880049275
3.7978021978021976,2.6756921483944254
3.8175824175824173,2.3983541536708106
3.8373626373626375,2.1272684791133774
3.8571428571428568,1.8664798644775111
3.876923076923077,1.6222553921512752
3.896703296703296,1.4044936164679556
3.916483516483517,1.2284501866757518
3.936263736263736,1.1149335026172573
3.956043956043956,1.0842899787125593
3.9758241758241755,1.1433510384538323
3.9956043956043956,1.2795815925006815
4.015384615384615,1.4712867613834315
4.035164835164835,1.6992076764986435
4.054945054945055,1.9499772679136997
4.0747252747252745,2.2150516775986433
4.094505494505494,2.4890043573843266
4.114285714285715,2.7682946783542026
4.134065934065934,3.0505178609203787
4.153846153846154,3.3339665394412066
4.173626373626373,3.617373655271498
4.193406593406594,3.899758648749062
4.213186813186813,4.18033305967257
4.232967032967033,4.4584410274559465
4.252747252747253,4.733520817679781
4.2725274725274724,5.005079349252635
4.292307692307692,5.272674963911599
4.312087912087913,5.535905546040573
4.331868131868132,5.794400192296007
4.351648351648352,6.047813284288498
4.371428571428571,6.295820218240183
4.391208791208792,6.538114296512825
4.410989010989011,6.774404446360588
4.43076923076923,7.004413535833238
4.450549450549451,7.227877126130028
4.4703296703296695,7.444542546501528
4.49010989010989,7.654168209854487
4.50989010989011,7.8565231094960115
4.52967032967033,8.051386453148845
4.549450549450549,8.238547401566779
4.569230769230769,8.417804887161509
4.589010989010989,8.588967493952218
4.608791208791209,8.751853384500656
4.628571428571428,8.906290262736144
4.648351648351649,9.052115364012934
4.6681318681318675,9.189175465591804
4.687912087912088,9.317326912153543
4.707692307692308,9.436435652044922
4.7274725274725276,9.546377280807464
4.747252747252747,9.647037089206847
4.767032967032967,9.738310113507959
4.786813186813187,9.820101186161668
4.806593406593407,9.892324985407706
4.826373626373626,9.95490608257319
4.846153846153847,10.007778986071825
4.8659340659340655,10.050888181296358
4.885714285714286,10.08418816575419
4.905494505494506,10.107643478930859
4.9252747252747255,10.121228726483155
4.945054945054945,10.124928598467404
4.964835164835165,10.118737881403433
4.984615384615385,10.102661464062527
5.004395604395604,10.076714336953074
5.024175824175824,10.040921585561769
5.043956043956045,9.995318377494408
5.0637362637362635,9.9399499437514
5.083516483516483,9.874871554471923
5.103296703296703,9.800148489590272
5.123076923076923,9.715856004973169
5.142857142857143,9.622079294751385
5.162637362637362,9.518913450730675
5.182417582417583,9.406463419970672
5.2021978021978015,9.28484396186875
5.221978021978022,9.154179606388796
5.241758241758242,9.014604615449802
5.2615384615384615,8.866262949956598
5.281318681318681,8.709308245544177
5.301098901098901,8.54390380085274
5.320879120879121,8.370222583106159
5.340659340659341,8.188447256996827
5.36043956043956,7.998770244481038
5.380219780219781,7.801393825186632
5.3999999999999995,7.596530289909713
5.41978021978022,7.384402163381673
5.43956043956044,7.165242517478667
5.4593406593406595,6.9392954028409335
5.479120879120879,6.706816436219002
5.498901098901099,6.468073593875534
5.518681318681319,6.2233482797015
5.538461538461538,5.972936762861322
5.558241758241758,5.717152117626797
5.578021978021979,5.456326853633963
5.5978021978021975,5.190816507714821
5.617582417582418,4.921004594297895
5.637362637362637,4.647309505890952
5.6571428571428575,4.370194261789745
5.676923076923077,4.0901804967520174
5.696703296703297,3.807868893779761
5.716483516483517,3.523969633729771
5.736263736263735,3.2393487953308737
5.756043956043956,2.955100806622068
5.775824175824176,2.6726645526103043
5.795604395604395,2.394014408235639
5.815384615384615,2.1219821050730325
5.835164835164835,1.860806964575498
5.854945054945055,1.6170664820255414
5.874725274725275,1.4011313090329325
5.894505494505494,1.228853545770669
5.914285714285715,1.1214009917943457
5.934065934065933,1.098478374265936
5.953846153846154,1.165219651018987
5.973626373626374,1.3077847182153974
5.993406593406593,1.5043487371258788
6.013186813186813,1.7360750370703935
6.032967032967033,1.9900046718940667
6.052747252747253,2.2578579091974484
6.072527472527473,2.53435995745388
6.092307692307692,2.816054691922028
6.112087912087913,3.1005843199473833
6.131868131868131,3.3862677132403327
6.151648351648352,3.6718524109794135
6.171428571428572,3.956365776578989
6.191208791208791,4.239023354038676
6.210989010989011,4.519170934784107
6.230769230769231,4.796246997545793
6.2505494505494505,5.069757781225917
6.270329670329671,5.339260388156468
6.29010989010989,5.604351112569953
6.309890109890111,5.864657243382563
6.329670329670329,6.119831223534918
6.349450549450549,6.369546437128045
6.36923076923077,6.613494139801833
6.3890109890109885,6.8513812042602655
6.408791208791209,7.082928455004567
6.428571428571428,7.307869434226674
6.4483516483516485,7.525949486685096
6.468131868131868,7.7369250828542215
6.487912087912088,7.940563321540815
6.507692307692308,8.136641568608987
6.527472527472527,8.324947199488925
6.547252747252747,8.505277421117821
6.567032967032967,8.67743915478738
6.5868131868131865,8.841248965673904
6.606593406593407,8.996533028033902
6.626373626373626,9.143127117462235
6.6461538461538465,9.28087662344306
6.665934065934065,9.409636576827573
6.685714285714286,9.529271687957458
6.705494505494506,9.63965639199734
6.725274725274725,9.740674898702526
6.745054945054945,9.83222124437315
6.764835164835165,9.914199344164913
6.7846153846153845,9.986523043263615
6.804395604395605,10.049116165705215
6.824175824175824,10.10191255984816
6.8439560439560445,10.144856139692239
6.863736263736263,10.177900921395597
6.883516483516484,10.201011054476833
6.903296703296704,10.214160847306411
6.923076923076923,10.217334786596561
6.942857142857143,10.210527550694005
6.962637362637362,10.193744016569488
6.9824175824175825,10.16699926048431
7.002197802197802,10.13031855239997
7.021978021978022,10.083737344285245
7.041758241758242,10.02730125256843
7.061538461538461,9.961066035083814
7.081318681318681,9.885097562975249
7.101098901098901,9.79947178814806
7.1208791208791204,9.704274707011741
7.140659340659341,9.599602321432233
7.16043956043956,9.485560598025922
7.1802197802197805,9.362265427184578
7.199999999999999,9.229842583536442
7.21978021978022,9.088427689939431
7.23956043956044,8.938166187590273
7.259340659340659,8.779213315447493
7.279120879120879,8.611734102946697
7.298901098901099,8.435903380984056
7.318681318681318,8.25190581743255
7.338461538461539,8.059935985130517
7.358241758241758,7.860198472480991
7.3780219780219785,7.652908049709435
7.397802197802197,7.4382899077146325
7.417582417582418,7.21657999168919
7.437362637362638,6.988025458827922
7.457142857142857,6.75288529927829
7.476923076923077,6.511431173187625
7.496703296703297,6.263948536021304
7.516483516483516,6.010738151921922
7.536263736263736,5.75211813485206
7.556043956043957,5.4884267160275595
7.575824175824176,5.220026023931028
7.595604395604395,4.947307296588206
7.615384615384615,4.6706981522477875
7.635164835164835,4.3906728704907785
7.654945054945055,4.10776716108706
7.674725274725275,3.822599763610918
7.694505494505494,3.535904680877958
7.7142857142857135,3.248580370148422
7.734065934065935,2.9617666673888894
7.753846153846154,2.6769682286169107
7.7736263736263735,2.3962578123634417
7.793406593406592,2.122618739630663
7.813186813186814,1.8605289085394114
7.832967032967034,1.6169409560066599
7.852747252747252,1.402782713281986
7.872527472527472,1.2345768814396152
7.892307692307693,1.1338199373668874
7.912087912087912,1.1193750514259462
7.931868131868132,1.1944971304638983
7.951648351648351,1.3440557451766086
7.971428571428572,1.546170705651395
7.991208791208791,1.7824547009293923
8.010989010989011,2.0403517790896135
8.03076923076923,2.311833306614158
8.05054945054945,2.591764060587408
8.07032967032967,2.876762707282472
8.09010989010989,3.1645109554159516
8.10989010989011,3.453348117067798
8.129670329670331,3.7420317567863184
8.149450549450549,4.029593471041696
8.169230769230769,4.315249758915895
8.189010989010988,4.598345486588802
8.20879120879121,4.878317121740443
8.22857142857143,5.154668267844328
8.248351648351647,5.426953040726245
8.268131868131867,5.694764561819838
8.287912087912087,5.957726861925056
8.307692307692308,6.215489103357202
8.327472527472528,6.4677214067232995
8.347252747252746,6.7141118067030225
8.367032967032966,6.954364014140358
8.386813186813187,7.1881957618194265
8.406593406593407,7.415337577932882
8.426373626373627,7.635531876352309
8.446153846153845,7.848532283804774
8.465934065934066,8.054103145663909
8.485714285714286,8.252019167324095
8.505494505494505,8.442065159039867
8.525274725274725,8.62403586000897
8.545054945054945,8.797735823254003
8.564835164835165,8.962979347126627
8.584615384615384,9.11959044244544
8.604395604395604,9.26740282667852
8.624175824175826,9.406259938407102
8.643956043956043,9.536014966705244
8.663736263736263,9.656530891151922
8.683516483516483,9.76768052903478
8.703296703296704,9.869346586967035
8.723076923076924,9.96142171466344
8.742857142857142,10.04380855904052
8.762637362637362,10.116419817143836
8.782417582417583,10.179178286680182
8.802197802197803,10.232016913158335
8.821978021978023,10.274878832830366
8.84175824175824,10.30771741078412
8.86153846153846,10.330496273673427
8.881318681318682,10.34318933669171
8.901098901098901,10.34578082450015
8.920879120879121,10.33826528591921
8.940659340659339,10.320647602282733
8.96043956043956,10.292942989442617
8.98021978021978,10.255176993500163
9.0,10.20738548043073
9.01978021978022,10.149614619865503
9.03956043956044,10.081920863398803
9.05934065934066,10.00437091790776
9.079120879120879,9.917041714505652
9.098901098901099,9.82002037390713
9.11868131868132,9.713404169169443
9.138461538461538,9.597300486996314
9.158241758241758,9.4718267890617
9.178021978021977,9.337110575142722
9.197802197802199,9.193289350261685
9.217582417582419,9.040510598551421
9.237362637362637,8.878931767205197
9.257142857142856,8.708720264695268
9.276923076923078,8.53005347849792
9.296703296703297,8.343118818923363
9.316483516483517,8.148113797420272
9.336263736263735,7.945246150050779
9.356043956043957,7.734734019912647
9.375824175824176,7.516806216404651
9.395604395604396,7.291702574790539
9.415384615384616,7.059674447099412
9.435164835164835,6.820985365851499
9.454945054945055,6.575911936671273
9.474725274725275,6.3247450364194835
9.494505494505495,6.067791422890576
9.514285714285714,5.805375904775517
9.534065934065934,5.537844283372095
9.553846153846154,5.265567371423174
9.573626373626373,4.988946537333395
9.593406593406593,4.708421444428312
9.613186813186815,4.424481004873536
9.632967032967032,4.1376791326809395
9.652747252747252,3.8486578121506345
9.672527472527472,3.558181571364374
9.692307692307693,3.267190168188064
9.712087912087913,2.9768810942061044
9.731868131868131,2.688842119355847
9.75164835164835,2.4052696713714843
9.771428571428572,2.1293363898771784
9.791208791208792,1.8658154717041302
9.810989010989012,1.6221173543927803
9.83076923076923,1.4098324988710242
9.850549450549451,1.2462364541964355
9.87032967032967,1.1530923921083591
9.89010989010989,1.1481592888381713
9.90989010989011,1.2325999326083148
9.92967032967033,1.390012847315974
9.94945054945055,1.5985452457534766
9.96923076923077,1.8402939076995133
9.989010989010989,2.1031076069468693
10.008791208791209,2.379200711717941
10.028571428571428,2.6635684285340533
10.048351648351648,2.952896244109408
10.068131868131868,3.2448988263700285
10.08791208791209,3.5379306075853547
10.107692307692307,3.8307548134361515
10.127472527472527,4.12240363729042
10.147252747252747,4.412091449253375
10.167032967032966,4.699159527088104
10.186813186813188,4.983039988386022
10.206593406593406,5.263231714997857
10.226373626373626,5.5392839501658555
10.246153846153845,5.810784917334203
10.265934065934067,6.077353795499876
10.285714285714286,6.338634982015412
10.305494505494504,6.594293942197091
10.325274725274724,6.84401417768613
10.345054945054946,7.087494995281031
10.364835164835165,7.324449856202118
10.384615384615385,7.554605151315489
10.404395604395603,7.777699292313834
10.424175824175824,7.993482039469887
10.443956043956044,8.201714007958035
10.463736263736264,8.40216630986517
10.483516483516484,8.594620299845479
10.503296703296703,8.778867400223508
10.523076923076923,8.95470898709916
10.542857142857143,9.121956323262854
10.562637362637362,9.280430526908624
10.582417582417584,9.429962567530335
10.602197802197802,9.570393282210683
10.621978021978022,9.701573406912532
10.641758241758241,9.823363618465573
10.661538461538463,9.935634583785982
10.681318681318682,10.03826701353181
10.7010989010989,10.13115171792319
10.72087912087912,10.214189662878361
10.740659340659342,10.287292024956056
10.760439560439561,10.350380243871983
10.780219780219781,10.40338607158503
10.799999999999999,10.446251617139092
