Time (s),Filtered Signal
0.0,-0.037369190062483584
0.03337004405286344,0.06782414595258818
0.06674008810572687,0.1784482867438
0.10011013215859031,0.2922596823299134
0.13348017621145375,0.39674216921622657
0.16685022026431717,0.47208497243397707
0.20022026431718062,0.4985571861306098
0.23359030837004408,0.4645018092352957
0.2669603524229075,0.37126741513724065
0.3003303964757709,0.23333022655567903
0.33370044052863435,0.07424126120994197
0.3670704845814978,-0.07946354707646584
0.40044052863436125,-0.20414458792387077
0.43381057268722467,-0.28338536844576906
0.46718061674008815,-0.31046283458470353
0.5005506607929515,-0.2891329057689597
0.533920704845815,-0.23271796168565914
0.5672907488986785,-0.16119513982685876
0.6006607929515418,-0.09627370554469754
0.6340308370044053,-0.05543140382173264
0.6674008810572687,-0.046878659834803056
0.7007709251101322,-0.06749920916895619
0.7341409691629956,-0.10462947888250089
0.767511013215859,-0.14072653326090673
0.8008810572687225,-0.1587216171651886
0.834251101321586,-0.14598055531991183
0.8676211453744493,-0.09610749569799418
0.9009911894273128,-0.009289039247456912
0.9343612334801763,0.10762257297904228
0.9677312775330397,0.24085507031593126
1.001101321585903,0.3701510555485114
1.0344713656387665,0.471347754337947
1.06784140969163,0.5217349163468786
1.1012114537444935,0.5069896832050792
1.134581497797357,0.42691196689314903
1.1679515418502202,0.29706762702851064
1.2013215859030837,0.1450331688506154
1.2346916299559472,0.0023399854396442994
1.2680616740088106,-0.1049370073579041
1.3014317180616741,-0.16363078219848154
1.3348017621145374,-0.17668722034965176
1.3681718061674009,-0.1614432705665382
1.4015418502202643,-0.14366268250520922
1.4349118942731278,-0.14888779191897875
1.4682819383259913,-0.19327965547670226
1.5016519823788548,-0.27662755731570104
1.535022026431718,-0.3802840656810971
1.5683920704845815,-0.47180265119686193
1.601762114537445,-0.5157743449032705
1.6351321585903085,-0.4874576110771523
1.668502202643172,-0.3837612185150181
1.7018722466960352,-0.2264264472317354
1.7352422907488987,-0.05523235290644066
1.7686123348017622,0.08647603076432106
1.8019823788546256,0.1678985897703868
1.8353524229074891,0.18152748386650905
1.8687224669603526,0.14397522373395824
1.9020925110132159,0.08701256234624742
1.9354625550660793,0.043477445115268874
1.9688325991189428,0.034764419284792715
2.002202643171806,0.06518047386086832
2.0355726872246698,0.12448873047277019
2.068942731277533,0.19577171858067144
2.1023127753303967,0.26364364344373853
2.13568281938326,0.31874656153084496
2.1690528634361232,0.35743858748188395
2.202422907488987,0.37857202459976924
2.23579295154185,0.3805031434426984
2.269162995594714,0.36054841528238696
2.302533039647577,0.31695636045748576
2.3359030837004404,0.2516050688151642
2.369273127753304,0.17114960634092222
2.4026431718061674,0.08539173955511488
2.436013215859031,0.0035252864475963006
2.4693832599118943,-0.06952381366185155
2.5027533039647576,-0.13421271803928214
2.5361233480176213,-0.19391240983045885
2.5694933920704845,-0.25014414080297015
2.6028634361233483,-0.2986032815945732
2.6362334801762115,-0.32899985666483816
2.6696035242290748,-0.3296434366949587
2.7029735682819385,-0.29472018787969567
2.7363436123348017,-0.2302077437663798
2.7697136563876654,-0.15467215915118723
2.8030837004405287,-0.09370341467404415
2.8364537444933924,-0.0700556208152686
2.8698237885462556,-0.0938463458486722
2.903193832599119,-0.15728747262902495
2.9365638766519826,-0.23642521443091197
2.969933920704846,-0.2993236650182498
3.0033039647577096,-0.31744565935937824
3.036674008810573,-0.27575190904105246
3.070044052863436,-0.17764480207238975
3.1034140969162998,-0.04300453010818566
3.136784140969163,0.09964654963874775
3.1701541850220267,0.22346677484960736
3.20352422907489,0.3118162477706865
3.2368942731277532,0.3616822938085383
3.270264317180617,0.38118488772890163
3.30363436123348,0.38307098367147896
3.337004405286344,0.3777194259788631
3.370374449339207,0.36890512393541747
3.4037444933920704,0.35371325083656097
3.437114537444934,0.32570875658046977
3.4704845814977974,0.27904491204016624
3.503854625550661,0.21129665092256264
3.5372246696035243,0.12411908498169406
3.5705947136563876,0.022350281904251278
3.6039647577092513,-0.08711266324180336
3.6373348017621145,-0.1957898521462092
3.6707048458149782,-0.293690935691779
3.7040748898678415,-0.3700378870825442
3.737444933920705,-0.4154603122534273
3.7708149779735685,-0.42526921344969837
3.8041850220264317,-0.4020907707110692
3.8375550660792954,-0.3558257157378042
3.8709251101321587,-0.3001049772972535
3.9042951541850224,-0.24653626054809696
3.9376651982378856,-0.19966075677917178
3.971035242290749,-0.15543614991698812
4.004405286343612,-0.10416202282219088
4.037775330396476,-0.03626708138692321
4.0711453744493395,0.05212269656134879
4.104515418502203,0.1565775008796331
4.137885462555066,0.26568233177777084
4.171255506607929,0.3652112980788581
4.2046255506607935,0.4428952095950244
4.237995594713657,0.4915894910585377
4.27136563876652,0.5097193982144783
4.304735682819383,0.49932200014458766
4.3381057268722465,0.4631461394638061
4.371475770925111,0.4026180710509509
4.404845814977974,0.31788023417012345
4.438215859030837,0.2098479625275987
4.4715859030837,0.08295735435146746
4.504955947136564,-0.053267346270137426
4.538325991189428,-0.18512669953411923
4.571696035242291,-0.29802125478831976
4.605066079295154,-0.38055443710633857
4.638436123348018,-0.4274179477329657
4.671806167400881,-0.43974737519584256
4.705176211453745,-0.42313161019147216
4.738546255506608,-0.3847474938993742
4.7719162995594715,-0.3313726417436481
4.805286343612335,-0.26919052554715667
4.838656387665198,-0.2049388124183939
4.872026431718062,-0.1469520536427659
4.905396475770925,-0.10463931979749048
4.938766519823789,-0.08592856776035152
4.972136563876652,-0.09362030340021552
5.005506607929515,-0.122591900385914
5.038876651982379,-0.159757638477634
5.072246696035243,-0.18753471172987993
5.105616740088106,-0.18980918230825242
5.138986784140969,-0.15792764647651708
5.172356828193832,-0.09389143384929788
5.2057268722466965,-0.009023295661993705
5.23909691629956,0.0815039084418934
5.272466960352423,0.16574744748405437
5.305837004405286,0.24011944626951956
5.3392070484581495,0.30973494657403017
5.372577092511014,0.3835059422420963
5.405947136563877,0.46637650398667185
5.43931718061674,0.5529534680459608
5.4726872246696034,0.626425550070476
5.506057268722468,0.6640133822996489
5.539427312775331,0.646579911336961
5.572797356828194,0.5675388380140952
5.606167400881057,0.43640475990732014
5.639537444933921,0.27522048586877623
5.672907488986785,0.10998225648358398
5.706277533039648,-0.038275842399883284
5.739647577092511,-0.15837395969187298
5.7730176211453745,-0.2483155157744738
5.806387665198238,-0.31096652682437
5.839757709251102,-0.34984971398320913
5.873127753303965,-0.3679841428486572
5.9064977973568284,-0.36992610872881054
5.939867841409692,-0.3644504781980304
5.973237885462555,-0.36453878746072627
6.006607929515419,-0.38306934011414145
6.039977973568282,-0.4257493349949719
6.073348017621146,-0.4853424945332516
6.106718061674009,-0.5413636619273948
6.140088105726872,-0.5667725374337977
6.173458149779736,-0.5391924950578874
6.2068281938325995,-0.45122245780842163
6.240198237885463,-0.3144474390115678
6.273568281938326,-0.15493376926266328
6.306938325991189,-0.002473032797034298
6.3403083700440535,0.12104380982627734
6.373678414096917,0.20870806067429584
6.40704845814978,0.26850295160938276
6.440418502202643,0.31712174924868064
6.4737885462555065,0.37128392998768445
6.507158590308371,0.4404375478062051
6.540528634361234,0.523258642427379
6.573898678414097,0.6083269871887573
6.60726872246696,0.6778518951869753
6.640638766519824,0.7127682194925851
6.674008810572688,0.6977301808147715
6.707378854625551,0.625025358309572
6.740748898678414,0.496816700926538
6.774118942731278,0.3253030886538109
6.807488986784141,0.13057083388101426
6.840859030837005,-0.06365236852092752
6.874229074889868,-0.235420678132899
6.9075991189427315,-0.36960270206981594
6.940969162995595,-0.46082295022295156
6.974339207048458,-0.5132162403364227
7.007709251101322,-0.5370601478640427
7.041079295154185,-0.543599172418673
7.074449339207049,-0.5401913118259929
7.107819383259912,-0.5279028085957597
7.141189427312775,-0.5027070018782169
7.174559471365639,-0.4597455901724809
7.207929515418503,-0.39838255867619204
7.241299559471366,-0.32499686657766846
7.274669603524229,-0.25133807728552365
7.308039647577092,-0.18866368246944884
7.3414096916299565,-0.1405965470508584
7.37477973568282,-0.09899719202247854
7.408149779735683,-0.04601445040085197
7.441519823788546,0.03780463636328918
7.47488986784141,0.1630867034694825
7.508259911894274,0.3243437750646303
7.541629955947137,0.4998967098138007
7.575,0.6592951230525694
7.608370044052863,0.7745166176718848
7.641740088105728,0.8293017464407806
7.675110132158591,0.8221646274993967
7.708480176211454,0.7621951633098629
7.741850220264317,0.6607719538229027
7.775220264317181,0.5245721074339006
7.808590308370045,0.3544834733547255
7.841960352422908,0.15142350984199218
7.875330396475771,-0.07451776933944172
7.9087004405286345,-0.2980818339306494
7.942070484581498,-0.48158871728487057
7.975440528634362,-0.5873729340400792
8.008810572687224,-0.5948278990138828
8.042180616740088,-0.5131694178734554
8.075550660792953,-0.38204759429154383
8.108920704845815,-0.2578687508237379
8.142290748898679,-0.1911716014107799
8.175660792951541,-0.2054739876541809
8.209030837004406,-0.2877431267696017
8.24240088105727,-0.3950778827388916
8.275770925110132,-0.474293184368036
8.309140969162996,-0.48503958739397196
8.342511013215859,-0.4159040977798679
8.375881057268723,-0.28691793732114623
8.409251101321587,-0.13865288789902797
8.44262114537445,-0.01405811013460516
8.475991189427313,0.05838748545628839
8.509361233480176,0.07342607085499327
8.54273127753304,0.04745183871897878
8.576101321585904,0.009171026404888313
8.609471365638766,-0.012233071523877679
8.64284140969163,0.0036065941706619384
8.676211453744493,0.06402456992911373
8.709581497797357,0.1637411732830182
8.742951541850221,0.2877814713516047
8.776321585903084,0.4150235304239009
8.809691629955948,0.5219390222324509
8.84306167400881,0.5871366860764832
8.876431718061674,0.5968969669967885
8.909801762114538,0.5502780609180776
8.9431718061674,0.46103883946948615
8.976541850220265,0.35405114122574854
9.009911894273127,0.25635482533519005
9.043281938325991,0.1862577339006447
9.076651982378856,0.145779194414413
9.110022026431718,0.12071510902335199
9.143392070484582,0.08881699659040294
9.176762114537445,0.032046685386617264
9.210132158590309,-0.053630096398502844
9.243502202643173,-0.15618231795390553
9.276872246696035,-0.25403071549427614
9.3102422907489,-0.3271042846457561
9.343612334801762,-0.36609171894757225
9.376982378854626,-0.3751371149887781
9.41035242290749,-0.3674577277310055
9.443722466960352,-0.35735395994776625
9.477092511013216,-0.35342166066454844
9.510462555066079,-0.3560841174585446
9.543832599118943,-0.35947304845638395
9.577202643171807,-0.3554180084477886
9.61057268722467,-0.3370256994920347
9.643942731277534,-0.30060161546904257
9.677312775330396,-0.2461191436843689
9.71068281938326,-0.17698722342686624
9.744052863436124,-0.099431436875455
9.777422907488987,-0.02115757909656466
9.81079295154185,0.051036787319843395
9.844162995594713,0.11419545381368029
9.877533039647577,0.1711220346424068
9.910903083700441,0.22948271049965985
9.944273127753304,0.2974585335955827
9.977643171806168,0.37745652276346087
10.01101321585903,0.4611697323027381
10.044383259911895,0.5293234021944093
10.077753303964759,0.5573839003322114
10.111123348017621,0.5253387616521319
10.144493392070485,0.42717612850643466
10.177863436123348,0.2753907134870173
10.211233480176212,0.09801224625033071
10.244603524229076,-0.0707878132662848
10.277973568281938,-0.2023598988270516
10.311343612334802,-0.2823507634930699
10.344713656387665,-0.31301207183840635
10.378083700440529,-0.30874036867616284
10.411453744493393,-0.2877179146570826
10.444823788546255,-0.263949579853082
10.47819383259912,-0.24311227777835692
10.511563876651982,-0.22322180100207317
10.544933920704846,-0.19868401187398446
10.57830396475771,-0.16508239602910918
10.611674008810573,-0.12236732707184196
10.645044052863437,-0.07536590885559068
10.678414096916299,-0.03185649695527285
10.711784140969163,0.0007006882666009246
10.745154185022027,0.018393012472510913
10.77852422907489,0.022775691612300426
10.811894273127754,0.020649708372787165
10.845264317180618,0.021626820497459138
10.87863436123348,0.03437996963636394
10.912004405286345,0.06323944247033925
10.945374449339207,0.10680597034758725
10.978744493392071,0.15927865398632768
11.012114537444935,0.2136540198731095
11.045484581497798,0.264771169033334
11.078854625550662,0.3102039124518742
11.112224669603524,0.34836399005559054
11.145594713656388,0.3751106478309807
11.178964757709252,0.381441791675283
11.212334801762115,0.35458329653302584
11.245704845814979,0.2830079314245136
11.279074889867841,0.1635152160295698
11.312444933920705,0.006801395817408802
11.34581497797357,-0.16201104921778722
11.379185022026432,-0.3094048932028398
11.412555066079296,-0.40441444739757526
11.445925110132158,-0.4300956499814232
11.479295154185023,-0.3903588762553741
11.512665198237887,-0.3088007734904141
11.546035242290749,-0.21973166374902567
11.579405286343613,-0.1551396935622985
11.612775330396476,-0.13311857803315622
11.64614537444934,-0.15252302612090846
11.679515418502204,-0.19577604116809527
11.712885462555066,-0.238205682745855
11.74625550660793,-0.2595889347712356
11.779625550660793,-0.2527957178563178
11.812995594713657,-0.22578917212798666
11.846365638766521,-0.1961591631967615
11.879735682819383,-0.18069373443840228
11.913105726872248,-0.184884333202019
11.94647577092511,-0.19760608389517154
11.979845814977974,-0.19411649786398524
12.013215859030838,-0.14666224408818257
12.0465859030837,-0.03808918537574078
12.079955947136565,0.1280565677518666
12.113325991189427,0.32615869934016944
12.146696035242291,0.5170633057232088
12.180066079295155,0.6628474018342573
12.213436123348018,0.7409955149446353
12.246806167400882,0.7513138949978407
12.280176211453744,0.7123801450244351
12.313546255506608,0.6494724877328563
12.346916299559473,0.5802523881635533
12.380286343612335,0.505764855693244
12.413656387665199,0.41170834143346297
12.447026431718061,0.2795061039146879
12.480396475770926,0.10123582455498749
12.51376651982379,-0.10998536248962447
12.547136563876652,-0.32043190908568625
12.580506607929516,-0.4876011699678188
12.613876651982379,-0.5779299124415864
12.647246696035243,-0.5817282583852404
12.680616740088107,-0.5180410441207992
12.71398678414097,-0.42709715583074154
12.747356828193833,-0.35382554194434135
12.780726872246696,-0.3297776701925333
12.81409691629956,-0.3611426219452058
12.847466960352424,-0.4275659707488778
12.880837004405286,-0.4917346850139182
12.91420704845815,-0.5152399751509914
12.947577092511013,-0.4738521567731585
12.980947136563877,-0.3659156145386611
13.014317180616741,-0.21079496000016046
13.047687224669604,-0.03878110175938353
13.081057268722468,0.12237500421693104
13.11442731277533,0.2578168030653479
13.147797356828194,0.3681166814753988
13.181167400881058,0.46332581561521957
13.21453744493392,0.552200706431887
13.247907488986785,0.632694286775527
13.281277533039647,0.6890815628474167
13.314647577092511,0.6975962427756195
13.348017621145376,0.6379852683992919
13.381387665198238,0.5052295194160161
13.414757709251102,0.31542534737362954
13.448127753303964,0.10258122223158732
13.481497797356829,-0.09254449486214653
13.514867841409693,-0.23664079755772924
13.548237885462555,-0.31479643404786606
13.58160792951542,-0.33361768417379
13.614977973568282,-0.31569993965188536
13.648348017621146,-0.2885334287194985
13.68171806167401,-0.27304140325551385
13.715088105726872,-0.27648876727499094
13.748458149779736,-0.2920336399514537
13.781828193832599,-0.30416254334852955
13.815198237885463,-0.2970597704244305
13.848568281938327,-0.2623086116616056
13.88193832599119,-0.20307365302700606
13.915308370044054,-0.13346278682690302
13.948678414096916,-0.07347684117473188
13.98204845814978,-0.04136928393115913
14.015418502202644,-0.04606385353087656
14.048788546255507,-0.0823210879259027
14.08215859030837,-0.13056054245204438
14.115528634361233,-0.16182296332001772
14.148898678414097,-0.14669927605528235
14.182268722466961,-0.06564070086960155
14.215638766519824,0.08268245452908915
14.249008810572688,0.2780865120220481
14.28237885462555,0.48245327946830396
14.315748898678414,0.6497957914529778
14.349118942731279,0.7399707415958849
14.382488986784141,0.7314614918627901
14.415859030837005,0.6285524312860805
14.449229074889868,0.4600421524060104
14.482599118942732,0.2697697939325222
14.515969162995596,0.10234017954799515
14.549339207048458,-0.010795098417503233
14.582709251101322,-0.06000015589651649
14.616079295154185,-0.058073391541777826
14.649449339207049,-0.033146837726768186
14.682819383259913,-0.017088813583058592
14.716189427312775,-0.03413176031398731
14.74955947136564,-0.09387967873446673
14.782929515418502,-0.19050799655549935
14.816299559471366,-0.3071054345982272
14.84966960352423,-0.42225570972784215
14.883039647577093,-0.5159464352223339
14.916409691629957,-0.573328790179802
14.94977973568282,-0.586497459926575
14.983149779735683,-0.5551925227085114
15.016519823788547,-0.48689588249628596
15.04988986784141,-0.39587918434775576
15.083259911894274,-0.3003495149084078
15.116629955947138,-0.2174769357402627
15.15,-0.15747654723633625
15.183370044052865,-0.11913130862402486
15.216740088105727,-0.08925082109603878
15.250110132158591,-0.04723563312687203
15.283480176211455,0.026347766613076227
15.316850220264318,0.1403952066788942
15.350220264317182,0.2871641343417296
15.383590308370044,0.44252782137665614
15.416960352422908,0.5731407823556551
15.450330396475772,0.6480570639107301
15.483700440528635,0.6501957577287724
15.517070484581499,0.5828183415762253
15.550440528634361,0.46812126068681253
15.583810572687225,0.3384163798181411
15.61718061674009,0.22368472157013258
15.650550660792952,0.14095457393836275
15.683920704845816,0.09007510200920878
15.717290748898678,0.057363532098195016
15.750660792951543,0.024798703444660144
15.784030837004407,-0.020135265327169288
15.817400881057269,-0.07884017210976407
15.850770925110133,-0.14257114451043584
15.884140969162996,-0.19869290365005168
15.91751101321586,-0.23824212007838372
15.950881057268724,-0.26047212334638065
15.984251101321586,-0.2721041326610063
16.01762114537445,-0.28214708552974693
16.050991189427315,-0.2955654358396599
16.084361233480177,-0.30950332217693916
16.11773127753304,-0.31414194935528095
16.151101321585905,-0.29761948687342255
16.184471365638768,-0.2522706442386725
16.21784140969163,-0.17885884395811807
16.251211453744492,-0.08667076611377615
16.284581497797358,0.010421358483180373
16.31795154185022,0.09976543945067176
16.351321585903083,0.17459206818969683
16.38469162995595,0.23525062814795397
16.41806167400881,0.286605633901262
16.451431718061674,0.3332088557767974
16.48480176211454,0.3749950745826749
16.518171806167402,0.40587969670851515
16.551541850220264,0.41595260435397546
16.584911894273127,0.39590441988625635
16.618281938325993,0.3411042391711313
16.651651982378855,0.2531427705886478
16.685022026431717,0.13843297757970907
16.718392070484583,0.0054339870160513195
16.751762114537446,-0.1371627217405056
16.785132158590308,-0.2799616812395442
16.818502202643174,-0.41086974231471224
16.851872246696036,-0.5139514528195004
16.8852422907489,-0.5713833208919261
16.91861233480176,-0.5688751444100352
16.951982378854627,-0.5024920147505277
16.98535242290749,-0.3834104302014575
17.01872246696035,-0.23767302880423122
17.052092511013218,-0.1001553569062923
17.08546255506608,-0.0045238513647731
17.118832599118942,0.027315020288165962
17.152202643171808,-0.007468214808051227
17.18557268722467,-0.09117552666598792
17.218942731277533,-0.19070831498337554
17.2523127753304,-0.2678276691777684
