Time (s),Filtered Signal
0.0,0.04154783860156568
0.03337004405286344,0.04930545410882982
0.06674008810572687,0.01591594133531361
0.10011013215859031,-0.07961227608762139
0.13348017621145375,-0.22809567081584953
0.16685022026431717,-0.3934371171106196
0.20022026431718062,-0.5274350861946977
0.23359030837004408,-0.5888215027812433
0.2669603524229075,-0.5581324297505006
0.3003303964757709,-0.44302097859372347
0.33370044052863435,-0.27353827518609186
0.3670704845814978,-0.09094336372932545
0.40044052863436125,0.06494559628857623
0.43381057268722467,0.16586235865302443
0.46718061674008815,0.20076152448759507
0.5005506607929515,0.17684685289736707
0.533920704845815,0.11648638341793699
0.5672907488986785,0.05068118760723878
0.6006607929515418,0.010070171643675976
0.6340308370044053,0.015295057627251944
0.6674008810572687,0.06951010987967615
0.7007709251101322,0.15603774710640594
0.7341409691629956,0.24298757254331366
0.767511013215859,0.29416051456289766
0.8008810572687225,0.2826911641921171
0.834251101321586,0.20206887218709427
0.8676211453744493,0.06963083683458009
0.9009911894273128,-0.0794525179249494
0.9343612334801763,-0.20544904889320428
0.9677312775330397,-0.27891612436974594
1.001101321585903,-0.29070031403753765
1.0344713656387665,-0.2530271491115348
1.06784140969163,-0.19185035719300414
1.1012114537444935,-0.13450517560502726
1.134581497797357,-0.09840047452163561
1.1679515418502202,-0.0854553787724773
1.2013215859030837,-0.08404202604456093
1.2346916299559472,-0.07683161217844374
1.2680616740088106,-0.05056631281879455
1.3014317180616741,-0.0032303125565044753
1.3348017621145374,0.054531792989586374
1.3681718061674009,0.10420919156134426
1.4015418502202643,0.12803151448749397
1.4349118942731278,0.11726842384431826
1.4682819383259913,0.0763972071809352
1.5016519823788548,0.02150721744969324
1.535022026431718,-0.025783937925602126
1.5683920704845815,-0.045655410269974925
1.601762114537445,-0.025441171635952338
1.6351321585903085,0.03837094547555546
1.668502202643172,0.1406902088452853
1.7018722466960352,0.26907423566370675
1.7352422907488987,0.40453092860412626
1.7686123348017622,0.522397015895209
1.8019823788546256,0.5949789836868516
1.8353524229074891,0.5971911301664383
1.8687224669603526,0.5144644169131377
1.9020925110132159,0.3499771319119021
1.9354625550660793,0.1273541331462232
1.9688325991189428,-0.11371973868302145
2.002202643171806,-0.3284432796147049
2.0355726872246698,-0.4805637698552042
2.068942731277533,-0.5532456304566238
2.1023127753303967,-0.5526244862784716
2.13568281938326,-0.5027960830083512
2.1690528634361232,-0.43483516895693547
2.202422907488987,-0.3748679339264268
2.23579295154185,-0.3360901998860632
2.269162995594714,-0.3172433681407597
2.302533039647577,-0.30689244026770435
2.3359030837004404,-0.2905570958307463
2.369273127753304,-0.2572475226296243
2.4026431718061674,-0.2030695284280421
2.436013215859031,-0.13135140449664767
2.4693832599118943,-0.05021557901935976
2.5027533039647576,0.030838382799159264
2.5361233480176213,0.10389936156500489
2.5694933920704845,0.16427110935160566
2.6028634361233483,0.21053783107332685
2.6362334801762115,0.24345520377478735
2.6696035242290748,0.26448196389530076
2.7029735682819385,0.2748600046314758
2.7363436123348017,0.2757844386174243
2.7697136563876654,0.26946507554323534
2.8030837004405287,0.2601432862946954
2.8364537444933924,0.25389529601464944
2.8698237885462556,0.2566080697146528
2.903193832599119,0.27065757576287885
2.9365638766519826,0.29191733054540847
2.969933920704846,0.30906225608703297
3.0033039647577096,0.306340368659083
3.036674008810573,0.2693014646074242
3.070044052863436,0.19121111226241597
3.1034140969162998,0.07707510358891502
3.136784140969163,-0.056976454758935285
3.1701541850220267,-0.1889761751278762
3.20352422907489,-0.29867447165178973
3.2368942731277532,-0.3737904897028251
3.270264317180617,-0.4122423127532522
3.30363436123348,-0.4199642774645763
3.337004405286344,-0.4062066400977084
3.370374449339207,-0.37909229585684157
3.4037444933920704,-0.34337538955083585
3.437114537444934,-0.3006434058165764
3.4704845814977974,-0.25084518990535465
3.503854625550661,-0.1937229612243774
3.5372246696035243,-0.12933937104025162
3.5705947136563876,-0.05776533063505841
3.6039647577092513,0.021455761225170216
3.6373348017621145,0.10939647537668365
3.6707048458149782,0.2069793429110078
3.7040748898678415,0.31330964323992594
3.737444933920705,0.42345292260693473
3.7708149779735685,0.5264614072023815
3.8041850220264317,0.6048814711563331
3.8375550660792954,0.6370249870368229
3.8709251101321587,0.6025489530007735
3.9042951541850224,0.4903086134797382
3.9376651982378856,0.30565451786622055
3.971035242290749,0.07347156650424055
4.004405286343612,-0.1657387483833277
4.037775330396476,-0.3665901229668873
4.0711453744493395,-0.49281666769166094
4.104515418502203,-0.5289478515785273
4.137885462555066,-0.4846479293467035
4.171255506607929,-0.38985035682821867
4.2046255506607935,-0.28293248040834995
4.237995594713657,-0.19716229356652595
4.27136563876652,-0.1510255213692393
4.304735682819383,-0.1457407915390716
4.3381057268722465,-0.16963257144561072
4.371475770925111,-0.20601322009780937
4.404845814977974,-0.24028556890196337
4.438215859030837,-0.26330299170058025
4.4715859030837,-0.27057144642468567
4.504955947136564,-0.2591376050703457
4.538325991189428,-0.22490451482218493
4.571696035242291,-0.16246367215128338
4.605066079295154,-0.0678903825896686
4.638436123348018,0.05681584442611814
4.671806167400881,0.200081497509152
4.705176211453745,0.34035302123747124
4.738546255506608,0.45025480505370596
4.7719162995594715,0.5047049918070204
4.805286343612335,0.4903645257196595
4.838656387665198,0.41256113920564613
4.872026431718062,0.2961234807414318
4.905396475770925,0.17859860255406
4.938766519823789,0.09751403792246884
4.972136563876652,0.07634426842859536
5.005506607929515,0.11510390221939232
5.038876651982379,0.19008280050773618
5.072246696035243,0.2634868570385588
5.105616740088106,0.29925880231072033
5.138986784140969,0.2782978903644884
5.172356828193832,0.20629512431390384
5.2057268722466965,0.11061571848915122
5.23909691629956,0.02763474446585681
5.272466960352423,-0.013717979680149383
5.305837004405286,-0.004817360055213486
5.3392070484581495,0.0389614861395969
5.372577092511014,0.08499439350361451
5.405947136563877,0.09725076990760861
5.43931718061674,0.05101205267945028
5.4726872246696034,-0.05770051800781187
5.506057268722468,-0.2114690040961669
5.539427312775331,-0.37913807525103804
5.572797356828194,-0.5279272952728855
5.606167400881057,-0.6346260209410217
5.639537444933921,-0.6913557766171353
5.672907488986785,-0.7040651618546835
5.706277533039648,-0.6852036302660198
5.739647577092511,-0.6445242939721395
5.7730176211453745,-0.5826838899385391
5.806387665198238,-0.4909481537304978
5.839757709251102,-0.3574009788188204
5.873127753303965,-0.1768010821472786
5.9064977973568284,0.04088674647135024
5.939867841409692,0.26809983595263887
5.973237885462555,0.46564492031991045
6.006607929515419,0.5952882777220893
6.039977973568282,0.6338164971651051
6.073348017621146,0.5823189131977957
6.106718061674009,0.4663497744974152
6.140088105726872,0.3267038447634784
6.173458149779736,0.20480552409725872
6.2068281938325995,0.12904469074818914
6.240198237885463,0.10763303408017358
6.273568281938326,0.130144716341308
6.306938325991189,0.1756764130501891
6.3403083700440535,0.22275017565006597
6.373678414096917,0.2560907701048018
6.40704845814978,0.2680139697122129
6.440418502202643,0.25565520406424036
6.4737885462555065,0.21749844542309077
6.507158590308371,0.1523800959457553
6.540528634361234,0.06175200657399547
6.573898678414097,-0.04677481855328899
6.60726872246696,-0.15785635053173275
6.640638766519824,-0.25104709642289275
6.674008810572688,-0.30726071575337427
6.707378854625551,-0.31613289150811924
6.740748898678414,-0.2804573532390537
6.774118942731278,-0.21518964535093577
6.807488986784141,-0.14131016384156433
6.840859030837005,-0.07749544654414021
6.874229074889868,-0.03357560677544488
6.9075991189427315,-0.008664773505274113
6.940969162995595,0.005639847786990488
6.974339207048458,0.01907945931392964
7.007709251101322,0.03689633310331057
7.041079295154185,0.05717150736577524
7.074449339207049,0.0723859093521796
7.107819383259912,0.07413104589580652
7.141189427312775,0.05843335565549226
7.174559471365639,0.028963656412775998
7.207929515418503,-0.0035138160410832287
7.241299559471366,-0.025299561532227607
7.274669603524229,-0.025704876763041205
7.308039647577092,-0.002164720660438188
7.3414096916299565,0.03774742167993008
7.37477973568282,0.07837308446500597
7.408149779735683,0.10140236397159104
7.441519823788546,0.09263559850881566
7.47488986784141,0.04745332869081806
7.508259911894274,-0.027206033338959445
7.541629955947137,-0.11530064375384395
7.575,-0.19782784247343413
7.608370044052863,-0.2603765290072942
7.641740088105728,-0.29899989268542077
7.675110132158591,-0.32163575085077106
7.708480176211454,-0.3438204380916809
7.741850220264317,-0.37979965378362934
7.775220264317181,-0.43252160688250824
7.808590308370045,-0.48730438426028694
7.841960352422908,-0.5132445649096723
7.875330396475771,-0.4734673236655817
7.9087004405286345,-0.3410712074096288
7.942070484581498,-0.11407043144665414
7.975440528634362,0.17809963847256466
8.008810572687224,0.4808813333326199
8.042180616740088,0.7322390993131193
8.075550660792953,0.8844654086529525
8.108920704845815,0.9205100710389245
8.142290748898679,0.8575459361659352
8.175660792951541,0.7365114835486449
8.209030837004406,0.6029348375825002
8.24240088105727,0.48812890735676623
8.275770925110132,0.39913615828597016
8.309140969162996,0.321201735455718
8.342511013215859,0.23048849433167495
8.375881057268723,0.11015230706498094
8.409251101321587,-0.03818965041400511
8.44262114537445,-0.19287820349169557
8.475991189427313,-0.32085010550955917
8.509361233480176,-0.39206088725442856
8.54273127753304,-0.3928480625317948
8.576101321585904,-0.3322414261737732
8.609471365638766,-0.23869540655979873
8.64284140969163,-0.14905769008480604
8.676211453744493,-0.09483045378272557
8.709581497797357,-0.09159008559201796
8.742951541850221,-0.13561267767732657
8.776321585903084,-0.20827736555314522
8.809691629955948,-0.28537556091751326
8.84306167400881,-0.3466550239816427
8.876431718061674,-0.38151430400004366
8.909801762114538,-0.3892299663540789
8.9431718061674,-0.37500453306579495
8.976541850220265,-0.34492551138361793
9.009911894273127,-0.3028349816193434
9.043281938325991,-0.2504362250210546
9.076651982378856,-0.1898130120735896
9.110022026431718,-0.12611130015472996
9.143392070484582,-0.06810611129702364
9.176762114537445,-0.02564551586173976
9.210132158590309,-0.004816103867545086
9.243502202643173,-0.0031886244801713945
9.276872246696035,-0.00794793332752732
9.3102422907489,0.0012034695009849558
9.343612334801762,0.04451659400916661
9.376982378854626,0.13260472420910963
9.41035242290749,0.2590514479854412
9.443722466960352,0.39941133717666644
9.477092511013216,0.5185291165804224
9.510462555066079,0.5842917862899762
9.543832599118943,0.5822737904084565
9.577202643171807,0.5242563161336661
9.61057268722467,0.44550734454980734
9.643942731277534,0.39053105203709637
9.677312775330396,0.39259975614964704
9.71068281938326,0.4559784004420395
9.744052863436124,0.5493661622920966
9.777422907488987,0.6146378883627641
9.81079295154185,0.5883811012732372
9.844162995594713,0.42796009161824417
9.877533039647577,0.13150201427518957
9.910903083700441,-0.2566519940317776
9.944273127753304,-0.6577601584236703
9.977643171806168,-0.9835832843398248
10.01101321585903,-1.1649773191489263
10.044383259911895,-1.1733763931360124
10.077753303964759,-1.0273767556186975
10.111123348017621,-0.7827707348232189
10.144493392070485,-0.5109786011816236
10.177863436123348,-0.27499362100188884
10.211233480176212,-0.11197428952236481
10.244603524229076,-0.02779702583758601
10.277973568281938,-0.003326045844542582
10.311343612334802,-0.007580452657269916
10.344713656387665,-0.011295823861900629
10.378083700440529,0.004161040773496638
10.411453744493393,0.044285718372540174
10.444823788546255,0.10399304505505864
10.47819383259912,0.1724369742125638
10.511563876651982,0.23770424859227138
10.544933920704846,0.29034055650775437
10.57830396475771,0.32571717771066927
10.611674008810573,0.3453655942845513
10.645044052863437,0.35689610705249075
10.678414096916299,0.37180005945968075
10.711784140969163,0.4009383707670938
10.745154185022027,0.4487663574850537
10.77852422907489,0.5085882352577568
10.811894273127754,0.5614401531406644
10.845264317180618,0.5800829427159113
10.87863436123348,0.5374018108936948
10.912004405286345,0.4163344340081427
10.945374449339207,0.21746546103444553
10.978744493392071,-0.03879024932855262
11.012114537444935,-0.31632878312115437
11.045484581497798,-0.5722963906980189
11.078854625550662,-0.7677328604593335
11.112224669603524,-0.8766619461071911
11.145594713656388,-0.8913297382587207
11.178964757709252,-0.8226364350357885
11.212334801762115,-0.6959631122026317
11.245704845814979,-0.5434834728520488
11.279074889867841,-0.3948764339769566
11.312444933920705,-0.26910130100484614
11.34581497797357,-0.17007927039098528
11.379185022026432,-0.08814228404181401
11.412555066079296,-0.006925271424363717
11.445925110132158,0.08713242885617137
11.479295154185023,0.19696249325592352
11.512665198237887,0.31242478331255175
11.546035242290749,0.41447421048852595
11.579405286343613,0.4840010738103885
11.612775330396476,0.5111348925978862
11.64614537444934,0.5005155068708794
11.679515418502204,0.4698478339676389
11.712885462555066,0.4421174471864603
11.74625550660793,0.434782618824621
11.779625550660793,0.45079122802624
11.812995594713657,0.47571417377639796
11.846365638766521,0.48280211133748213
11.879735682819383,0.4443031004298998
11.913105726872248,0.34434300057664396
11.94647577092511,0.18748543281948166
11.979845814977974,-0.0014182446521828352
12.013215859030838,-0.18662593552561973
12.0465859030837,-0.3361151522506992
12.079955947136565,-0.43445627476871185
12.113325991189427,-0.4875480598851774
12.146696035242291,-0.5168340915609897
12.180066079295155,-0.5460559797596076
12.213436123348018,-0.5874617753531938
12.246806167400882,-0.6345478276545976
12.280176211453744,-0.6648732510302813
12.313546255506608,-0.6512833979963818
12.346916299559473,-0.5757748361800135
12.380286343612335,-0.43917412566503516
12.413656387665199,-0.2620672161717383
12.447026431718061,-0.07674006019505147
12.480396475770926,0.0858098943884163
12.51376651982379,0.20746221190722125
12.547136563876652,0.287687541872156
12.580506607929516,0.33951182992582607
12.613876651982379,0.3793818558438201
12.647246696035243,0.41663360085110784
12.680616740088107,0.4481847718790673
12.71398678414097,0.4609647329685877
12.747356828193833,0.44028457558376416
12.780726872246696,0.3792868156586261
12.81409691629956,0.2844058682011825
12.847466960352424,0.1742800441895287
12.880837004405286,0.0731138767558595
12.91420704845815,0.0020342730018532338
12.947577092511013,-0.02766726871274321
12.980947136563877,-0.017102268962704267
13.014317180616741,0.021893229114044
13.047687224669604,0.07115282126487726
13.081057268722468,0.11141126403601197
13.11442731277533,0.12706579881322685
13.147797356828194,0.10986809729522688
13.181167400881058,0.061188017781300265
13.21453744493392,-0.007747207673194203
13.247907488986785,-0.07840055620623647
13.281277533039647,-0.13047556013789735
13.314647577092511,-0.14930357830023197
13.348017621145376,-0.13237066061875785
13.381387665198238,-0.09175685371500962
13.414757709251102,-0.05050650856084464
13.448127753303964,-0.03364975352533751
13.481497797356829,-0.05738619323296684
13.514867841409693,-0.12124948602633115
13.548237885462555,-0.20710394570812557
13.58160792951542,-0.2859808275512914
13.614977973568282,-0.33030382759337773
13.648348017621146,-0.32643953974802625
13.68171806167401,-0.28185114150286844
13.715088105726872,-0.2228892037785568
13.748458149779736,-0.1830319715558184
13.781828193832599,-0.18587671372001835
13.815198237885463,-0.23042245490861227
13.848568281938327,-0.28633374678877344
13.88193832599119,-0.30323516220210883
13.915308370044054,-0.2317753715418838
13.948678414096916,-0.04798296965617606
13.98204845814978,0.2304237221689032
14.015418502202644,0.5445809631414732
14.048788546255507,0.8133758845805854
14.08215859030837,0.9634416952174563
14.115528634361233,0.9572768205020893
14.148898678414097,0.8069334508101453
14.182268722466961,0.5672272769563138
14.215638766519824,0.31180346033606865
14.249008810572688,0.10305865505648124
14.28237885462555,-0.03072851297718385
14.315748898678414,-0.10155206450992339
14.349118942731279,-0.1495781794173374
14.382488986784141,-0.21946523062396459
14.415859030837005,-0.3365041467299831
14.449229074889868,-0.4933074407181116
14.482599118942732,-0.6523708841868183
14.515969162995596,-0.7624356858379894
14.549339207048458,-0.7806243284855181
14.582709251101322,-0.6903461453242599
14.616079295154185,-0.5075545231561832
14.649449339207049,-0.2736143614254721
14.682819383259913,-0.03905112717774282
14.716189427312775,0.15397256882268426
14.74955947136564,0.28299786195410054
14.782929515418502,0.34685498963772005
14.816299559471366,0.35903001004681423
14.84966960352423,0.33788607007270544
14.883039647577093,0.299082654590797
14.916409691629957,0.2529150157550175
14.94977973568282,0.2058081650426575
14.983149779735683,0.16306132719734498
15.016519823788547,0.13013727356536678
15.04988986784141,0.11166439060178951
15.083259911894274,0.1092789329210307
15.116629955947138,0.12017292893819467
15.15,0.13750659108913882
15.183370044052865,0.15248327146590201
15.216740088105727,0.1569304316713392
15.250110132158591,0.1452269055217513
15.283480176211455,0.11512280237910599
15.316850220264318,0.06772515656452871
15.350220264317182,0.007133913878705091
15.383590308370044,-0.060096104661191335
15.416960352422908,-0.1258807460771991
15.450330396475772,-0.18213947535398117
15.483700440528635,-0.22269931746363744
15.517070484581499,-0.24479419554405518
15.550440528634361,-0.2492955056560995
15.583810572687225,-0.2394033036067338
15.61718061674009,-0.2184884539351128
15.650550660792952,-0.18842740638637678
15.683920704845816,-0.14956722283557553
15.717290748898678,-0.10241706376323102
15.750660792951543,-0.04991117058139617
15.784030837004407,0.0015149934884902672
15.817400881057269,0.043230566471582854
15.850770925110133,0.06779101799121061
15.884140969162996,0.07258290151366355
15.91751101321586,0.06148146419816539
15.950881057268724,0.04334386031912432
15.984251101321586,0.02812374652755055
16.01762114537445,0.02290755982546678
16.050991189427315,0.030133682876190566
16.084361233480177,0.04864908170081583
16.11773127753304,0.07622606389367254
16.151101321585905,0.11118664661718103
16.184471365638768,0.15159968659604212
16.21784140969163,0.19256988860940294
16.251211453744492,0.2239583423439338
16.284581497797358,0.23110323676438924
16.31795154185022,0.19945266682922733
16.351321585903083,0.12146849506514751
16.38469162995595,0.0023285979180391286
16.41806167400881,-0.13896391513428838
16.451431718061674,-0.27442106170417396
16.48480176211454,-0.37630412765567617
16.518171806167402,-0.4269275201553593
16.551541850220264,-0.4247221413034895
16.584911894273127,-0.38377161453776576
16.618281938325993,-0.3268557027408602
16.651651982378855,-0.2748907311007296
16.685022026431717,-0.23730620433405497
16.718392070484583,-0.20762786707574832
16.751762114537446,-0.16642655212517216
16.785132158590308,-0.09066150450555739
16.818502202643174,0.03443171212395642
16.851872246696036,0.20612442410635076
16.8852422907489,0.40198873024199583
16.91861233480176,0.5861283648106752
16.951982378854627,0.7215050393350878
16.98535242290749,0.7831126279664533
17.01872246696035,0.7661721548031019
17.052092511013218,0.6857244069111416
17.08546255506608,0.568085000200301
17.118832599118942,0.4386351522087833
17.152202643171808,0.312224992600729
17.18557268722467,0.19093767196353936
17.218942731277533,0.06975918277525604
