Frequency (Hz),Amplitude
0.0,6.942179905423099
0.020066889632107024,6.948373747480964
0.04013377926421405,6.966897912962766
0.060200668896321065,6.9975819312740555
0.0802675585284281,7.04014694533785
0.10033444816053512,7.094213227706443
0.12040133779264213,7.15931000068643
0.14046822742474915,7.23488695886507
0.1605351170568562,7.320326843740035
0.1806020066889632,7.414958433261816
0.20066889632107024,7.518069373278822
0.22073578595317725,7.628918377414611
0.24080267558528426,7.746746439670995
0.2608695652173913,7.870786824485189
0.2809364548494983,8.0002737100227
0.3010033444816054,8.134449454378501
0.3210702341137124,8.272570527393139
0.34113712374581934,8.413912202579624
0.3612040133779264,8.557772136101676
0.3812709030100334,8.703472976031525
0.4013377926421405,8.85036414891116
0.42140468227424743,8.997822965508567
0.4414715719063545,9.145255176727696
0.4615384615384615,9.292095096427317
0.4816053511705685,9.43780539234328
0.5016722408026756,9.58187663073966
0.5217391304347826,9.723826645714855
0.5418060200668896,9.863199790770096
0.5618729096989966,9.99956611855258
0.5819397993311036,10.13252052466813
0.6020066889632107,10.261681883056914
0.6220735785953176,10.386692193504123
0.6421404682274248,10.507215756249394
0.6622073578595318,10.622938384183081
0.6822742474916387,10.733566659600577
0.7023411371237458,10.8388272397658
0.7224080267558528,10.938466213468656
0.7424749163879598,11.03224850922305
0.7625418060200668,11.119957354638075
0.7826086956521738,11.201393785715595
0.802675585284281,11.276376204311386
0.8227424749163879,11.344739981685102
0.8428093645484949,11.406337105909504
0.862876254180602,11.461035870874031
0.882943143812709,11.50872060467265
0.903010033444816,11.549291435287488
0.923076923076923,11.58266409165085
0.9431438127090299,11.608769738374761
0.963210702341137,11.627554842669337
0.983277591973244,11.63898107222091
1.0033444816053512,11.64302522306311
1.0234113712374582,11.639679176743826
1.0434782608695652,11.628949886366176
1.0635451505016722,11.610859391359226
1.0836120401337792,11.585444861112862
1.1036789297658862,11.552758667888899
1.1237458193979932,11.51286848969565
1.1438127090301002,11.465857444083197
1.1638795986622072,11.411824254078848
1.1839464882943145,11.350883447732324
1.2040133779264215,11.283165592972887
1.2240802675585283,11.208817569687673
1.2441471571906353,11.128002881102965
1.2642140468227423,11.040902006672846
1.2842809364548495,10.947712798737262
1.3043478260869565,10.848650925178484
1.3244147157190636,10.743950360154924
1.3444816053511706,10.63386392468431
1.3645484949832773,10.518663878339993
1.3846153846153846,10.39864256255407
1.4046822742474916,10.274113094919796
1.4247491638795986,10.14541011236353
1.4448160535117056,10.012890559010879
1.4648829431438126,9.876934511876902
1.4849498327759196,9.737946034025821
1.5050167224080266,9.596354040408494
1.5250836120401337,9.452613156024869
1.5451505016722407,9.307204539191991
1.5652173913043477,9.160636634360031
1.5852842809364547,9.013445808971504
1.605351170568562,8.866196817238201
1.625418060200669,8.719483020465047
1.6454849498327757,8.573926278916286
1.6655518394648827,8.430176414694495
1.6856187290969897,8.288910129550576
1.705685618729097,8.150829247288456
1.725752508361204,8.016658139360649
1.745819397993311,7.887140186869412
1.765886287625418,7.763033135592553
1.7859531772575248,7.645103216384763
1.806020066889632,7.534117935022328
1.826086956521739,7.430837486470508
1.846153846153846,7.336004820615681
1.866220735785953,7.250334479437874
1.8862876254180598,7.174500435862786
1.9063545150501673,7.1091232845356584
1.926421404682274,7.054757252650652
1.9464882943143813,7.011877599355971
1.966555183946488,6.98086903807302
1.9866220735785953,6.96201583153137
2.0066889632107023,6.955494163472767
2.026755852842809,6.961367280976692
2.0468227424749164,6.9795837344881315
2.0668896321070234,7.009978836137985
2.0869565217391304,7.052279235493693
2.1070234113712374,7.106110302994392
2.1270903010033444,7.171005840119625
2.1471571906354514,7.246419519852101
2.1672240802675584,7.331737409418701
2.1872909698996654,7.426290937628151
2.2073578595317724,7.529369731007983
2.2274247491638794,7.640233840878636
2.2474916387959865,7.758125000414669
2.267558528428094,7.882276671009136
2.2876254180602005,8.011922748675262
2.3076923076923075,8.14630489582658
2.3277591973244145,8.284678537701147
2.3478260869565215,8.426317615408735
2.367892976588629,8.570518220878855
2.3879598662207355,8.716601256003937
2.408026755852843,8.863914262643378
2.4280936454849495,9.011832565448232
2.4481605351170566,9.15975985882324
2.468227424749164,9.307128355317536
2.4882943143812706,9.453398597265597
2.508361204013378,9.598059017958114
2.5284280936454846,9.740625323906432
2.548494983277592,9.88063975640227
2.568561872909699,10.017670278819457
2.5886287625418056,10.151309726022445
2.608695652173913,10.281174943778266
2.6287625418060196,10.406905939085084
2.648829431438127,10.52816505666451
2.668896321070234,10.644636192339089
2.688963210702341,10.756024050454728
2.709030100334448,10.862053449751144
2.7290969899665547,10.962468679984582
2.749163879598662,11.057032910043695
2.769230769230769,11.145527647163195
2.789297658862876,11.227752246043648
2.809364548494983,11.303523466155212
2.82943143812709,11.372675075180302
2.849498327759197,11.435057496385989
2.869565217391304,11.490537497674962
2.8896321070234112,11.538997920112685
2.9096989966555182,11.580337443846107
2.9297658862876252,11.614470389496727
2.9498327759197323,11.641326553314872
2.9698996655518393,11.660851074612193
2.9899665551839463,11.67300433423755
3.0100334448160533,11.677761883122415
3.0301003344481603,11.67511440019062
3.0501672240802673,11.665067679201993
3.0702341137123748,11.647642644375935
3.0903010033444813,11.622875394919317
3.1103678929765888,11.590817278859886
3.1304347826086953,11.551534996861
3.1505016722408024,11.505110736962665
3.1705685618729094,11.451642341455473
3.1906354515050164,11.391243507342882
3.210702341137124,11.324044022079251
3.2307692307692304,11.250190036477079
3.250836120401338,11.169844376847724
3.270903010033445,11.08318689856237
3.2909698996655514,10.990414883275447
3.311036789297659,10.891743482019868
3.3311036789297654,10.787406206232035
3.351170568561873,10.677655468458273
3.3712374581939795,10.56276317398643
3.391304347826087,10.443021363879208
3.411371237458194,10.318742908787879
3.4314381270903005,10.190262251410024
3.451505016722408,10.057936193418696
3.471571906354515,9.922144720010808
3.491638795986622,9.78329185175768
3.511705685618729,9.641806509032078
3.531772575250836,9.498143368761022
3.551839464882943,9.352783686435647
3.5719063545150496,9.206236048031053
3.591973244147157,9.059037006616709
3.612040133779264,8.91175154690566
3.632107023411371,8.764973307847548
3.652173913043478,8.61932447884731
3.672240802675585,8.475455269779207
3.692307692307692,8.334042839514252
3.712374581939799,8.195789553495093
3.732441471571906,8.061420429836112
3.752508361204013,7.93167962796429
3.7725752508361197,7.807325837004746
3.7926421404682276,7.689126436454336
3.8127090301003346,7.577850332799407
3.832775919732441,7.474259425811241
3.852842809364548,7.3790987292716474
3.872909698996655,7.293085262630043
3.8929765886287626,7.21689593916496
3.9130434782608696,7.151154795225351
3.933110367892976,7.096420022452705
3.953177257525083,7.053171365392224
3.9732441471571907,7.021798513718743
3.9933110367892977,7.002591135714355
4.013377926421405,6.995731156562783
4.033444816053511,7.001287778312644
4.053511705685618,7.01921557480146
4.073578595317726,7.049355791121188
4.093645484949833,7.091440757500785
4.113712374581939,7.14510111900099
4.133779264214047,7.209875410217049
4.153846153846153,7.285221386523369
4.173913043478261,7.370528468886769
4.193979933110368,7.465130666428531
4.214046822742475,7.568319399851623
4.234113712374581,7.679355744424435
4.254180602006689,7.797481726544421
4.274247491638796,7.921930427396615
4.294314381270903,8.051934758573532
4.314381270903009,8.186734869597892
4.334448160535117,8.325584222022416
4.354515050167224,8.467754418461258
4.374581939799331,8.612538909191914
4.394648829431437,8.759255716885644
4.414715719063545,8.907249325162347
4.434782608695651,9.05589187256675
4.454849498327759,9.204583783369472
4.474916387959866,9.352753952880859
4.494983277591973,9.499859589687965
4.5150501672240795,9.645385801784784
4.535117056856188,9.78884499888341
4.555183946488294,9.92977616981905
4.575250836120401,10.067744082163328
4.595317725752508,10.202338441018027
4.615384615384615,10.33317303542411
4.635451505016722,10.459884893766901
4.655518394648829,10.582133463824556
4.6755852842809364,10.699599828517586
4.695652173913043,10.811985964799675
4.71571906354515,10.919014050322938
4.735785953177258,11.020425820369372
4.7558528428093645,11.115981975940086
4.775919732441471,11.205461642727094
4.795986622073578,11.288661879870185
4.816053511705686,11.365397236850432
4.8361204013377925,11.435499356530935
4.856187290969899,11.498816622178083
4.8762541806020065,11.555213846242616
4.896321070234113,11.604571998720134
4.916387959866221,11.646787973020603
4.936454849498328,11.681774387438772
4.956521739130435,11.70945942051646
4.976588628762541,11.729786678814436
4.996655518394649,11.742715095857129
5.016722408026756,11.74821886127159
5.036789297658863,11.74628737940986
5.056856187290969,11.736925257015933
5.076923076923077,11.720152319774714
5.096989966555184,11.696003657856616
5.117056856187291,11.66452970084745
5.137123745819398,11.62579632272615
5.157190635451505,11.579884977820928
5.177257525083611,11.526892868933698
5.197324414715719,11.466933149070242
5.217391304347826,11.400135158442426
5.237458193979933,11.326644698612576
5.257525083612039,11.246624345817525
5.277591973244148,11.160253805628864
5.297658862876254,11.067730311157034
5.317725752508361,10.96926906696987
5.337792642140468,10.865103740739503
5.357859531772575,10.755487004320386
5.377926421404682,10.640691125448084
5.397993311036789,10.521008610476315
5.418060200668896,10.396752897468147
5.438127090301003,10.268259097439442
5.458193979933109,10.13588477951693
5.478260869565218,10.000010793097372
5.498327759197324,9.861042116639009
5.518394648829431,9.719408718325182
5.538461538461538,9.57556640834251
5.558528428093646,9.429997655739001
5.578595317725752,9.28321233460699
5.598662207357859,9.135748354541844
5.618729096989966,8.98817211889673
5.638795986622073,8.841078741338317
5.65886287625418,8.695091936837752
5.678929765886288,8.550863487993926
5.698996655518394,8.409072172320252
5.719063545150501,8.270422022122336
5.739130434782608,8.135639777682826
5.759197324414716,8.005471389078345
5.7792642140468224,7.8806774250847935
5.799331103678929,7.7620272627226115
5.8193979933110365,7.650291961610692
5.839464882943144,7.5462357765804144
5.8595317725752505,7.450606331907275
5.879598662207358,7.364123570873506
5.8996655518394645,7.28746770188842
5.919732441471571,7.221266479876189
5.9397993311036785,7.166082277772311
5.959866220735786,7.122399502937557
5.9799331103678925,7.090612980538907
5.999999999999999,7.071017944937046
6.020066889632107,7.063802239776691
6.040133779264214,7.069041224384582
6.060200668896321,7.086695724531332
6.080267558528428,7.116613165652496
6.100334448160535,7.158531809743062
6.120401337792642,7.212087810050366
6.1404682274247495,7.276824625224278
6.160535117056856,7.352204215102365
6.180602006688963,7.437619382820967
6.200668896321069,7.532406631521565
6.2207357859531776,7.635858959278441
6.240802675585284,7.747238108357908
6.260869565217391,7.865785897965133
6.280936454849498,7.990734387764658
6.301003344481605,8.121314730326816
6.321070234113712,8.256764665957077
6.341137123745819,8.396334688829052
6.361204013377926,8.539292968038778
6.381270903010033,8.684929142599547
6.40133779264214,8.832557128397383
6.421404682274248,8.981517081223602
6.441471571906354,9.13117665669229
6.461538461538461,9.280931698268828
6.481605351170568,9.430206471362325
6.501672240802676,9.578453546452184
6.521739130434782,9.725153418955362
6.54180602006689,9.869813938942087
6.561872909698996,10.011969610450857
6.581939799331103,10.151180808327176
6.60200668896321,10.287032950311213
6.622073578595318,10.419135653490061
6.642140468227424,10.5471218970966
6.662207357859531,10.670647207823741
6.682274247491639,10.789388879157242
6.702341137123746,10.903045232542782
6.722408026755852,11.011334925333086
6.742474916387959,11.113996308264523
6.762541806020066,11.21078683356482
6.782608695652174,11.301482513586164
6.80267558528428,11.385877429001752
6.822742474916388,11.463783285024192
6.842809364548494,11.53502901373997
6.862876254180601,11.599460420457333
6.882943143812709,11.656939871895371
6.903010033444816,11.7073460240697
6.9230769230769225,11.750573587830036
6.94314381270903,11.786533130158533
6.963210702341137,11.815150909531317
6.983277591973244,11.836368743866053
7.0033444816053505,11.850143909820705
7.023411371237458,11.856449072462988
7.0434782608695645,11.855272244595183
7.063545150501672,11.846616775288778
7.083612040133779,11.83050136745733
7.103678929765886,11.806960124570576
7.123745819397993,11.776042626886776
7.143812709030099,11.737814037851129
7.1638795986622075,11.692355241573763
7.183946488294314,11.639763012557852
7.204013377926421,11.580150219092527
7.224080267558528,11.513646061950643
7.2441471571906355,11.440396350231094
7.264214046822742,11.360563816347563
7.2842809364548495,11.274328472278643
7.304347826086956,11.181888009238781
7.324414715719063,11.083458242884134
7.34448160535117,10.979273606002318
7.364548494983278,10.869587690313674
7.384615384615384,10.75467383848818
7.404682274247491,10.634825786698464
7.424749163879598,10.510358356917042
7.444816053511706,10.38160819663714
7.464882943143812,10.248934561652394
7.48494983277592,10.112720134848995
7.505016722408026,9.97337187050889
7.525083612040134,9.831321849239016
7.545150501672239,9.687028123163634
7.565217391304348,9.540975524274957
7.585284280936455,9.39367640067276
7.605351170568561,9.245671235711605
7.625418060200669,9.097529093757728
7.645484949832775,8.949847823392451
7.665551839464882,8.803253934718775
7.685618729096991,8.65840205241895
7.705685618729096,8.515973831204892
7.725752508361204,8.376676206573777
7.74581939799331,8.241238843128833
7.765886287625418,8.11041063753209
7.785953177257525,7.984955136362452
7.806020066889631,7.8656447441221164
7.826086956521739,7.753253626840959
7.846153846153847,7.648549265237516
7.866220735785952,7.552282680117919
7.88628762541806,7.465177441466676
7.906354515050166,7.38791767831801
7.926421404682274,7.321135422014402
7.946488294314381,7.265397729865776
7.966555183946488,7.221194135104368
7.986622073578595,7.188925036229277
8.006688963210701,7.168891659125576
8.02675585284281,7.161288187732793
8.046822742474916,7.166196559897651
8.066889632107022,7.183584270153595
8.08695652173913,7.213305325825455
8.107023411371236,7.25510428974472
8.127090301003344,7.308623138015366
8.147157190635452,7.373410489145394
8.167224080267557,7.448932639827503
8.187290969899665,7.534585782092007
8.207357859531772,7.629708776154861
8.227424749163879,7.733595904450238
8.247491638795987,7.845509121036445
8.267558528428093,7.964689420663597
8.2876254180602,8.09036706801618
8.307692307692307,8.221770537645453
8.327759197324415,8.3581341104346
8.347826086956522,8.498704148581654
8.367892976588628,8.64274412686494
8.387959866220736,8.789538534620306
8.408026755852843,8.93839578312792
8.42809364548495,9.088650260358657
8.448160535117056,9.239663672698377
8.468227424749163,9.390825804460865
8.488294314381271,9.541554813301664
8.508361204013378,9.691297165060027
8.528428093645484,9.839527296540776
8.548494983277592,9.985747080282383
8.568561872909697,10.129485152045955
8.588628762541806,10.270296149918975
8.608695652173914,10.407759903673076
8.628762541806019,10.541480604327427
8.648829431438127,10.671085976645644
8.668896321070234,10.796226471387257
8.68896321070234,10.916574489378707
8.709030100334449,11.03182364569658
8.729096989966555,11.14168807930865
8.749163879598662,11.245901811254097
8.769230769230768,11.344218152736833
8.789297658862875,11.436409163247594
8.809364548494983,11.522265157931074
8.82943143812709,11.601594262798242
8.849498327759196,11.674222015989917
8.869565217391303,11.739991013075565
8.889632107023411,11.798760594281802
8.909698996655518,11.85040657155568
8.929765886287624,11.894820993454786
8.949832775919733,11.931911945998843
8.96989966555184,11.961603387802244
8.989966555183946,11.98383501802106
9.010033444816054,11.998562175884418
9.030100334448159,12.005755770830257
9.050167224080267,12.005402242527028
9.070234113712376,11.997503550329732
9.09030100334448,11.982077191989841
9.110367892976589,11.959156251710938
9.130434782608695,11.92878947791321
9.150501672240802,11.891041391338456
9.17056856187291,11.84599242438983
9.190635451505017,11.793739092854286
9.210702341137123,11.734394201395924
9.23076923076923,11.668087084429096
9.250836120401337,11.594963884174145
9.270903010033445,11.515187867854182
9.290969899665551,11.42893978609647
9.311036789297658,11.336418274637207
9.331103678929765,11.237840301372506
9.351170568561873,11.13344166062077
9.37123745819398,11.023477516126766
9.391304347826086,10.908222993798477
9.411371237458194,10.787973824368121
9.4314381270903,10.663047035038701
9.451505016722408,10.533781687631711
9.471571906354516,10.400539658691546
9.49163879598662,10.263706454307394
9.511705685618729,10.123692048950556
9.531772575250837,9.980931733242512
9.551839464882942,9.835886950104229
9.57190635451505,9.689046092026848
9.591973244147155,9.540925224094245
9.612040133779264,9.392068687762475
9.632107023411372,9.243049529209026
9.652173913043477,9.09446968337008
9.672240802675585,8.946959830824442
9.692307692307692,8.801178829946357
9.712374581939798,8.65781261206117
9.732441471571907,8.517572413954678
9.752508361204013,8.381192211778163
9.77257525083612,8.24942521548703
9.792642140468226,8.123039286322724
9.812709030100335,8.002811154765622
9.832775919732441,7.889519346224208
9.852842809364548,7.7839357694490205
9.872909698996656,7.686815990111852
9.89297658862876,7.598888299005952
9.91304347826087,7.520841787806946
9.933110367892976,7.453313758538374
9.953177257525082,7.396876905172069
9.97324414715719,7.35202680321026
9.993311036789297,7.319170309964994
10.013377926421404,7.2986154997268144
10.033444816053512,7.29056372325389
10.053511705685617,7.295104286200347
10.073578595317725,7.312212091470875
10.093645484949834,7.341748400509021
10.113712374581938,7.38346465994968
10.133779264214047,7.437009138110559
10.153846153846153,7.50193594442236
10.17391304347826,7.577715882415735
10.193979933110368,7.663748523041007
10.214046822742475,7.759374880255429
10.234113712374581,7.863890117170001
10.254180602006688,7.976555795303355
10.274247491638796,8.096611286037946
10.294314381270903,8.223284077219924
10.31438127090301,8.355798816670964
10.334448160535118,8.493385029588064
10.354515050167223,8.635283523628539
10.37458193979933,8.780751552449098
10.394648829431437,8.929066846571484
10.414715719063544,9.079530642192804
10.434782608695652,9.231469847177703
10.454849498327757,9.384238482309842
10.474916387959865,9.537218528012774
10.494983277591974,9.68982029475952
10.515050167224079,9.841482421301839
10.535117056856187,9.99167159015308
10.555183946488295,10.139882035469467
10.5752508361204,10.285634905232415
10.595317725752508,10.42847752778658
10.615384615384615,10.567982622476285
10.635451505016722,10.703747485346359
10.65551839464883,10.835393173544844
10.675585284280936,10.962563706048101
10.695652173913043,11.084925293464229
10.71571906354515,11.20216560579591
10.735785953177256,11.313993084003869
10.755852842809364,11.420136298864419
10.775919732441471,11.520343358834303
10.795986622073578,11.614381367315406
10.816053511705684,11.702035928758846
10.836120401337793,11.783110702386981
10.856187290969899,11.857427001880342
10.876254180602006,11.924823439123616
10.896321070234114,11.985155609989564
10.916387959866219,12.03829582013004
