Frequency (Hz),Amplitude
0.0,1.6862016373565942
0.04,1.6858444585168582
0.08,1.684773896562254
0.12,1.6829928756510049
0.16,1.6805062709171739
0.19999999999999998,1.6773209107374543
0.24,1.6734455798254808
0.27999999999999997,1.6688910230711234
0.32,1.6636699500133887
0.36,1.6577970398031256
0.39999999999999997,1.6512889464741936
0.44,1.6441643042988319
0.48,1.6364437329528247
0.52,1.628149842158423
0.5599999999999999,1.6193072354063478
0.6,1.6099425122818498
0.64,1.6000842688325587
0.6799999999999999,1.5897630953172721
0.72,1.5790115705639425
0.76,1.5678642520420962
0.7999999999999999,1.5563576606195753
0.84,1.5445302588269718
0.88,1.5324224212968296
0.9199999999999999,1.5200763958814907
0.96,1.5075362537870824
1.0,1.4948478268974368
1.04,1.482058630307563
1.0799999999999998,1.4692177679516591
1.1199999999999999,1.4563758191066594
1.1600000000000001,1.4435847034934688
1.2,1.4308975227002718
1.24,1.4183683757342305
1.28,1.4060521466888949
1.3199999999999998,1.3940042628148308
1.3599999999999999,1.3822804217194697
1.4,1.3709362870146744
1.44,1.3600271524882184
1.48,1.3496075758007304
1.52,1.3397309837950264
1.5599999999999998,1.3304492527286829
1.5999999999999999,1.3218122680661522
1.64,1.3138674698402453
1.68,1.3066593909442543
1.72,1.3002291969615631
1.76,1.2946142371861107
1.7999999999999998,1.2898476172389666
1.8399999999999999,1.2859578040539987
1.88,1.2829682739164698
1.92,1.2808972136447505
1.9599999999999997,1.2797572838946383
2.0,1.2795554519646568
2.0399999999999996,1.280292899457119
2.08,1.2819650078089442
2.12,1.284561422183088
2.1599999999999997,1.2880661916580192
2.2,1.2924579812241348
2.2399999999999998,1.2977103489351578
2.28,1.3037920797878486
2.3200000000000003,1.310667566597582
2.36,1.318297227343445
2.4,1.326637948176694
2.44,1.335643541485693
2.48,1.3452652090250026
2.5199999999999996,1.3554520010612783
2.56,1.366151263670399
2.6,1.3773090676429611
2.6399999999999997,1.3888706138311557
2.68,1.400780611123105
2.7199999999999998,1.4129836245007357
2.76,1.4254243917809308
2.8,1.4380481086296546
2.84,1.4508006822623651
2.88,1.46362895490002
2.92,1.4764808985467806
2.96,1.4893057830070793
2.9999999999999996,1.50205431928435
3.04,1.5146787806213884
3.08,1.5271331034726043
3.1199999999999997,1.5393729706606072
3.16,1.5513558788807715
3.1999999999999997,1.5630411925922338
3.2399999999999998,1.5743901861854517
3.28,1.585366076154506
3.32,1.595934044835628
3.36,1.6060612571075608
3.4,1.6157168712893573
3.44,1.624872045319732
3.4799999999999995,1.6334999391615979
3.52,1.6415757142466103
3.5599999999999996,1.6490765306582225
3.5999999999999996,1.6559815426474367
3.64,1.6622718929830513
3.6799999999999997,1.6679307065566387
3.7199999999999998,1.6729430835912251
3.76,1.677296092740444
3.7999999999999994,1.6809787643108456
3.84,1.6839820837930732
3.88,1.6862989858468191
3.9199999999999995,1.687924348848511
3.96,1.6888549900791965
4.0,1.6890896616014854
4.04,1.6886290468484122
4.079999999999999,1.6874757579224726
4.12,1.6856343335791346
4.16,1.6831112378451585
4.199999999999999,1.679914859197073
4.24,1.6760555101985957
4.28,1.6715454274666666
4.319999999999999,1.6663987718033821
4.36,1.660631628294779
4.4,1.6542620061360553
4.4399999999999995,1.647309837895936
4.4799999999999995,1.639796977879463
4.5200000000000005,1.6317471991880086
4.56,1.6231861890067925
4.6,1.6141415415734246
4.640000000000001,1.6046427481953447
4.68,1.5947211835893944
4.72,1.5844100877133669
4.76,1.573744542147729
4.8,1.562761439967167
4.84,1.5514994479176691
4.88,1.539998959588847
4.92,1.5283020381462442
4.96,1.5164523470701883
5.0,1.5044950672422726
5.039999999999999,1.4924767986359033
5.08,1.4804454448133577
5.12,1.4684500784191192
5.159999999999999,1.4565407859010533
5.2,1.4447684898005362
5.24,1.433184747144486
5.279999999999999,1.4218415227601817
5.319999999999999,1.4107909367305227
5.36,1.4000849857227156
5.3999999999999995,1.3897752385626398
5.4399999999999995,1.3799125071893612
5.48,1.370546495000493
5.52,1.3617254255700113
5.56,1.3534956557562767
5.6,1.3459012782770845
5.64,1.338983719858766
5.68,1.3327813420054333
5.72,1.327329052215495
5.76,1.3226579340271356
5.8,1.3187949045393363
5.84,1.3157624079785761
5.879999999999999,1.3135781534300068
5.92,1.3122549040157498
5.96,1.3118003235992672
5.999999999999999,1.312216885569294
6.04,1.313501846481778
6.08,1.3156472854069643
6.119999999999999,1.3186402078488966
6.16,1.3224627111872482
6.2,1.3270922068433249
6.239999999999999,1.3325016928840432
6.279999999999999,1.3386600696193807
6.32,1.3455324899620293
6.359999999999999,1.3530807359172392
6.3999999999999995,1.3612636125424884
6.44,1.3700373510247348
6.4799999999999995,1.3793560131141027
6.52,1.3891718899622103
6.56,1.3994358893727052
6.6,1.410097906513607
6.64,1.4211071742050134
6.68,1.4324125899301723
6.72,1.443963017682508
6.76,1.455707563627234
6.8,1.4675958253059609
6.84,1.4795781147382459
6.88,1.4916056562752724
6.92,1.5036307604437542
6.959999999999999,1.51560697529326
7.0,1.527489216940156
7.04,1.5392338811005728
7.08,1.5507989374373872
7.119999999999999,1.5621440085261433
7.16,1.5732304351841626
7.199999999999999,1.5840213298172892
7.239999999999999,1.5944816193290139
7.28,1.6045780790147561
7.32,1.6142793587365236
7.359999999999999,1.6235560025445555
7.3999999999999995,1.6323804627866856
7.4399999999999995,1.6407271096257277
7.4799999999999995,1.6485722367718205
7.52,1.6558940641315834
7.5600000000000005,1.6626727379795503
7.599999999999999,1.6688903291698456
7.64,1.6745308298271182
7.68,1.6795801488851225
7.719999999999999,1.684026106778175
7.76,1.6878584295345578
7.800000000000001,1.6910687424708195
7.839999999999999,1.6936505636413144
7.88,1.6955992971570142
7.92,1.6969122264514371
7.959999999999999,1.69758850753801
8.0,1.6976291622721384
8.040000000000001,1.6970370716017136
8.08,1.69581696876095
8.12,1.6939754323340712
8.159999999999998,1.6915208790862197
8.2,1.6884635564290114
8.24,1.6848155343564257
8.28,1.6805906966528357
8.32,1.675804731138416
8.36,1.6704751186774145
8.399999999999999,1.6646211206314472
8.44,1.6582637643929026
8.48,1.6514258265821544
8.52,1.6441318134370462
8.56,1.636407937863511
8.6,1.628282092553198
8.639999999999999,1.6197838185075217
8.68,1.6109442682392152
8.72,1.6017961628530544
8.76,1.592373742139075
8.8,1.582712706746524
8.84,1.5728501514479576
8.879999999999999,1.5628244884539362
8.92,1.5526753597041074
8.959999999999999,1.5424435370449512
9.0,1.5321708092139643
9.040000000000001,1.5218998545908373
9.079999999999998,1.5116740987548365
9.12,1.5015375560109907
9.16,1.4915346542224779
9.2,1.4817100425184806
9.24,1.4721083817404872
9.280000000000001,1.4627741178479887
9.32,1.453751238926743
9.36,1.4450830169254352
9.399999999999999,1.4368117357818593
9.44,1.4289784081751595
9.48,1.4216224837380658
9.52,1.4147815521601954
9.559999999999999,1.4084910451824388
9.6,1.4027839419927177
9.639999999999999,1.3976904829518504
9.68,1.3932378968723884
9.72,1.389450147212851
9.76,1.3863477025101036
9.8,1.3839473361372485
9.84,1.3822619600365798
9.879999999999999,1.3813004964430642
9.92,1.381067790801284
9.959999999999999,1.3815645681188404
10.0,1.3827874339326158
10.04,1.3847289199405202
10.079999999999998,1.3873775732235014
10.12,1.390718086904785
10.16,1.3947314691152675
10.2,1.3993952462988346
10.24,1.404683696230853
10.280000000000001,1.4105681056585757
10.319999999999999,1.4170170472099732
10.36,1.4239966701544062
10.4,1.4314709997180717
10.44,1.4394022399363586
10.48,1.4477510754339498
10.52,1.4564769680294514
10.559999999999999,1.4655384446307795
10.6,1.4748933734894278
10.639999999999999,1.4844992264873842
10.68,1.4943133257164332
10.72,1.5042930731571382
10.76,1.5143961627601206
10.799999999999999,1.5245807746672713
10.84,1.5348057516803522
10.879999999999999,1.545030758389061
10.92,1.5552164236116233
10.96,1.5653244669836266
11.0,1.5753178106598378
11.04,1.5851606771768911
11.08,1.5948186745679012
11.12,1.6042588698307212
11.16,1.6134498518359874
11.2,1.6223617847249139
11.24,1.6309664527955956
11.28,1.6392372978146177
11.319999999999999,1.6471494496217474
11.36,1.65467975082279
11.4,1.6618067762913926
11.44,1.6685108481269013
11.48,1.6747740466434369
11.52,1.6805802178964813
11.559999999999999,1.6859149781876575
11.6,1.6907657159269376
11.64,1.6951215911738657
11.68,1.698973533125825
11.72,1.7023142357717131
11.759999999999998,1.7051381518832476
11.799999999999999,1.7074414854731381
11.84,1.7092221828095497
11.879999999999999,1.7104799220386964
11.92,1.7112161014321237
11.96,1.7114338262415913
11.999999999999998,1.711137894112289
12.04,1.7103347789738732
12.08,1.7090326132984113
12.12,1.7072411685842912
12.16,1.7049718338955
12.200000000000001,1.7022375922560897
12.239999999999998,1.6990529946702753
12.28,1.6954341315091277
12.32,1.6913986009758468
12.36,1.6869654743328075
12.4,1.682155257545916
12.44,1.6769898489750708
12.479999999999999,1.671492492715223
12.52,1.665687727170564
12.559999999999999,1.6596013284265227
12.6,1.6532602479711331
12.64,1.6466925443106948
12.68,1.639927308025662
12.719999999999999,1.632994579823548
12.76,1.6259252611674717
12.799999999999999,1.6187510170945312
12.84,1.6115041708885427
12.88,1.6042175903395066
12.92,1.596924565408425
12.959999999999999,1.5896586772228476
12.999999999999998,1.5824536584561026
13.04,1.5753432452926448
13.08,1.5683610213520178
13.12,1.5615402541342516
13.16,1.554913724756669
13.2,1.5485135519731872
13.239999999999998,1.5423710116967746
13.28,1.5365163534777986
13.32,1.5309786156180438
13.36,1.5257854408135403
13.4,1.5209628944098357
13.44,1.516535287511267
13.479999999999999,1.5125250073013754
13.52,1.5089523569961558
13.559999999999999,1.5058354078573735
13.6,1.5031898656341607
13.64,1.5010289536738288
13.68,1.4993633147471286
13.719999999999999,1.4982009333712785
13.76,1.4975470800922706
13.799999999999999,1.497404278815023
13.84,1.4977722978578059
13.88,1.498648164970144
13.919999999999998,1.500026206106302
13.959999999999999,1.5018981073059694
14.0,1.5042529986151345
14.04,1.5070775585982552
14.08,1.5103561376598345
14.120000000000001,1.5140708981193511
14.16,1.5182019687748398
14.2,1.5227276115506132
14.239999999999998,1.5276243977538946
14.28,1.5328673914606918
14.32,1.5384303376076582
14.36,1.5442858524765566
14.399999999999999,1.5504056144123952
14.44,1.5567605528057136
14.479999999999999,1.5633210335839491
14.52,1.5700570396866391
14.56,1.5769383452357013
14.6,1.583934682346982
14.64,1.591015899756406
14.68,1.598152112647612
14.719999999999999,1.605313843264311
14.76,1.6124721520666923
14.799999999999999,1.6195987593455348
14.84,1.6266661573397634
14.879999999999999,1.63364771301298
14.919999999999998,1.640517761733116
14.959999999999999,1.647251692168139
15.0,1.65382602276116
15.04,1.6602184701826384
15.079999999999998,1.6664080101772845
15.120000000000001,1.672374931230981
15.159999999999998,1.6781008814803506
15.199999999999998,1.6835689092763502
15.24,1.6887634977951562
15.28,1.6936705940660506
15.319999999999999,1.6982776327582838
15.36,1.702573555038313
15.399999999999999,1.7065488227760708
15.439999999999998,1.7101954283449368
15.48,1.7135069002257455
15.52,1.7164783045905272
15.559999999999999,1.7191062430076776
15.600000000000001,1.72138884637703
15.639999999999999,1.723325765171039
15.679999999999998,1.7249181560275817
15.72,1.7261686647105663
15.76,1.7270814054271202
15.799999999999999,1.7276619364646901
15.84,1.7279172320880283
15.879999999999999,1.7278556506153535
15.919999999999998,1.7274868985747185
15.96,1.7268219908265265
16.0,1.7258732065263538
16.04,1.7246540407940438
16.080000000000002,1.7231791519510458
16.12,1.7214643041885465
16.16,1.7195263055344212
16.200000000000003,1.7173829409981551
16.24,1.7150529007899038
16.279999999999998,1.712555703533525
16.319999999999997,1.7099116144237698
16.36,1.7071415583156964
16.4,1.7042670277796816
16.439999999999998,1.7013099862085324
16.48,1.6982927661238387
16.52,1.6952379628971261
16.56,1.6921683241764318
16.6,1.689106635390463
16.64,1.686075601789222
16.68,1.683097727570374
16.72,1.6801951927333805
16.759999999999998,1.6773897283960209
16.799999999999997,1.674702491398555
16.84,1.6721539391063673
16.88,1.6697637054001022
16.919999999999998,1.6675504789099376
16.96,1.6655318846049276
17.0,1.663724369886563
17.04,1.6621430963551984
17.080000000000002,1.6608018384167433
17.12,1.6597128898732927
17.16,1.6588869795942274
17.2,1.6583331972933892
17.24,1.6580589303437967
17.279999999999998,1.6580698124453923
17.32,1.658369684825462
17.36,1.658960570498928
17.4,1.6598426619498847
17.44,1.6610143224210128
17.48,1.6624721008181933
17.52,1.664210760058473
17.56,1.6662233185153625
17.6,1.6685011040504474
17.64,1.6710338199688761
17.68,1.6738096221016605
17.72,1.6768152061029542
17.759999999999998,1.6800359039574386
17.799999999999997,1.6834557886229036
17.84,1.687057785686507
17.88,1.6908237908896255
17.919999999999998,1.6947347923745684
17.96,1.6987709965248887
18.0,1.7029119563077841
18.04,1.7071367010790726
18.080000000000002,1.71142386687609
18.12,1.7157518262985745
18.159999999999997,1.7200988171592926
18.2,1.724443069172136
18.24,1.7287629280332621
18.279999999999998,1.7330369763379645
18.32,1.7372441508607912
18.36,1.7413638558069002
18.4,1.7453760717177615
18.44,1.7492614597827394
18.48,1.753001461369327
18.52,1.7565783926382819
18.560000000000002,1.7599755341552685
18.6,1.7631772154480627
18.64,1.766168894487781
18.679999999999996,1.768937232094296
18.72,1.771470161280511
18.759999999999998,1.7737569515572948
18.799999999999997,1.7757882682221187
18.84,1.777556226649032
18.88,1.7790544415870493
18.919999999999998,1.7802780714583104
18.96,1.7812238576270538
19.0,1.7818901585861684
19.04,1.7822769789801696
19.080000000000002,1.7823859933525468
19.119999999999997,1.7822205644720155
19.159999999999997,1.7817857560567905
19.2,1.781088339679319
19.24,1.7801367955965837
19.279999999999998,1.7789413072138722
19.32,1.7775137488536543
19.36,1.7758676664670954
19.4,1.7740182508945712
19.44,1.7719823032549844
19.48,1.7697781920227948
19.52,1.767425801338436
19.560000000000002,1.764946470093533
19.6,1.7623629213393426
19.639999999999997,1.759699181586681
19.68,1.7569804896005725
19.72,1.7542331943447653
19.759999999999998,1.751484641801941
19.8,1.748763050486697
19.84,1.7460973755810876
19.88,1.7435171617579963
19.919999999999998,1.7410523849153177
19.96,1.7387332832237974
20.0,1.7365901780912667
20.04,1.7346532858634767
20.08,1.7329525213127097
20.119999999999997,1.7315172942047703
20.159999999999997,1.7303763004764214
20.2,1.7295573097914336
20.24,1.729086951465759
20.279999999999998,1.7289905009519138
20.32,1.7292916692402382
20.36,1.7300123976611568
20.4,1.731172660649587
20.44,1.7327902790530854
20.48,1.734880746523681
20.52,1.7374570714267443
20.560000000000002,1.7405296365278895
20.599999999999998,1.744106078483204
20.639999999999997,1.748191188864319
20.68,1.752786838105852
20.72,1.7578919233789894
20.759999999999998,1.7635023409840178
20.8,1.7696109834298632
20.84,1.7762077609449196
20.88,1.783279646754188
20.92,1.790810745076924
20.96,1.7987823804574974
21.0,1.8071732067500543
21.04,1.8159593338412328
21.08,1.8251144700193411
21.119999999999997,1.8346100777839256
21.159999999999997,1.8444155408357827
21.2,1.8544983399906476
21.24,1.8648242358144513
21.279999999999998,1.8753574558776704
21.32,1.8860608846630358
21.36,1.8968962543264312
21.4,1.9078243346972825
21.44,1.918805121104005
21.48,1.9297980188150652
21.52,1.9407620230906801
21.56,1.951655894038601
21.599999999999998,1.9624383256557751
21.639999999999997,1.9730681086125221
21.68,1.983504286495
21.72,1.9937063053640351
21.759999999999998,2.0036341566128066
21.8,2.0132485132131084
21.84,2.0225108595299304
21.88,2.031383614958483
21.92,2.039830251697137
21.96,2.047815407016342
22.0,2.0553049904179144
22.04,2.062266286103748
22.08,2.0686680511885847
22.119999999999997,2.074480610099859
22.16,2.079675945610206
22.2,2.084227786945414
22.24,2.088111695404367
22.28,2.0913051479178257
22.32,2.093787618960786
22.36,2.0955406612190557
22.4,2.0965479853947744
22.44,2.0967955395179407
22.48,2.0962715881118132
22.519999999999996,2.0949667915385644
22.56,2.0928742858277882
22.599999999999998,2.0899897632634663
22.639999999999997,2.086311553973886
22.68,2.0818407087327815
22.72,2.0765810831370772
22.759999999999998,2.0705394232755214
22.8,2.0637254529409725
22.84,2.0561519623650772
22.88,2.0478348983645764
22.92,2.0387934556805627
22.96,2.0290501691620753
23.0,2.0186310062896817
23.04,2.0075654593488235
23.08,1.995886636342268
23.119999999999997,1.9836313494714024
23.16,1.970840199712744
23.2,1.9575576556647638
23.24,1.9438321244375836
23.28,1.929716011902471
23.32,1.9152657691091242
23.36,1.900541921120306
23.400000000000002,1.8856090739124303
23.44,1.870535894360588
23.479999999999997,1.8553950576875342
23.519999999999996,1.8402631561369698
23.56,1.8252205620715616
23.599999999999998,1.8103512382460987
23.639999999999997,1.7957424877287687
23.68,1.7814846359132843
23.72,1.767670637365611
23.759999999999998,1.7543956009714352
23.8,1.7417562280829708
23.84,1.7298501601853153
23.88,1.7187752350691368
23.92,1.708628653626885
23.96,1.6995060631500132
23.999999999999996,1.6915005672929528
24.04,1.6847016775066315
24.08,1.6791942254685013
24.119999999999997,1.6750572605126328
24.16,1.6723629599035585
24.2,1.671175582593221
24.24,1.671550498470258
24.28,1.6735333247524944
24.32,1.677159198914852
24.36,1.6824522133840645
24.400000000000002,1.6894250313572134
24.439999999999998,1.698078695886349
24.479999999999997,1.7084026363389306
24.52,1.7203748681077944
24.56,1.7339623736366667
24.599999999999998,1.7491216460217236
24.64,1.7657993710972257
24.68,1.783933220296772
24.72,1.8034527248001384
24.759999999999998,1.824280201451743
24.8,1.8463317024500288
24.84,1.8695179635375092
24.88,1.8937453290001351
24.92,1.918916635840172
24.959999999999997,1.9449320436813982
24.999999999999996,1.9716898010199049
25.04,1.999086942140316
25.08,2.0270199122401866
25.119999999999997,2.055385120974795
25.16,2.084079426735615
25.2,2.113000555533803
25.24,2.142047459428698
25.28,2.171120620089459
25.32,2.2001223033809594
25.36,2.228956770896742
25.4,2.2575304541912953
25.439999999999998,2.285752097150282
25.479999999999997,2.313532871531904
25.52,2.3407864702549905
25.56,2.3674291825317875
25.599999999999998,2.393379954468549
25.64,2.4185604383020576
25.68,2.4428950330155548
25.72,2.4663109186902714
25.76,2.4887380866019977
25.8,2.5101093667668177
25.84,2.5303604543754368
25.880000000000003,2.54942993632976
25.919999999999998,2.567259318905622
25.959999999999997,2.583793057409332
25.999999999999996,2.598978588569624
26.04,2.6127663663081795
26.08,2.6251099014580332
26.119999999999997,2.6359658059477646
26.16,2.6452938419380776
26.2,2.653056976384612
26.24,2.659221441504725
26.28,2.663756801645926
26.32,2.6666360270882388
26.36,2.667835575361712
26.4,2.6673354807233283
26.439999999999998,2.665119452514058
26.479999999999997,2.66117498320746
26.52,2.6554934670656145
26.56,2.6480703304367843
26.599999999999998,2.6389051748620798
26.64,2.628001934305591
26.68,2.615369047983506
26.72,2.601019650442085
26.76,2.584971780720066
26.8,2.567248612625494
26.84,2.547878708355745
26.88,2.526896297885551
26.919999999999998,2.5043415867313077
26.959999999999997,2.4802610948564685
27.0,2.4547080295919033
27.04,2.427742695479046
27.08,2.3994329438639017
27.119999999999997,2.369854664825364
27.16,2.3390923235437344
27.2,2.307239542415649
27.24,2.274399728985495
27.28,2.2406867479459733
27.32,2.2062256328831134
27.36,2.1711533298884658
27.4,2.135619460384451
27.439999999999998,2.099787084233607
27.479999999999997,2.0638334361510497
27.52,2.027950598370181
27.56,1.9923460602834795
27.599999999999998,1.9572431014545844
27.64,1.9228809183774707
27.68,1.8895143985716143
27.72,1.8574134297129479
27.76,1.8268616191127143
27.8,1.7981542936366903
27.839999999999996,1.7715956567666993
27.88,1.7474950031878829
27.919999999999998,1.7261619369618564
27.959999999999997,1.7079006101492078
28.0,1.6930030940900787
28.04,1.6817421091754288
28.08,1.674363457669159
28.12,1.6710786083486384
