Frequency (Hz),Amplitude
0.0,0.8487666370975393
0.019867549668874173,0.8492095599414405
0.039735099337748346,0.8505351771068569
0.059602649006622516,0.8527340904686497
0.07947019867549669,0.8557908206249494
0.09933774834437085,0.8596840747639242
0.11920529801324503,0.8643871056709189
0.13907284768211922,0.8698681473694554
0.15894039735099338,0.8760909106839122
0.17880794701986755,0.8830151209383944
0.1986754966887417,0.8905970800310895
0.2185430463576159,0.8987902361113721
0.23841059602649006,0.9075457458388864
0.2582781456953642,0.9168130164823616
0.27814569536423844,0.9265402176830407
0.2980132450331126,0.9366747553444622
0.31788079470198677,0.947163702637533
0.33774834437086093,0.9579541853962785
0.3576158940397351,0.9689937211403723
0.3774834437086093,0.9802305125558641
0.3973509933774834,0.9916136974906422
0.4172185430463576,1.0030935583979945
0.4370860927152318,1.0146216947291316
0.45695364238410596,1.0261511620817938
0.4768211920529801,1.0376365820085107
0.49668874172185434,1.04903422632391
0.5165562913907285,1.060302079569714
0.5364238410596026,1.0713998830384386
0.5562913907284769,1.082289163451888
0.5761589403973509,1.092933249064746
0.5960264900662252,1.103297275634312
0.6158940397350993,1.1133481843786115
0.6357615894039735,1.1230547137454354
0.6556291390728477,1.1323873865399485
0.6754966887417219,1.1413184937109955
0.695364238410596,1.1498220758770306
0.7152317880794702,1.1578739034814387
0.7350993377483444,1.1654514563019085
0.7549668874172186,1.1725339028979
0.7748344370860927,1.179102080462055
0.7947019867549668,1.1851384754420087
0.8145695364238411,1.1906272052180034
0.8344370860927152,1.1955540010547479
0.8543046357615894,1.199906192492441
0.8741721854304636,1.2036726932991122
0.8940397350993378,1.2068439890728595
0.9139072847682119,1.2094121265569573
0.9337748344370861,1.2113707047111093
0.9536423841059603,1.2127148675680437
0.9735099337748344,1.2134412988942382
0.9933774834437087,1.2135482186666193
1.0132450331125828,1.2130353813722325
1.033112582781457,1.2119040761346282
1.0529801324503312,1.2101571286681707
1.0728476821192052,1.2077989050591904
1.0927152317880795,1.2048353173697839
1.1125827814569538,1.2012738310557483
1.1324503311258278,1.1971234741836176
1.1523178807947019,1.1923948484223406
1.1721854304635762,1.1871001417720066
1.1920529801324504,1.1812531429735156
1.2119205298013245,1.1748692575190904
1.2317880794701985,1.1679655251516907
1.2516556291390728,1.1605606387007972
1.271523178807947,1.1526749640507654
1.2913907284768211,1.1443305609742922
1.3112582781456954,1.1355512044849219
1.3311258278145695,1.1263624062675641
1.3509933774834437,1.1167914356310726
1.370860927152318,1.1068673392909756
1.390728476821192,1.096620959129761
1.410596026490066,1.0860849468955207
1.4304635761589404,1.0752937745851394
1.4503311258278146,1.0642837390148487
1.4701986754966887,1.0530929588092062
1.4900662251655628,1.0417613617420098
1.5099337748344372,1.0303306600435505
1.5298013245033113,1.0188443109565348
1.5496688741721854,1.0073474594899579
1.5695364238410596,0.9958868600036631
1.5894039735099337,0.984510772979747
1.609271523178808,0.9732688331303181
1.6291390728476822,0.9622118848921826
1.6490066225165563,0.9513917814102238
1.6688741721854303,0.9408611433636197
1.6887417218543048,0.9306730744923257
1.7086092715231789,0.920880831487195
1.728476821192053,0.9115374470574955
1.7483443708609272,0.9026953065118596
1.7682119205298013,0.8944056800854037
1.7880794701986755,0.8867182154860852
1.8079470198675496,0.8796803976428462
1.8278145695364238,0.8733369852948707
1.847682119205298,0.8677294366948534
1.8675496688741722,0.8628953390959372
1.8874172185430464,0.8588678586129898
1.9072847682119205,0.8556752282510702
1.9271523178807946,0.8533402921627143
1.9470198675496688,0.8518801233776546
1.9668874172185429,0.8513057302813626
1.9867549668874174,0.8516218640550501
2.0066225165562916,0.8528269353003965
2.0264900662251657,0.8549130434372977
2.0463576158940397,0.8578661175423541
2.066225165562914,0.8616661624832263
2.086092715231788,0.8662875998818402
2.1059602649006623,0.8716996899270553
2.1258278145695364,0.877867017577984
2.1456953642384105,0.8847500253590018
2.165562913907285,0.8923055747339391
2.185430463576159,0.9004875188443259
2.205298013245033,0.9092472710148468
2.2251655629139075,0.918534355633576
2.2450331125827816,0.9282969305619982
2.2649006622516556,0.9384822728927323
2.2847682119205297,0.9490372224609802
2.3046357615894038,0.9599085798842891
2.324503311258278,0.9710434579598152
2.3443708609271523,0.9823895869388075
2.364238410596027,0.9938955755130713
2.384105960264901,1.0055111303053201
2.403973509933775,1.0171872372902337
2.423841059602649,1.028876308934101
2.443708609271523,1.0405323009787038
2.463576158940397,1.0521108027607116
2.4834437086092715,1.0635691047973446
2.5033112582781456,1.074866247122484
2.52317880794702,1.0859630515581578
2.543046357615894,1.0968221407802583
2.562913907284768,1.1074079467054039
2.5827814569536423,1.11768671040123
2.6026490066225163,1.1276264754159226
2.622516556291391,1.137197076140548
2.642384105960265,1.1463701225621377
2.662251655629139,1.1551189825392894
2.6821192052980134,1.1634187625333094
2.7019867549668874,1.1712462875566683
2.7218543046357615,1.1785800809540496
2.741721854304636,1.1854003445076555
2.76158940397351,1.191688939254943
2.781456953642384,1.1974293673215906
2.801324503311258,1.2026067550025985
2.821192052980132,1.2072078372678976
2.8410596026490067,1.2112209438238568
2.8609271523178808,1.2146359868266134
2.8807947019867552,1.2174444503159476
2.9006622516556293,1.2196393814176778
2.9205298013245033,1.221215383347396
2.9403973509933774,1.2221686102373985
2.9602649006622515,1.2224967638012378
2.9801324503311255,1.2221990918453045
3.0,1.2212763886334117
3.0198675496688745,1.2197309971081678
3.0397350993377485,1.2175668129707107
3.0596026490066226,1.2147892906178581
3.0794701986754967,1.2114054509319903
3.0993377483443707,1.207423890913399
3.119205298013245,1.2028547951362014
3.1390728476821192,1.1977099489970533
3.1589403973509933,1.192002753708985
3.1788079470198674,1.1857482429699524
3.198675496688742,1.1789631012060053
3.218543046357616,1.171665683250378
3.23841059602649,1.1638760352709014
3.2582781456953644,1.1556159166970963
3.2781456953642385,1.1469088228226398
3.2980132450331126,1.137780007666832
3.3178807947019866,1.1282565065671692
3.3377483443708607,1.1183671578422592
3.3576158940397347,1.1081426227068716
3.3774834437086096,1.0976154024372227
3.3973509933774837,1.0868198515721899
3.4172185430463577,1.075792185694103
3.437086092715232,1.0645704820610125
3.456953642384106,1.0531946710624907
3.47682119205298,1.0417065161470538
3.4966887417218544,1.0301495795285691
3.5165562913907285,1.0185691706325752
3.5364238410596025,1.0070122739077956
3.556291390728477,0.9955274523255121
3.576158940397351,0.9841647226490219
3.596026490066225,0.9729753984134362
3.615894039735099,0.9620118965565536
3.6357615894039736,0.9513275038333622
3.6556291390728477,0.9409760995840626
3.6754966887417218,0.931011832161198
3.695364238410596,0.9214887474027913
3.7152317880794703,0.9124603689997002
3.7350993377483444,0.9039792324570441
3.754966887417219,0.8960963765709173
3.774834437086093,0.8888607988678398
3.794701986754967,0.8823188841740989
3.814569536423841,0.8765138182298113
3.834437086092715,0.8714850008287968
3.854304635761589,0.8672674751055247
3.8741721854304636,0.863891391051237
3.8940397350993377,0.8613815218881365
3.9139072847682117,0.8597568513847322
3.9337748344370858,0.8590302484657297
3.9536423841059607,0.8592082425792813
3.9735099337748347,0.8602909093802634
3.993377483443709,0.862271871636289
4.013245033112583,0.8651384152196747
4.033112582781457,0.8688717150192979
4.052980132450331,0.8734471609948183
4.072847682119205,0.8788347707529761
4.0927152317880795,0.8849996722089595
4.112582781456953,0.891902638243387
4.132450331125828,0.8995006547912298
4.152317880794702,0.9077475044051933
4.172185430463576,0.9165943488385961
4.19205298013245,0.925990296356377
4.211920529801325,0.9358829420536032
4.231788079470199,0.9462188721985273
4.251655629139073,0.9569441263140469
4.271523178807947,0.968004613208447
4.291390728476821,0.979346479354147
4.311258278145695,0.9909164298319109
4.33112582781457,1.0026620034883567
4.3509933774834435,1.014531805009632
4.370860927152318,1.0264756973282623
4.390728476821192,1.0384449582012438
4.410596026490066,1.0503924049781843
4.43046357615894,1.062272491571771
4.450331125827815,1.0740413814977177
4.470198675496689,1.0856570006106863
4.490066225165563,1.0970790728617237
4.509933774834438,1.1082691420705455
4.529801324503311,1.1191905823637014
4.549668874172186,1.1298085995937053
4.569536423841059,1.140090225734928
4.589403973509934,1.150004307957266
4.6092715231788075,1.1595214938109197
4.629139072847682,1.168614213718017
4.649006622516556,1.1772566617580262
4.66887417218543,1.1854247755533789
4.688741721854305,1.1930962159073513
4.708609271523179,1.200250346715591
4.728476821192054,1.206868215563617
4.748344370860927,1.2129325353320044
4.768211920529802,1.218427667057069
4.788079470198675,1.2233396042350997
4.80794701986755,1.2276559587102813
4.827814569536423,1.2313659482489365
4.847682119205298,1.2344603858738552
4.867549668874172,1.2369316710103575
4.887417218543046,1.238773782479701
4.9072847682119205,1.239982273364039
4.927152317880794,1.2405542677591226
4.947019867549669,1.240488459425979
4.966887417218543,1.239785112349546
4.986754966887418,1.2384460632101664
5.006622516556291,1.2364747257723796
5.026490066225166,1.2338760971935019
5.04635761589404,1.2306567662515815
5.066225165562914,1.22682492348786
5.086092715231788,1.2223903732514787
5.105960264900662,1.2173645476236903
5.125827814569536,1.2117605221835122
5.14569536423841,1.2055930335560099
5.1655629139072845,1.1988784986566474
5.185430463576159,1.1916350355088525
5.205298013245033,1.183882485465488
5.225165562913908,1.1756424366066873
5.245033112582782,1.1669382480133998
5.264900662251656,1.1577950745271062
5.28476821192053,1.1482398914973946
5.304635761589404,1.1383015188889665
5.324503311258278,1.128010643964712
5.344370860927152,1.1173998415795199
5.364238410596027,1.1065035909078502
5.3841059602649,1.0953582871857228
5.403973509933775,1.0840022467731796
5.4238410596026485,1.0724757035382373
5.443708609271523,1.0608207942305505
5.463576158940397,1.0490815301588183
5.483443708609272,1.03730375212039
5.503311258278146,1.0255350651701736
5.52317880794702,1.0138247494792876
5.543046357615895,1.002223643251101
5.562913907284768,0.990783993468023
5.582781456953643,0.9795592701818437
5.602649006622516,0.9686039401825746
5.622516556291391,0.957973196242793
5.642384105960264,0.9477226387932702
5.662251655629139,0.9379079078942222
5.682119205298013,0.928584264767817
5.701986754966887,0.9198061239716122
5.7218543046357615,0.911626539510283
5.741721854304636,0.9040966507514673
5.7615894039735105,0.8972650968286514
5.781456953642384,0.8911774111223042
5.801324503311259,0.8858754102005693
5.821192052980132,0.8813965940217808
5.841059602649007,0.8777735759838824
5.860927152317881,0.8750335622905928
5.880794701986755,0.8731978998804352
5.900662251655629,0.8722817107049199
5.920529801324503,0.8722936274340567
5.940397350993377,0.8732356418312907
5.960264900662251,0.8751030723244186
5.980132450331126,0.8778846520615494
6.0,0.8815627334028371
6.0198675496688745,0.8861135997949857
6.039735099337749,0.8915078716973303
6.059602649006623,0.8977109899778276
6.079470198675497,0.9046837581533647
6.099337748344371,0.9123829240580874
6.119205298013245,0.9207617819078987
6.139072847682119,0.9297707771121518
6.158940397350993,0.9393580983241439
6.178807947019867,0.949470243852276
6.198675496688741,0.9600525524132553
6.218543046357616,0.9710496910680934
6.23841059602649,0.9824060958608871
6.258278145695365,0.9940663630523411
6.2781456953642385,1.0059755908310313
6.298013245033113,1.0180796729676695
6.317880794701987,1.0303255470588089
6.337748344370861,1.0426614008195367
6.357615894039735,1.0550368403788828
6.377483443708609,1.067403024761898
6.397350993377484,1.079712770765524
6.417218543046357,1.091920632304185
6.437086092715232,1.1039829580615168
6.456953642384105,1.1158579309768608
6.47682119205298,1.1275055927491326
6.496688741721854,1.1388878561820897
6.516556291390729,1.14996850783979
6.5364238410596025,1.1607132031433431
6.556291390728477,1.1710894557260776
6.5761589403973515,1.181066622579657
6.596026490066225,1.1906158862697616
6.6158940397351,1.1997102352772653
6.635761589403973,1.2083244433275344
6.655629139072848,1.2164350484055895
6.675496688741721,1.2240203320148293
6.695364238410596,1.231060299120253
6.715231788079469,1.237536659120172
6.735099337748344,1.2434328081111932
6.754966887417219,1.248733812647069
6.774834437086093,1.2534263951410174
6.794701986754967,1.2574989210206693
6.814569536423841,1.2609413877140043
6.8344370860927155,1.2637454155211107
6.854304635761589,1.2659042404094398
6.874172185430464,1.267412708758219
6.894039735099337,1.2682672740693655
6.913907284768212,1.268465995657313
6.933774834437086,1.2680085393270815
6.95364238410596,1.266896180048393
6.973509933774834,1.2651318066328798
6.993377483443709,1.2627199284202257
7.013245033112583,1.259666683977562
7.033112582781457,1.2559798518129734
7.052980132450331,1.2516688630983654
7.072847682119205,1.246744816387846
7.0927152317880795,1.241220494304768
7.112582781456954,1.235110382151554
7.132450331125828,1.2284306883714065
7.152317880794702,1.2211993667568675
7.172185430463576,1.2134361402570417
7.19205298013245,1.2051625261793362
7.211920529801324,1.1964018625121744
7.231788079470198,1.187179335008743
7.251655629139073,1.1775220045666248
7.271523178807947,1.1674588343101728
7.291390728476822,1.1570207156305017
7.311258278145695,1.146240492256729
7.33112582781457,1.1351529812212913
7.3509933774834435,1.1237949893377244
7.370860927152318,1.1122053235309681
7.390728476821192,1.100424793047879
7.410596026490066,1.0884962012310537
7.430463576158941,1.0764643241680052
7.450331125827814,1.0643758731385093
7.470198675496689,1.0522794373895623
7.490066225165562,1.0402254033900258
7.509933774834438,1.0282658463823353
7.52980132450331,1.0164543897926885
7.549668874172186,1.0048460279264093
7.569536423841059,0.993496907415312
7.589403973509934,0.9824640631561089
7.6092715231788075,0.9718051050464444
7.629139072847682,0.961577852748042
7.649006622516557,0.9518399170368564
7.66887417218543,0.9426482280712316
7.6887417218543055,0.9340585131242681
7.708609271523178,0.9261247289485294
7.728476821192054,0.9188984568797022
7.748344370860927,0.9124282718924689
7.768211920529802,0.9067590998888053
7.788079470198675,0.9019315802687754
7.80794701986755,0.8979814530167436
7.827814569536423,0.8949389908440141
7.847682119205298,0.8928284971096307
7.8675496688741715,0.8916678891224963
7.887417218543046,0.8914683839530773
7.907284768211921,0.8922343001352658
7.927152317880795,0.8939629838449846
7.9470198675496695,0.8966448626585531
7.966887417218543,0.900263624259871
7.986754966887418,0.9047965119567215
8.006622516556291,0.9102147240253746
8.026490066225167,0.9164839000886053
8.046357615894038,0.9235646751791149
8.066225165562914,0.9314132809364405
8.086092715231787,0.9399821734814573
8.105960264900663,0.9492206687405947
8.125827814569536,0.9590755681056086
8.14569536423841,0.9694917600269767
8.165562913907285,0.9804127861635789
8.185430463576159,0.9917813637890797
8.205298013245034,1.0035398590788478
8.225165562913906,1.0156307085190832
8.245033112582782,1.0279967879007526
8.264900662251655,1.040581730144516
8.28476821192053,1.0533301945505749
8.304635761589404,1.066188091010602
8.324503311258278,1.0791027633075132
8.344370860927151,1.0920231359229304
8.364238410596027,1.1048998288318466
8.3841059602649,1.11768524464855
8.403973509933774,1.130333632248103
8.42384105960265,1.142801130667464
8.443708609271523,1.155045796725349
8.463576158940398,1.1670276194166476
8.483443708609272,1.178708523756424
8.503311258278146,1.1900523663839533
8.52317880794702,1.2010249248980642
8.543046357615895,1.2115938825866335
8.562913907284768,1.2217288099376162
8.582781456953642,1.231401144077007
8.602649006622515,1.24058416706943
8.62251655629139,1.2492529838373492
8.642384105960264,1.2573845003030377
8.66225165562914,1.2649574022303
8.682119205298013,1.2719521351374186
8.701986754966887,1.2783508855670969
8.721854304635762,1.2841375639289694
8.741721854304636,1.2892977890751613
8.76158940397351,1.2938188747254884
8.781456953642383,1.297689817825381
8.801324503311259,1.3009012888942597
8.821192052980132,1.3034456244037083
8.841059602649008,1.3053168212118438
8.86092715231788,1.3065105330717057
8.880794701986755,1.3070240692263917
8.90066225165563,1.3068563951010643
8.920529801324504,1.3060081351008683
8.940397350993377,1.3044815775238856
8.960264900662251,1.3022806815982517
8.980132450331126,1.299411086652146
9.0,1.2958801234236121
9.019867549668875,1.2916968275131397
9.039735099337747,1.2868719549750736
9.059602649006623,1.2814180000327464
9.079470198675496,1.2753492148862042
9.099337748344372,1.26868163155842
9.119205298013245,1.2614330856953713
9.139072847682119,1.2536232421948221
9.158940397350994,1.245273622486353
9.178807947019868,1.236407633219192
9.198675496688743,1.2270505960314941
9.218543046357615,1.2172297779728862
9.23841059602649,1.20697442202765
9.258278145695364,1.19631577703588
9.27814569536424,1.1852871261312743
9.298013245033111,1.173923812603088
9.317880794701987,1.1622632618442053
9.33774834437086,1.150344997764565
9.357615894039736,1.1382106517284611
9.37748344370861,1.1259039617174376
9.397350993377483,1.113470759029864
9.417218543046358,1.10095893941265
9.437086092715232,1.0884184150911902
9.456953642384107,1.0759010437394176
9.47682119205298,1.063460530038221
9.496688741721854,1.0511522951417234
9.516556291390728,1.0390333091511252
9.536423841059603,1.0271618816374521
9.556291390728477,1.015597405419571
9.57615894039735,1.0044000492596672
9.596026490066224,0.9936303959537319
9.6158940397351,0.9833490235319244
9.635761589403973,0.9736160289913729
9.655629139072847,0.9644904961817007
9.675496688741722,0.9560299121315999
9.695364238410596,0.9482895391702826
9.715231788079471,0.9413217535250661
9.735099337748345,0.935175364462937
9.754966887417218,0.9298949312267215
9.774834437086092,0.9255200976868264
9.794701986754967,0.9220849664641461
9.814569536423841,0.9196175349798428
9.834437086092716,0.91813921522402
9.854304635761588,0.9176644568933202
9.874172185430464,0.9182004899598012
9.894039735099337,0.9197471978937143
9.913907284768213,0.9222971270167264
9.933774834437086,0.92583563126817
9.95364238410596,0.9303411455433129
9.973509933774835,0.9357855752156177
9.993377483443709,0.9421347849173843
10.013245033112582,0.9493491664294503
10.033112582781456,0.957384263769859
10.052980132450331,0.9661914332633993
10.072847682119205,0.9757185173693873
10.09271523178808,0.9859105130936975
10.112582781456952,0.9967102186047485
10.132450331125828,1.0080588448927514
10.152317880794701,1.0198965826611972
10.172185430463577,1.0321631178740165
10.192052980132452,1.0447980923185143
10.211920529801324,1.057741508066062
10.2317880794702,1.0709340767628142
10.251655629139073,1.0843175162525855
10.271523178807948,1.0978347981520757
10.29139072847682,1.1114303507161098
10.311258278145695,1.125050221710988
10.331125827814569,1.1386422061259915
10.350993377483444,1.1521559434601534
10.370860927152318,1.1655429890831206
10.390728476821192,1.1787568638345753
10.410596026490065,1.1917530856363994
10.43046357615894,1.2044891864781548
10.450331125827816,1.2169247177209683
10.470198675496688,1.229021246266496
10.490066225165563,1.2407423437644927
10.509933774834437,1.2520535706932374
10.529801324503312,1.2629224568431203
10.549668874172186,1.2733184794664922
10.56953642384106,1.2832130401251363
10.589403973509933,1.2925794410681397
10.609271523178808,1.3013928618048836
10.629139072847682,1.3096303363974027
10.649006622516556,1.3172707318796688
10.66887417218543,1.3242947281164499
10.688741721854305,1.3306847993371795
10.70860927152318,1.336425197518902
