Time (s),Filtered Signal
0.0,-0.045111504832530666
0.033370165745856356,-0.08865264408650422
0.06674033149171271,-0.11710900143403422
0.10011049723756907,-0.11804454791709189
0.13348066298342542,-0.08430285457032488
0.16685082872928178,-0.016576800051877172
0.20022099447513814,0.07554863467150662
0.2335911602209945,0.17529921691400305
0.26696132596685085,0.2632272779936564
0.30033149171270723,0.32301130019396884
0.33370165745856356,0.3460721469453251
0.3670718232044199,0.333002411278542
0.4004419889502763,0.2914658287866954
0.43381215469613266,0.23205068066511172
0.467182320441989,0.16442951164611166
0.5005524861878453,0.0956257322928602
0.5339226519337017,0.030659238691712165
0.5672928176795581,-0.02567140231291782
0.6006629834254145,-0.06770834671951513
0.6340331491712707,-0.08976178683536919
0.6674033149171271,-0.08862760498540838
0.7007734806629835,-0.06627407296139862
0.7341436464088398,-0.030834813942776682
0.7675138121546962,0.005090488339574916
0.8008839779005525,0.028287351195568737
0.8342541436464089,0.02916009648481525
0.8676243093922653,0.004449518054352962
0.9009944751381216,-0.042445861929526756
0.934364640883978,-0.10301914018431785
0.9677348066298344,-0.16577912984536564
1.0011049723756906,-0.21801937472149632
1.0344751381215471,-0.2473470389333825
1.0678453038674034,-0.2437438130185774
1.1012154696132597,-0.2024500212387295
1.1345856353591162,-0.1266482925856815
1.1679558011049724,-0.027989187688278117
1.201325966850829,0.0764287073652644
1.2346961325966852,0.16996138792106943
1.2680662983425415,0.2423599951971257
1.301436464088398,0.29231902749251876
1.3348066298342542,0.3249533240789221
1.3681767955801105,0.34567137559830474
1.401546961325967,0.3543863163019283
1.4349171270718233,0.3440343433833293
1.4682872928176796,0.30473842423806813
1.501657458563536,0.23123635398043657
1.5350276243093923,0.12878948857021674
1.5683977900552488,0.013388031634116745
1.601767955801105,-0.09452426440143111
1.6351381215469614,-0.17944142248237854
1.6685082872928179,-0.23774234485321633
1.7018784530386741,-0.27790296324447056
1.7352486187845306,-0.31371358309981173
1.768618784530387,-0.354526828686544
1.8019889502762432,-0.39841518655594416
1.8353591160220997,-0.43239058881147535
1.868729281767956,-0.43961148823707835
1.9020994475138122,-0.4093595664502553
1.9354696132596687,-0.3439774484153041
1.968839779005525,-0.2587936700161006
2.0022099447513813,-0.1751429546982498
2.0355801104972375,-0.11047066179440088
2.0689502762430942,-0.07096520977108711
2.1023204419889505,-0.050480105812624604
2.135690607734807,-0.03582583634180677
2.169060773480663,-0.015041304870371542
2.2024309392265193,0.0160831771331848
2.235801104972376,0.05260685306648877
2.2691712707182323,0.08447722079056172
2.3025414364640886,0.10334888272234719
2.335911602209945,0.10819821838993693
2.369281767955801,0.1066104928382653
2.402651933701658,0.11105987797445345
2.436022099447514,0.1322011059510746
2.4693922651933704,0.1727820289473028
2.5027624309392267,0.2255076390230728
2.536132596685083,0.2762024773282506
2.5695027624309392,0.3109133727299283
2.602872928176796,0.3234928321255926
2.636243093922652,0.319749826391715
2.6696132596685085,0.31572657365839324
2.7029834254143648,0.33042126820904166
2.736353591160221,0.376048687945112
2.7697237569060777,0.4503806934321973
2.803093922651934,0.5350849703091439
2.8364640883977903,0.6014696093603262
2.8698342541436466,0.6216862297466134
2.903204419889503,0.5807027641366286
2.936574585635359,0.4835161503341559
2.969944751381216,0.3537276736376128
3.003314917127072,0.22332111681608288
3.0366850828729284,0.11780810101609339
3.0700552486187846,0.04377862582409171
3.103425414364641,-0.014454703207944437
3.1367955801104976,-0.08643360825838474
3.170165745856354,-0.1987927457464237
3.20353591160221,-0.35876793403117585
3.2369060773480665,-0.5476526760894149
3.2702762430939227,-0.729510679380675
3.3036464088397794,-0.8722127714811936
3.3370165745856357,-0.9698652498724407
3.370386740331492,-1.0526598470480109
3.4037569060773483,-1.1748335339014533
3.4371270718232045,-1.382555285736032
3.4704972375690613,-1.6759391075554022
3.5038674033149175,-1.9860858621973894
3.537237569060774,-2.1841401929475914
3.57060773480663,-2.1250942927908976
3.6039779005524863,-1.710749908390679
3.6373480662983426,-0.9435070398986946
3.6707182320441993,0.05661402316075007
3.7040883977900556,1.0838753867188016
3.737458563535912,1.9167455777239353
3.770828729281768,2.396223797689499
3.8041988950276244,2.478629101712754
3.837569060773481,2.241195512441528
3.8709392265193374,1.8408770426377405
3.9043093922651937,1.4471445172778847
3.93767955801105,1.1787080938076482
3.9710497237569062,1.0690628879776702
4.0044198895027625,1.0706098792161278
4.037790055248619,1.089904166721726
4.071160220994475,1.035039388226222
4.104530386740332,0.8543179230487331
4.1379005524861885,0.5523866656181762
4.171270718232044,0.18147172730998345
4.204640883977901,-0.1843408301605282
4.238011049723757,-0.4786950645520429
4.271381215469614,-0.6644395985301137
4.30475138121547,-0.7405680483256724
4.338121546961326,-0.7350435251778401
4.371491712707183,-0.689071719603726
4.404861878453039,-0.6402897981338292
4.438232044198895,-0.611094367017226
4.471602209944752,-0.60516746286712
4.504972375690608,-0.611725109927444
4.538342541436465,-0.6143535703236767
4.5717127071823205,-0.6001876269313937
4.605082872928177,-0.5657307889131781
4.638453038674034,-0.5174514305168287
4.67182320441989,-0.46765915533046226
4.7051933701657465,-0.42810852166348673
4.738563535911602,-0.4044710253167792
4.771933701657459,-0.39400896038715594
4.805303867403316,-0.3869914843453167
4.8386740331491715,-0.3706312533911378
4.872044198895028,-0.333493834496558
4.905414364640884,-0.26869181757938054
4.938784530386741,-0.17524513937325104
4.972154696132597,-0.05798294759834392
5.005524861878453,0.07327363349338371
5.03889502762431,0.20482036089708625
5.072265193370166,0.3206487164184512
5.105635359116023,0.4050313616939014
5.1390055248618784,0.4463579703825319
5.172375690607735,0.44151935497938544
5.205745856353592,0.39905498808325374
5.239116022099448,0.3388800264605066
5.272486187845304,0.28728967302938263
5.30585635359116,0.2679801386066663
5.339226519337017,0.29212423367911056
5.372596685082874,0.35184381533369435
5.4059668508287295,0.4207879579156788
5.439337016574586,0.4628707222267457
5.472707182320442,0.4465174689661942
5.506077348066299,0.3587377832705355
5.5394475138121555,0.2126733048164753
5.572817679558011,0.04464647044411017
5.606187845303868,-0.09872248927150681
5.639558011049724,-0.17821017317715662
5.672928176795581,-0.1771028643950799
5.706298342541437,-0.10747092251132336
5.739668508287293,-0.005244179381064413
5.77303867403315,0.08359238184051664
5.806408839779006,0.12003292978075422
5.839779005524862,0.08589833576402532
5.873149171270718,-0.010211196405455618
5.906519337016575,-0.1364313946933798
5.939889502762432,-0.24895747050692918
5.9732596685082875,-0.30720395702187636
6.006629834254144,-0.2878888288447208
6.04,-0.1935547526619444
6.073370165745857,-0.05263105246494258
6.1067403314917135,0.0893624777034281
6.140110497237569,0.18492691558524763
6.173480662983426,0.20095004846816564
6.206850828729282,0.13031278196634533
6.240220994475139,-0.0058594158516255485
6.273591160220995,-0.16633052601324747
6.306961325966851,-0.3050270876056291
6.340331491712708,-0.3872221797186615
6.373701657458564,-0.4001855148818384
6.40707182320442,-0.35449539052085394
6.440441988950277,-0.27638689401455885
6.473812154696133,-0.19523994379966392
6.50718232044199,-0.13194770758825455
6.5405524861878455,-0.09288719480480036
6.573922651933702,-0.07121790151247093
6.607292817679559,-0.0537783586468666
6.640662983425415,-0.029542142465234712
6.674033149171271,0.004611371709825428
6.707403314917127,0.043257183189092635
6.740773480662984,0.07658249186684363
6.774143646408841,0.096653990591826
6.8075138121546965,0.10227254158840862
6.840883977900553,0.09987554832755573
6.874254143646409,0.1001457661667668
6.907624309392266,0.11223673395464591
6.9409944751381225,0.1386993587335438
6.974364640883978,0.17375688935971548
7.007734806629835,0.20582458157542943
7.041104972375691,0.22303116923525362
7.074475138121548,0.21902145031632092
7.107845303867403,0.19617739934898512
7.14121546961326,0.16462681520675287
7.174585635359117,0.1374344175379622
7.207955801104973,0.12423954263942609
7.241325966850829,0.12640620724538304
7.274696132596685,0.13606816151981152
7.308066298342542,0.1396068407581602
7.341436464088399,0.12399856849532122
7.3748066298342545,0.08311333237081528
7.408176795580111,0.02105222515725198
7.441546961325967,-0.04905045120544552
7.474917127071824,-0.11026980802306034
7.5082872928176805,-0.14882745344195114
7.541657458563536,-0.15958718608223543
7.575027624309393,-0.14766222095491688
7.608397790055249,-0.12553240284479483
7.641767955801106,-0.1071499304215807
7.675138121546962,-0.10179365787908429
7.708508287292818,-0.1103566732684055
7.741878453038675,-0.1255031413419572
7.775248618784531,-0.13541572281646444
7.808618784530387,-0.12943083066582803
7.841988950276244,-0.10318799366567279
7.8753591160221,-0.061131968079673596
7.908729281767957,-0.015215788490428364
7.9420994475138125,0.019808993419454603
7.975469613259669,0.03257870924642986
8.008839779005525,0.019997098854107713
8.042209944751383,-0.011538956596107717
8.075580110497238,-0.04920723055542535
8.108950276243094,-0.07958173170587728
8.14232044198895,-0.09423709274644175
8.175690607734808,-0.09236737895201778
8.209060773480664,-0.0794096200525698
8.24243093922652,-0.06291888261903075
8.275801104972377,-0.04831502617925718
8.309171270718233,-0.036819207011844955
8.342541436464089,-0.026247308408442263
8.375911602209946,-0.013520659097236088
8.409281767955802,0.003020753856901747
8.442651933701658,0.02281564931450774
8.476022099447514,0.043782154356877157
8.509392265193371,0.06353518857475372
8.542762430939227,0.08012430091330822
8.576132596685083,0.09205712452087346
8.60950276243094,0.09815306720310803
8.642872928176796,0.09790556177547444
8.676243093922652,0.09244136984112976
8.709613259668508,0.08537406950758293
8.742983425414366,0.0825446431576396
8.776353591160222,0.09014832283336223
8.809723756906077,0.11178366622667969
8.843093922651935,0.1458456035209723
8.87646408839779,0.18479783633388075
8.909834254143647,0.21704556975055775
8.943204419889504,0.23080787923585463
8.97657458563536,0.2183185870166541
9.009944751381216,0.17850070261419487
9.043314917127072,0.11706629013619639
9.07668508287293,0.04428747251151881
9.110055248618785,-0.028314727396617084
9.143425414364641,-0.09094313445879776
9.176795580110499,-0.13733615580017175
9.210165745856354,-0.16540562298447373
9.24353591160221,-0.17709810888497107
9.276906077348068,-0.177706302112287
9.310276243093924,-0.17447800510595146
9.34364640883978,-0.17435771475544742
9.377016574585635,-0.18127209041285047
9.410386740331493,-0.1941313713247483
9.443756906077349,-0.20691254654874425
9.477127071823205,-0.2113591641743519
9.510497237569062,-0.20129054056410428
9.543867403314918,-0.17623894813224208
9.577237569060774,-0.14211613007340448
9.610607734806631,-0.10810718591784317
9.643977900552487,-0.08124271433508228
9.677348066298343,-0.06174153574011369
9.710718232044199,-0.042121126744172295
9.744088397790057,-0.01111529897977394
9.777458563535912,0.039345261163151624
9.810828729281768,0.10782102523517866
9.844198895027626,0.1814128345636
9.877569060773482,0.2397314151806578
9.910939226519337,0.263261994104323
9.944309392265193,0.24223837822648553
9.97767955801105,0.18175004563653077
10.011049723756907,0.10054906620716585
10.044419889502763,0.023971879171335406
10.07779005524862,-0.025922481969940993
10.111160220994476,-0.038713113763617475
10.144530386740332,-0.018969733140782773
10.17790055248619,0.016627488758616343
10.211270718232045,0.04691951369397842
10.244640883977901,0.05524162962080068
10.278011049723757,0.03597474693753256
10.311381215469615,-0.003811366199275128
10.34475138121547,-0.047889416868037014
10.378121546961326,-0.07774650014150443
10.411491712707184,-0.07985677597956958
10.44486187845304,-0.050595333902703696
10.478232044198895,0.0028004446802789066
10.511602209944753,0.06525821895489126
10.544972375690609,0.11953850655671498
10.578342541436465,0.15236640771144888
10.61171270718232,0.15877549035658922
10.645082872928178,0.1431118670517558
10.678453038674034,0.1164247454621858
10.71182320441989,0.09138653944836135
10.745193370165747,0.07686858360824939
10.778563535911603,0.07440169116812903
10.811933701657459,0.07791238100133234
10.845303867403315,0.07672816371440663
10.878674033149172,0.060514306966877096
10.912044198895028,0.02407971537787853
10.945414364640884,-0.029907104021908253
10.978784530386742,-0.09143083724947808
11.012154696132598,-0.14678654959340046
11.045524861878453,-0.18406147552583532
11.078895027624311,-0.19828063675937663
11.112265193370167,-0.1939686654800662
11.145635359116023,-0.18372521707710146
11.179005524861878,-0.1830121899995626
11.212375690607736,-0.20310983882101358
11.245745856353592,-0.24527499022024457
11.279116022099448,-0.2988682276366533
11.312486187845305,-0.3445718627645393
11.345856353591161,-0.3615153233489972
11.379226519337017,-0.33529835462650825
11.412596685082875,-0.2634936862468555
11.44596685082873,-0.15642741933503929
11.479337016574586,-0.03322579165631032
11.512707182320442,0.08487172089431852
11.5460773480663,0.18108523305150895
11.579447513812156,0.2472587063333838
11.612817679558011,0.2846978999955934
11.646187845303869,0.3020760564643605
11.679558011049725,0.31149663705935543
11.71292817679558,0.32392243539832355
11.746298342541436,0.34508906943073625
11.779668508287294,0.3729529733950729
11.81303867403315,0.39758244223011174
11.846408839779006,0.40392686502910646
11.879779005524863,0.37700082761209175
11.91314917127072,0.30795194680006505
11.946519337016575,0.19876552888708318
11.979889502762433,0.06350163290573295
12.013259668508288,-0.07487723423657787
12.046629834254144,-0.19123157300647875
12.08,-0.26606573617331714
12.113370165745858,-0.29142214810722733
12.146740331491714,-0.27262267395292467
12.18011049723757,-0.22537631056067173
12.213480662983427,-0.16960031692434785
12.246850828729283,-0.12242346031214756
12.280220994475139,-0.0929242229192047
12.313591160220996,-0.08034671997274649
12.346961325966852,-0.07622190560385621
12.380331491712708,-0.06941971489406608
12.413701657458564,-0.05205127446203323
12.447071823204421,-0.023697364025616004
12.480441988950277,0.008042309258052934
12.513812154696133,0.0311852869844953
12.54718232044199,0.035691102256080076
12.580552486187846,0.019405476956793507
12.613922651933702,-0.009621935519990294
12.64729281767956,-0.03610858386054447
12.680662983425416,-0.0447464324327828
12.714033149171271,-0.028167616670112236
12.747403314917127,0.008513451203557572
12.780773480662985,0.04919441008854067
12.81414364640884,0.07383657668755102
12.847513812154697,0.0676564314532307
12.880883977900554,0.027898392933425
12.91425414364641,-0.0350698737008932
12.947624309392266,-0.10259863095856549
12.980994475138122,-0.15578829844407893
13.01436464088398,-0.18261112582070252
13.047734806629835,-0.1809546849941083
13.081104972375691,-0.156929507295913
13.114475138121549,-0.12029789643932765
13.147845303867404,-0.07998202686394132
13.18121546961326,-0.04187227457803769
13.214585635359118,-0.009289820397777307
13.247955801104974,0.015268369001705149
13.28132596685083,0.029051101048372753
13.314696132596685,0.029819601976319263
13.348066298342543,0.018134817799953747
13.381436464088399,-0.000418204360414872
13.414806629834255,-0.01492009888518661
13.448176795580112,-0.011714402990477487
13.481546961325968,0.020600625777095455
13.514917127071824,0.08568211231183119
13.548287292817681,0.17594465024856995
13.581657458563537,0.27304184710730467
13.615027624309393,0.3528423238032409
13.648397790055249,0.39348628321169865
13.681767955801106,0.38350607472426895
13.715138121546962,0.3265260928865006
13.748508287292818,0.24016903558502245
13.781878453038676,0.14920619609578756
13.815248618784532,0.07566259599528553
13.848618784530387,0.030185462717450148
13.881988950276245,0.008591196037362794
13.9153591160221,-0.004821422348063312
13.948729281767957,-0.028794240366799284
13.982099447513813,-0.07554082474157289
14.01546961325967,-0.14462116529320418
14.048839779005526,-0.22298940610543774
14.082209944751382,-0.29083084510417795
14.11558011049724,-0.330061181154223
14.148950276243095,-0.33140310271002643
14.182320441988951,-0.29711959289430606
14.215690607734807,-0.23890842372435636
14.249060773480664,-0.17271001848192227
14.28243093922652,-0.1131363538951644
14.315801104972376,-0.06968282106278151
14.349171270718234,-0.04548603621800174
14.38254143646409,-0.038097958483950735
14.415911602209945,-0.041210040050766984
14.449281767955803,-0.04651380022565448
14.482651933701659,-0.045471466117477835
14.516022099447515,-0.031144666775755264
14.54939226519337,-0.00011993390850469386
14.582762430939228,0.045885366029601825
14.616132596685084,0.09954290419059732
14.64950276243094,0.14928778557772865
14.682872928176797,0.18260522233508586
14.716243093922653,0.19028974480992678
14.749613259668509,0.16996955760122298
14.782983425414367,0.12719858318705396
14.816353591160222,0.07338977932453677
14.849723756906078,0.021408070226907886
14.883093922651934,-0.01907951213505746
14.916464088397792,-0.04421449416208759
14.949834254143648,-0.0553935675966062
14.983204419889503,-0.05630570134405359
15.016574585635361,-0.04973105305337298
15.049944751381217,-0.036254012349388166
15.083314917127073,-0.015561175741333573
15.116685082872928,0.010926287779330959
15.150055248618786,0.0383187055160974
15.183425414364642,0.058987693142117326
15.216795580110498,0.06552488039573943
15.250165745856355,0.05411980470552024
15.283535911602211,0.026336427593275133
15.316906077348067,-0.011532402644235398
15.350276243093925,-0.05075953748881514
15.38364640883978,-0.08257064818552623
15.417016574585636,-0.09953656718491233
15.450386740331492,-0.09603831911073904
15.48375690607735,-0.068695329811568
15.517127071823205,-0.017492482616864275
15.550497237569061,0.05262557221010542
15.583867403314919,0.13091194894512967
15.617237569060775,0.2021222890278577
15.65060773480663,0.2504261171885416
15.683977900552488,0.26478772778520215
15.717348066298344,0.24339580659712726
15.7507182320442,0.1946737347095204
15.784088397790056,0.13385783616341415
15.817458563535913,0.07642597423412652
15.85082872928177,0.03150042712462969
15.884198895027625,-0.0014312944376696488
15.917569060773483,-0.03081016336306826
15.950939226519338,-0.06733361186296716
15.984309392265194,-0.11747007878947839
16.01767955801105,-0.17961554167034888
16.051049723756908,-0.24467303865601484
16.084419889502765,-0.3002681424098227
16.11779005524862,-0.3359431745884636
16.151160220994477,-0.34655065653173317
16.18453038674033,-0.3325599895860833
16.21790055248619,-0.2979714379553773
16.251270718232046,-0.24770424977618474
16.2846408839779,-0.18610001969395493
16.318011049723758,-0.11697360135387608
16.351381215469615,-0.04445081073371977
16.38475138121547,0.026542491957971693
16.418121546961327,0.09075586242705998
16.451491712707185,0.14382465357113497
16.48486187845304,0.18347619164194395
16.518232044198896,0.21006547516376026
16.551602209944754,0.2261963349633962
16.584972375690608,0.23558158993014885
16.618342541436466,0.24149960628040323
16.651712707182323,0.2452871345545703
16.685082872928177,0.24536544383398143
16.718453038674035,0.23727880043621205
16.751823204419892,0.2150016245112976
16.785193370165747,0.17332506486009505
16.818563535911604,0.1106369628496827
16.851933701657458,0.031106048703607208
16.885303867403316,-0.054683393649284574
16.918674033149173,-0.1312385670710339
16.952044198895027,-0.18180805111830797
16.985414364640885,-0.19346199661335753
17.018784530386743,-0.16219085254860816
17.052154696132597,-0.09615898455260502
17.085524861878454,-0.015357069213035568
17.118895027624312,0.053202325437841896
17.152265193370166,0.08397887572235825
