Time (s),Filtered Signal
0.0,0.06544294227901352
0.03337000366703337,-0.09780094060152736
0.06674000733406674,-0.2393345668872641
0.1001100110011001,-0.3448198508677892
0.13348001466813347,-0.4119777128004739
0.16685001833516683,-0.4477675584366656
0.2002200220022002,-0.46068294456051057
0.2335900256692336,-0.45277901228894213
0.26696002933626695,-0.4165103998589491
0.3003300330033003,-0.33907633450517644
0.33370003667033366,-0.21272565005747784
0.36707004033736707,-0.045478968533458744
0.4004400440044004,0.13463564080150164
0.4338100476714338,0.2861358508027503
0.4671800513384672,0.3700131586167432
0.5005500550055005,0.36777070310968246
0.5339200586725339,0.2919127427971158
0.5672900623395672,0.18225322315485798
0.6006600660066006,0.08865227784695251
0.634030069673634,0.04827034337950675
0.6674000733406673,0.06871764013813425
0.7007700770077008,0.1255137236925393
0.7341400806747341,0.17475540651305646
0.7675100843417675,0.17419084906285676
0.8008800880088008,0.10225681825171377
0.8342500916758342,-0.03337732122510807
0.8676200953428675,-0.2003505007991966
0.9009900990099009,-0.355674243549107
0.9343601026769344,-0.46237739623125557
0.9677301063439677,-0.5020849013076943
1.001100110011001,-0.4796548304397645
1.0344701136780343,-0.4192891336467509
1.0678401173450678,-0.3540766251793185
1.1012101210121013,-0.31254299626095056
1.1345801246791345,-0.3066998056993204
1.167950128346168,-0.32610198707142574
1.2013201320132012,-0.34090626511685007
1.2346901356802347,-0.31366668893991495
1.268060139347268,-0.2156380721289791
1.3014301430143014,-0.040717789589176594
1.3348001466813346,0.18939744028740604
1.368170150348368,0.4315730860158835
1.4015401540154016,0.6366476853960398
1.4349101576824348,0.767325341330105
1.4682801613494683,0.8109577685885103
1.5016501650165015,0.7820091933247432
1.535020168683535,0.7135375765707017
1.5683901723505682,0.6416716157849198
1.6017601760176017,0.5899043608959934
1.6351301796846351,0.5599575337158668
1.6685001833516684,0.5330332933926916
1.7018701870187019,0.4806585727520842
1.735240190685735,0.38002227906401354
1.7686101943527686,0.22667817015824498
1.8019801980198018,0.03874034400818056
1.8353502016868353,-0.14932420273940844
1.8687202053538687,-0.3004239309213663
1.902090209020902,-0.3899394283321073
1.9354602126879354,-0.4157278180804741
1.9688302163549687,-0.39910317684692714
2.002200220022002,-0.3767529559478234
2.0355702236890356,-0.3869612437989277
2.0689402273560686,-0.4552203632728769
2.102310231023102,-0.5841090317776291
2.1356802346901356,-0.7506993062729869
2.169050238357169,-0.9124091659445382
2.2024202420242025,-1.0197014332498215
2.2357902456912355,-1.0318277597995147
2.269160249358269,-0.930510196074757
2.3025302530253025,-0.7266740345298736
2.335900256692336,-0.4574144440720571
2.369270260359369,-0.1738739749337232
2.4026402640264024,0.0756383943600152
2.436010267693436,0.26079688682658364
2.4693802713604693,0.37670836909542743
2.502750275027503,0.44087625463212093
2.536120278694536,0.48141263167700454
2.5694902823615693,0.5220646711105622
2.6028602860286028,0.5710037218396546
2.636230289695636,0.6185416060195384
2.6696002933626692,0.6446536924656298
2.7029702970297027,0.63227704679538
2.736340300696736,0.5792167757012238
2.7697103043637696,0.5019537339343165
2.803080308030803,0.428810647663572
2.836450311697836,0.38579608576717145
2.8698203153648696,0.3827542804261422
2.903190319031903,0.407572296977757
2.9365603226989365,0.43185908995447714
2.96993032636597,0.42513929454919697
3.003300330033003,0.3699038215755468
3.0366703337000365,0.2695205821805959
3.07004033736707,0.14508661866264297
3.1034103410341034,0.023319433170930295
3.1367803447011364,-0.07782685806255281
3.17015034836817,-0.15825173630325176
3.2035203520352034,-0.23488191212825407
3.236890355702237,-0.33133854253848255
3.2702603593692703,-0.4631484504274633
3.3036303630363033,-0.625745004296749
3.3370003667033368,-0.7913630565052636
3.3703703703703702,-0.9169665985439991
3.4037403740374037,-0.9602802616460341
3.4371103777044367,-0.8971205161482446
3.47048038137147,-0.732402191499978
3.5038503850385037,-0.49989188767021375
3.537220388705537,-0.25071551600952846
3.5705903923725706,-0.03542940768306175
3.6039603960396036,0.11304251520753988
3.637330399706637,0.18899727966479443
3.6707004033736705,0.2127093756743658
3.704070407040704,0.21929107043393803
3.7374404107077375,0.24234013218851233
3.7708104143747705,0.299036307375855
3.804180418041804,0.38282905162222636
3.8375504217088374,0.4668151831419062
3.870920425375871,0.5163168600961623
3.904290429042904,0.5049902498748844
3.9376604327099374,0.4271487497648948
3.971030436376971,0.3008816758920243
4.004400440044004,0.16104502888886943
4.037770443711038,0.04581824148082138
4.071140447378071,-0.017187965472502894
4.104510451045105,-0.020144875137437984
4.137880454712137,0.02277358651708515
4.171250458379171,0.07977839861535185
4.204620462046204,0.11075339976586365
4.237990465713238,0.07945264509815424
4.271360469380271,-0.033788059583230196
4.304730473047305,-0.22223913069303286
4.338100476714338,-0.450009336698929
4.3714704803813715,-0.659375446239152
4.404840484048405,-0.7877422238977828
4.438210487715438,-0.7890917129620433
4.471580491382471,-0.6515805454643309
4.5049504950495045,-0.40349198073359444
4.538320498716538,-0.10430981112907269
4.571690502383571,0.1758812333388917
4.605060506050605,0.38045144047924356
4.638430509717638,0.4843617910235817
4.671800513384672,0.4998658504666257
4.705170517051705,0.46831997093582806
4.738540520718738,0.4415826095727084
4.771910524385771,0.45985948869836446
4.805280528052805,0.5341759837428434
4.838650531719838,0.6406385496245303
4.872020535386872,0.729893677477159
4.905390539053905,0.7490479960972007
4.938760542720939,0.6669013089212459
4.972130546387972,0.4902617283190912
5.005500550055006,0.26223799865102104
5.038870553722038,0.04227190713691238
5.072240557389072,-0.12222129591062803
5.105610561056105,-0.2175337492679319
5.138980564723139,-0.26695726121626284
5.172350568390172,-0.314294934120214
5.2057205720572055,-0.3973649756864205
5.239090575724239,-0.5265718570559307
5.272460579391272,-0.6800508119845342
5.305830583058306,-0.8169123615745798
5.3392005867253385,-0.8998732938703166
5.372570590392372,-0.9139635285706194
5.405940594059405,-0.8712458928853616
5.439310597726439,-0.8001223386064744
5.472680601393472,-0.7265375438456655
5.506050605060506,-0.6583474299860372
5.539420608727539,-0.5815067950818199
5.572790612394573,-0.46956357215504624
5.606160616061606,-0.30057462304775673
5.63953061972864,-0.07200340182904379
5.672900623395672,0.1940814910630309
5.706270627062706,0.45765611732978057
5.739640630729739,0.6753913668743134
5.773010634396773,0.8160485110597939
5.806380638063806,0.8698447593119268
5.83975064173084,0.8485881808538648
5.873120645397873,0.7779161341633171
5.9064906490649065,0.686222136873421
5.93986065273194,0.5955218580694962
5.9732306563989725,0.5176547544274772
6.006600660066006,0.4560327650845901
6.0399706637330395,0.41030008881775254
6.073340667400073,0.38015391569139567
6.106710671067106,0.3656830344956531
6.14008067473414,0.36422383143339504
6.173450678401173,0.3663694803452771
6.206820682068207,0.35482120570217185
6.24019068573524,0.3085046530111216
6.273560689402273,0.2113274776206143
6.306930693069306,0.061724249030263315
6.34030069673634,-0.12237467039696608
6.373670700403373,-0.307106900819479
6.407040704070407,-0.45473310356451524
6.44041070773744,-0.5394633497935931
6.473780711404474,-0.5595644572347673
6.507150715071507,-0.5392034321737875
6.540520718738541,-0.518027946854969
6.573890722405573,-0.5325022264010463
6.607260726072607,-0.5974361904485168
6.64063072973964,-0.6965967895700595
6.6740007334066735,-0.7873823159215293
6.707370737073707,-0.8180871747274945
6.7407407407407405,-0.7503818637113482
6.774110744407774,-0.5770919351070898
6.807480748074807,-0.3273290614064747
6.840850751741841,-0.05651816089186879
6.8742207554088735,0.17464190075275496
6.907590759075907,0.3235511642350499
6.94096076274294,0.38167718145785456
6.974330766409974,0.37639919542326994
7.007700770077007,0.3578087247495543
7.041070773744041,0.3758188332011518
7.074440777411074,0.45712289093693675
7.107810781078108,0.5918306077864467
7.141180784745141,0.7357203669603363
7.174550788412174,0.8275004780078612
7.207920792079207,0.8140274953304603
7.241290795746241,0.6729137848632908
7.274660799413274,0.4229973109083068
7.308030803080308,0.11838727900792678
7.341400806747341,-0.17106369508290598
7.3747708104143745,-0.3842889765882187
7.408140814081408,-0.48839415415521703
7.4415108177484415,-0.48595255153728883
7.474880821415475,-0.4092639986061296
7.5082508250825075,-0.30602881101334883
7.541620828749541,-0.22300730849756145
7.5749908324165744,-0.1928031642815551
7.608360836083608,-0.22594711416294205
7.641730839750641,-0.30846354589353836
7.675100843417675,-0.4049998333817279
7.708470847084708,-0.4681362778366906
7.741840850751742,-0.45360555471551456
7.775210854418775,-0.33810989056549284
7.808580858085808,-0.13291703208640504
7.841950861752841,0.11449880889124699
7.875320865419875,0.3347877391448706
7.908690869086908,0.4635777121073319
7.942060872753942,0.4699489251219792
7.975430876420975,0.3727504380092452
8.008800880088009,0.23519541245109016
8.042170883755041,0.13811681322277347
8.075540887422076,0.14312174696749547
8.108910891089108,0.2628843326027224
8.142280894756142,0.45340822748934306
8.175650898423175,0.6329589753383483
8.20902090209021,0.7193052998657267
8.242390905757242,0.6675438804210284
8.275760909424275,0.490185870756432
8.309130913091309,0.24999607861378695
8.342500916758341,0.029804953983402206
8.375870920425376,-0.10522569622359167
8.409240924092408,-0.13465926942369863
8.442610927759443,-0.08775152167549473
8.475980931426475,-0.026760201281886286
8.50935093509351,-0.01891785796981985
8.542720938760542,-0.11041761660666527
8.576090942427575,-0.3118180922990974
8.60946094609461,-0.5972133894985296
8.642830949761642,-0.9138911638763448
8.676200953428676,-1.197254268428779
8.709570957095709,-1.386712763154916
8.742940960762743,-1.4397812371923813
8.776310964429776,-1.3421529347854877
8.80968096809681,-1.1112674049732238
8.843050971763843,-0.7912769002723119
8.876420975430875,-0.43950299913902136
8.90979097909791,-0.10809676569481456
8.943160982764942,0.17224880163995074
8.976530986431976,0.3993219218553027
9.009900990099009,0.5933713642979749
9.043270993766043,0.7803091318319727
9.076640997433076,0.9720847993160525
9.11001100110011,1.1543028746996895
9.143381004767143,1.2881789730762851
9.176751008434175,1.3270159068454614
9.21012101210121,1.2399228009648093
9.243491015768242,1.0313353812416288
9.276861019435277,0.7462232678702982
9.31023102310231,0.4571383255024347
9.343601026769344,0.23755709395079136
9.376971030436376,0.1325143930864128
9.41034103410341,0.13935132093127708
9.443711037770443,0.20758355980132756
9.477081041437476,0.25892592348285404
9.51045104510451,0.21973889771117178
9.543821048771543,0.0524624422656662
9.577191052438577,-0.22733395700478273
9.61056105610561,-0.5556494632734479
9.643931059772644,-0.8445145848867577
9.677301063439677,-1.0157970345899259
9.710671067106711,-1.030242967838728
9.744041070773743,-0.9002398710854234
9.777411074440776,-0.682194033768943
9.81078107810781,-0.4530302112237519
9.844151081774843,-0.28127249777017255
9.877521085441877,-0.20416875179491376
9.91089108910891,-0.21857778848920884
9.944261092775944,-0.2871140878843635
9.977631096442977,-0.35528800145942274
10.011001100110011,-0.37224969441907785
10.044371103777044,-0.30783701598031354
10.077741107444076,-0.16112297935382403
10.11111111111111,0.04093314555852182
10.144481114778143,0.25314854794542185
10.177851118445178,0.4266374758791619
10.21122112211221,0.5239556253566131
10.244591125779245,0.5306742363974776
10.277961129446277,0.4599677766928891
10.311331133113312,0.34847965732191305
10.344701136780344,0.24429329890095516
10.378071140447377,0.1906311439582553
10.411441144114411,0.2107450990081968
10.444811147781444,0.299317707362272
10.478181151448478,0.4234416382628926
10.51155115511551,0.5328335021916979
10.544921158782545,0.5758148009672254
10.578291162449577,0.5158851038309527
10.611661166116612,0.3437717002049733
10.645031169783644,0.08135685263897964
10.678401173450677,-0.2237210352560826
10.711771177117711,-0.5113061851596414
10.745141180784744,-0.7259105148514632
10.778511184451778,-0.8324816276174652
10.81188118811881,-0.8255230078498891
10.845251191785845,-0.7283909140364103
10.878621195452878,-0.5830842099565058
10.911991199119912,-0.43439765897901406
10.945361202786945,-0.3143107309604147
10.978731206453979,-0.232095870684249
11.012101210121012,-0.17329202351592463
11.045471213788044,-0.10761895569618388
11.078841217455079,-0.0031477196125980172
11.112211221122111,0.15798083800331392
11.145581224789145,0.36807176251547397
11.178951228456178,0.5919544392566926
11.212321232123212,0.7771948688437079
11.245691235790245,0.8740195270925711
11.27906123945728,0.8571301339200313
11.312431243124312,0.7389396675324094
11.345801246791344,0.5663804601457
11.379171250458379,0.4010427842694947
11.412541254125411,0.2913388403227755
11.445911257792446,0.25045012279790185
11.479281261459478,0.25154080810105156
11.512651265126513,0.2429004168369378
11.546021268793545,0.17518945036143135
11.57939127246058,0.026773747284516654
11.612761276127612,-0.18543025598036944
11.646131279794645,-0.414312918200245
11.67950128346168,-0.6051430813410517
11.712871287128712,-0.7208257651706128
11.746241290795746,-0.7576985942011056
11.779611294462779,-0.744669359033531
11.812981298129813,-0.7263645652499627
11.846351301796846,-0.7382675924764674
11.87972130546388,-0.7855867358457919
11.913091309130913,-0.8362666586373441
11.946461312797945,-0.8326054573942759
11.97983131646498,-0.7177223513147797
12.013201320132012,-0.4659907283122255
12.046571323799046,-0.10356102214532202
12.079941327466079,0.2921103143627213
12.113311331133113,0.6166883961457376
12.146681334800146,0.7796033421028894
12.18005133846718,0.7443637594875788
12.213421342134213,0.5496819687322311
12.246791345801245,0.29909575229398533
12.28016134946828,0.12040805044046263
12.313531353135312,0.11107950914391704
12.346901356802347,0.294100174766921
12.38027136046938,0.6056311820705683
12.413641364136414,0.9214306721128181
12.447011367803446,1.1105046235377036
12.48038137147048,1.0911202921919376
12.513751375137513,0.8633751443690133
12.547121378804546,0.5044285060801883
12.58049138247158,0.1308407750458375
12.613861386138613,-0.1524568186886213
12.647231389805647,-0.29264487483236934
12.68060139347268,-0.3025302426688081
12.713971397139714,-0.24495142622151556
12.747341400806746,-0.19909704482526994
12.78071140447378,-0.22571952126989367
12.814081408140813,-0.34553926234593446
12.847451411807846,-0.5367830807909133
12.88082141547488,-0.7487567864184256
12.914191419141913,-0.9227572330001129
12.947561422808947,-1.011072783110945
12.98093142647598,-0.9882177720972923
13.014301430143014,-0.8532801734876326
13.047671433810047,-0.6258107433927262
13.081041437477081,-0.33884340835094806
13.114411441144114,-0.031773507605691524
13.147781444811146,0.25580613862389445
13.18115144847818,0.489404178973861
13.214521452145213,0.6443795009823731
13.247891455812248,0.7098640099284526
13.28126145947928,0.6907698545829555
13.314631463146315,0.6064824209220409
13.348001466813347,0.48557021475666945
13.381371470480381,0.35754156152128636
13.414741474147414,0.24447053498105034
13.448111477814447,0.15593446128032826
13.481481481481481,0.08942947343086834
13.514851485148514,0.03578317596863881
13.548221488815548,-0.01340344200295868
13.58159149248258,-0.06011088656183779
13.614961496149615,-0.09871065543191558
13.648331499816647,-0.119503353199939
13.681701503483682,-0.11497968101191512
13.715071507150714,-0.0856218896561797
13.748441510817747,-0.04231622085577209
13.781811514484781,-0.003910263742977236
13.815181518151814,0.009428326435438306
13.848551521818848,-0.015588763561303148
13.88192152548588,-0.0791974792258335
13.915291529152915,-0.16732578949260923
13.948661532819948,-0.25600124452080897
13.982031536486982,-0.31961178801851864
14.015401540154015,-0.33958859196642327
14.048771543821047,-0.310194624428603
14.082141547488082,-0.2397017898134825
14.115511551155114,-0.14724568803070312
14.148881554822148,-0.05695892965977257
14.182251558489181,0.00878443874590091
14.215621562156215,0.03559234565897807
14.248991565823248,0.021666390037776272
14.282361569490282,-0.02030610595080613
14.315731573157315,-0.06512480758778377
14.349101576824348,-0.08145941980105935
14.382471580491382,-0.04169136757701485
14.415841584158414,0.06760850462220995
14.449211587825449,0.23853985019690851
14.482581591492481,0.4415162023255314
14.515951595159516,0.6328023309832541
14.549321598826548,0.7678159479300716
14.582691602493583,0.815422895332568
14.616061606160615,0.7677280619075115
14.649431609827648,0.6414998812539353
14.682801613494682,0.4707275863346918
14.716171617161715,0.2934663032084539
14.749541620828749,0.13845868902526642
14.782911624495782,0.016924432941159705
14.816281628162816,-0.07765415924591969
14.849651631829849,-0.16274490496885044
14.883021635496883,-0.2570879878488669
14.916391639163916,-0.37297401906097005
14.94976164283095,-0.5133404438365798
14.983131646497982,-0.6731640440352927
15.016501650165015,-0.8420693558704616
15.04987165383205,-1.0050544158815031
15.083241657499082,-1.1407522049610133
15.116611661166116,-1.2198585248508957
15.149981664833149,-1.2077616595206926
15.183351668500183,-1.0736059454970956
15.216721672167216,-0.8038391061900036
15.25009167583425,-0.4143753920460015
15.283461679501283,0.045447578749857345
15.316831683168315,0.5010278468343754
15.35020168683535,0.8713777643741516
15.383571690502382,1.0924238821385555
15.416941694169417,1.1362820605518258
15.45031169783645,1.0194157101855665
15.483681701503484,0.7966143544229856
15.517051705170516,0.5427876114883825
15.55042170883755,0.32889903789216907
15.583791712504583,0.20049943307236168
15.617161716171616,0.16640718217075715
15.65053171983865,0.2012707149676867
15.683901723505683,0.26037223474377796
15.717271727172717,0.3002371103316639
15.75064173083975,0.2964282314535715
15.784011734506784,0.25130140554590974
15.817381738173816,0.18896304330823524
15.85075174184085,0.14038973189929535
15.884121745507883,0.12615024967269392
15.917491749174916,0.14521640738210845
15.95086175284195,0.17520537617881132
15.984231756508983,0.18348759936535652
16.017601760176017,0.14305082984395592
16.05097176384305,0.04490301482254935
16.084341767510082,-0.09881618623074206
16.117711771177117,-0.26157537135114345
16.15108177484415,-0.4145922555445989
16.184451778511182,-0.5378220455807898
16.217821782178216,-0.6247504884932603
16.25119178584525,-0.6797603331479314
16.284561789512285,-0.7106718817169309
16.317931793179316,-0.7210135906280705
16.35130179684635,-0.7060430371848057
16.384671800513384,-0.6542504034688468
16.41804180418042,-0.5534514741994756
16.45141180784745,-0.39878618056932147
16.484781811514484,-0.1993728923039111
16.51815181518152,0.019220397760083285
16.55152181884855,0.21849095671799215
16.584891822515583,0.35673217551761516
16.618261826182618,0.4030570136638332
16.651631829849652,0.35137154691422634
16.685001833516683,0.22829387105870017
16.718371837183717,0.0895613270245519
16.75174184085075,0.0031383866085694977
16.785111844517782,0.023302717649075565
16.818481848184817,0.16578352140810215
16.85185185185185,0.39602056284407633
16.885221855518886,0.6385023281372152
16.918591859185916,0.8057662907242973
16.95196186285295,0.8352857518069258
16.985331866519985,0.7169174457409704
17.01870187018702,0.49677435396198755
17.05207187385405,0.25460185629877663
17.085441877521085,0.06540426533191579
17.11881188118812,-0.035330704279429644
17.15218188485515,-0.06501456799007208
17.185551888522184,-0.0793562402567014
17.21892189218922,-0.13806230246484913
17.252291895856253,-0.26955201805894297
17.285661899523284,-0.4536518400115
17.319031903190318,-0.6311920130617039
17.352401906857352,-0.7346648517766963
