Frequency (Hz),Amplitude
0.0,0.6193573462034789
0.019801980198019802,0.6342398026049669
0.039603960396039604,0.6768726828871001
0.0594059405940594,0.7423431658335207
0.07920792079207921,0.8250122675229747
0.09900990099009901,0.9199799226972489
0.1188118811881188,1.0235114151505713
0.13861386138613863,1.1329131592249846
0.15841584158415842,1.246268758350803
0.1782178217821782,1.3622028441865188
0.19801980198019803,1.479708134485496
0.21782178217821782,1.598027616521012
0.2376237623762376,1.7165762032353138
0.25742574257425743,1.8348887717387525
0.27722772277227725,1.9525854342939661
0.297029702970297,2.069348035933478
0.31683168316831684,2.1849040186950655
0.33663366336633666,2.2990151775783954
0.3564356435643564,2.4114697107827467
0.37623762376237624,2.522076521536839
0.39603960396039606,2.6306610817849068
0.4158415841584158,2.7370623949380435
0.43564356435643564,2.8411307426804404
0.45544554455445546,2.9427259983621865
0.4752475247524752,3.0417163547867427
0.495049504950495,3.137977358482559
0.5148514851485149,3.2313911729885114
0.5346534653465347,3.321846014875723
0.5544554455445545,3.4092357211644195
0.5742574257425742,3.493459417443849
0.594059405940594,3.5744212636803314
0.613861386138614,3.6520302602914163
0.6336633663366337,3.7262001011795345
0.6534653465346534,3.7968490634752934
0.6732673267326733,3.8638999260321247
0.6930693069306931,3.927279910446337
0.7128712871287128,3.9869206396971797
0.7326732673267327,4.0427581105167105
0.7524752475247525,4.094732676384684
0.7722772277227723,4.142789038657506
0.7920792079207921,4.1868762438217
0.8118811881188118,4.226947685244717
0.8316831683168316,4.262961108099993
0.8514851485148516,4.294878616389112
0.8712871287128713,4.322666681181789
0.891089108910891,4.346296149358091
0.9108910891089109,4.3657422522715725
0.9306930693069307,4.380984613865013
0.9504950495049505,4.3920072578663705
0.9702970297029703,4.398798613775106
0.99009900990099,4.4013515214219145
1.00990099009901,4.399663233950989
1.0297029702970297,4.393735419133846
1.0495049504950495,4.383574158982102
1.0693069306930694,4.369189947683316
1.0891089108910892,4.350597687940865
1.108910891089109,4.327816685859918
1.1287128712871286,4.300870644585391
1.1485148514851484,4.269787656970057
1.1683168316831685,4.234600197631694
1.188118811881188,4.195345114852059
1.2079207920792079,4.15206362288027
1.227722772277228,4.104801295334218
1.2475247524752475,4.053608060552104
1.2673267326732673,3.9985381999385132
1.2871287128712872,3.939650350587019
1.3069306930693068,3.8770075137555065
1.3267326732673268,3.810677071139352
1.3465346534653466,3.7407308113517472
1.3663366336633662,3.667244969611169
1.3861386138613863,3.59030028439123
1.405940594059406,3.509982075762546
1.4257425742574257,3.426380351422314
1.4455445544554455,3.3395899480652664
1.4653465346534653,3.249710717939883
1.4851485148514851,3.156847773350002
1.504950495049505,3.0611118057820685
1.5247524752475248,2.962619501655251
1.5445544554455446,2.8614940839770755
1.5643564356435644,2.757866019271473
1.5841584158415842,2.651873943260472
1.6039603960396038,2.5436658787614483
1.6237623762376237,2.4334008478923272
1.6435643564356437,2.321251022220951
1.6633663366336633,2.207404615573096
1.683168316831683,2.0920698152332062
1.7029702970297032,1.975480184780301
1.7227722772277227,1.8579021823784991
1.7425742574257426,1.7396457649559844
1.7623762376237624,1.6210795608518933
1.782178217821782,1.5026529022955823
1.801980198019802,1.3849282858154928
1.8217821782178218,1.2686298134003735
1.8415841584158414,1.154716108918552
1.8613861386138615,1.0444900276049947
1.881188118811881,0.9397605373562756
1.900990099009901,0.8430674030305293
1.920792079207921,0.7579450061954371
1.9405940594059405,0.689089895897413
1.9603960396039604,0.6420689217447737
1.98019801980198,0.622057105695191
2.0,0.6317100118225017
2.01980198019802,0.6697149042892688
2.0396039603960396,0.7315379936197131
2.0594059405940595,0.8115491695150702
2.0792079207920793,0.9046718138382573
2.099009900990099,1.0069669376683588
2.118811881188119,1.1155729514247326
2.1386138613861387,1.2284512074331835
2.1584158415841586,1.3441413640066662
2.1782178217821784,1.4615777486111963
2.1980198019801978,1.5799630147338986
2.217821782178218,1.698683834953891
2.237623762376238,1.817254961075923
2.257425742574257,1.9352818774989629
2.2772277227722775,2.0524355740734492
2.297029702970297,2.1684352637433975
2.3168316831683167,2.2830363667128974
2.336633663366337,2.3960220338628258
2.3564356435643563,2.507197083758095
2.376237623762376,2.616383610082757
2.3960396039603964,2.723417761929572
2.4158415841584158,2.828147359000723
2.4356435643564356,2.93043010892952
2.455445544554456,3.0301322641551907
2.4752475247524752,3.1271276033209645
2.495049504950495,3.221296654776911
2.514851485148515,3.3125261024283854
2.5346534653465347,3.4007083301098997
2.5544554455445545,3.4857410720076327
2.5742574257425743,3.5675271448165535
2.594059405940594,3.6459742432552162
2.6138613861386135,3.720994784922646
2.633663366336634,3.7925057937161974
2.6534653465346536,3.860428813450622
2.673267326732673,3.924689845146271
2.6930693069306932,3.9852193028459353
2.712871287128713,4.0419519838877935
2.7326732673267324,4.09482705038783
2.7524752475247527,4.143788019328682
2.7722772277227725,4.1887827591573075
2.792079207920792,4.229763491193411
2.811881188118812,4.266686794469313
2.8316831683168315,4.299513612877873
2.8514851485148514,4.328209263712295
2.8712871287128716,4.352743446851371
2.891089108910891,4.373090253983568
2.910891089108911,4.389228177380554
2.9306930693069306,4.401140117829783
2.9504950495049505,4.408813391421251
2.9702970297029703,4.412239734958386
2.99009900990099,4.411415309830427
3.00990099009901,4.406340704245371
3.0297029702970297,4.39702093378152
3.0495049504950495,4.383465440272689
3.0693069306930694,4.365688089100405
3.089108910891089,4.343707165026174
3.108910891089109,4.317545366761983
3.128712871287129,4.287229800547988
3.148514851485148,4.25279197308701
3.1683168316831685,4.214267784277593
3.1881188118811883,4.171697520296119
3.2079207920792077,4.125125847707132
3.227722772277228,4.074601809436206
3.2475247524752473,4.020178823628734
3.267326732673267,3.9619146866497696
3.2871287128712874,3.8998715817681275
3.3069306930693068,3.8341160954269697
3.3267326732673266,3.764719243455947
3.346534653465347,3.6917565101540553
3.366336633663366,3.615307903905883
3.386138613861386,3.5354580339390895
3.4059405940594063,3.4522962140563784
3.4257425742574257,3.3659166007784376
3.4455445544554455,3.2764183754474296
3.4653465346534653,3.183905982650262
3.485148514851485,3.0884894410894845
3.504950495049505,2.9902847481319785
3.5247524752475248,2.889414406240514
3.5445544554455446,2.7860081091273403
3.564356435643564,2.68020363891893
3.5841584158415842,2.5721480446127023
3.603960396039604,2.4619991992439747
3.6237623762376234,2.349927872442134
3.6435643564356437,2.2361205125944195
3.6633663366336635,2.120783018292462
3.683168316831683,2.0041459073833474
3.702970297029703,1.886471488218163
3.722772277227723,1.7680639409508334
3.7425742574257423,1.6492836904549768
3.762376237623762,1.5305681978853942
3.7821782178217824,1.4124624715136378
3.801980198019802,1.2956644206885395
3.8217821782178216,1.1810928912322178
3.841584158415842,1.0699898200678324
3.8613861386138613,0.9640711607101031
3.881188118811881,0.8657383501027882
3.9009900990099013,0.7783350068559057
3.9207920792079207,0.7063402364441962
3.9405940594059405,0.6551851938299574
3.96039603960396,0.6301934228306537
3.98019801980198,0.6345726855103692
4.0,0.6677376070779025
4.01980198019802,0.7256434936872372
4.03960396039604,0.8027650298753658
4.0594059405940595,0.893891068484548
4.079207920792079,0.9948822843169727
4.099009900990099,1.1026974807639522
4.118811881188119,1.2151610530268693
4.138613861386139,1.3307145007949128
4.158415841584159,1.448223154721439
4.178217821782178,1.566841126267305
4.198019801980198,1.685920558222229
4.217821782178218,1.8049512409244044
4.237623762376238,1.923520274384216
4.257425742574258,2.0412848362007225
4.2772277227722775,2.157953547881615
4.297029702970297,2.2732735387491014
4.316831683168317,2.38702133471274
4.336633663366336,2.4989963516833504
4.356435643564357,2.6090161887357026
4.376237623762377,2.7169131828008766
4.3960396039603955,2.822531859884304
4.415841584158416,2.9257270317816984
4.435643564356436,3.0263623632778236
4.455445544554455,3.124309286194942
4.475247524752476,3.219446171852339
4.4950495049504955,3.311657697914269
4.514851485148514,3.400834362752004
4.534653465346535,3.486872112630919
4.554455445544555,3.5696720557895434
4.574257425742574,3.6491402438366944
4.594059405940594,3.725187505557411
4.613861386138614,3.7977293216741126
4.633663366336633,3.8666857316917653
4.653465346534653,3.9319812659035716
4.673267326732674,3.993544897114474
4.693069306930693,4.051310007774752
4.712871287128713,4.105214369092928
4.732673267326733,4.155200129379628
4.752475247524752,4.201213809409325
4.772277227722772,4.243206303009657
4.792079207920793,4.281132881424879
4.811881188118812,4.314953200269784
4.8316831683168315,4.344631308109245
4.851485148514852,4.3701356558767355
4.871287128712871,4.391439106492348
4.891089108910891,4.4085189441634345
4.910891089108912,4.421356882954906
4.930693069306931,4.429939074305063
4.9504950495049505,4.434256113240909
4.97029702970297,4.434303043116586
4.99009900990099,4.430079358762448
5.00990099009901,4.421589007992393
5.02970297029703,4.408840391476245
5.0495049504950495,4.391846361042192
5.069306930693069,4.370624216535716
5.089108910891089,4.3451957014266025
5.108910891089109,4.315586997426965
5.128712871287129,4.281828718463766
5.148514851485149,4.24395590444169
5.1683168316831685,4.202008015340123
5.188118811881188,4.156028926316042
5.207920792079208,4.106066924638658
5.227722772277227,4.052174709468551
5.247524752475248,3.9944093957234172
5.267326732673268,3.9328325235566273
5.2871287128712865,3.8675100753288736
5.306930693069307,3.7985125023986126
5.326732673267327,3.7259147646211863
5.346534653465346,3.6497963861662464
5.366336633663367,3.570241532188605
5.3861386138613865,3.4873391120863806
5.405940594059405,3.401182916644924
5.425742574257426,3.3118717984242902
5.445544554455446,3.2195099074801843
5.465346534653465,3.124206998165798
5.485148514851486,3.0260788277025275
5.504950495049505,2.9252476739458904
5.524752475247524,2.821843009056379
5.544554455445545,2.7160023787103476
5.564356435643565,2.607872554684189
5.584158415841584,2.4976110545663532
5.603960396039604,2.385388159726621
5.623762376237624,2.271389617247166
5.643564356435643,2.155820292254395
5.663366336633663,2.0389091581109073
5.683168316831684,1.9209161957186387
5.702970297029703,1.8021420557745937
5.7227722772277225,1.6829417769770971
5.742574257425743,1.5637445406106032
5.762376237623762,1.4450825186660832
5.782178217821782,1.3276335383754936
5.801980198019803,1.2122847626211688
5.821782178217822,1.1002278954017433
5.841584158415841,0.9930995470444189
5.861386138613861,0.8931786558175158
5.881188118811881,0.8036312506286672
5.900990099009901,0.7287154077325398
5.920792079207921,0.6736804766308879
5.9405940594059405,0.6438956510968014
5.96039603960396,0.6430136306541566
5.98019801980198,0.6711647623774861
6.0,0.7248866023855582
6.01980198019802,0.7988645920260614
6.03960396039604,0.8878111905361604
6.0594059405940595,0.9874008890345748
6.079207920792079,1.09440543385446
6.099009900990099,1.2064984002666124
6.118811881188119,1.322009450307874
6.138613861386139,1.439723438412111
6.158415841584159,1.558736853965342
6.178217821782178,1.678360270588413
6.198019801980198,1.79805307184895
6.217821782178218,1.9173797330972016
6.237623762376237,2.0359802808423177
6.257425742574258,2.1535500808564105
6.2772277227722775,2.269825815009846
6.297029702970296,2.3845756132155
6.316831683168317,2.497592013502523
6.336633663366337,2.608686874578753
6.356435643564356,2.717687655519055
6.376237623762377,2.8244346658792896
6.396039603960396,2.9287790136679055
6.415841584158415,3.0305810613521005
6.435643564356436,3.1297092559646904
6.455445544554456,3.2260392376226936
6.475247524752475,3.319453157273492
6.495049504950495,3.4098391530780727
6.514851485148515,3.497090948038433
6.534653465346534,3.5811075409486075
6.554455445544554,3.6617929696197398
6.574257425742575,3.7390561303647742
6.594059405940594,3.812810641453278
6.6138613861386135,3.8829747410283857
6.633663366336634,3.949471212072679
6.653465346534653,4.012227328601282
6.673267326732673,4.071174818478667
6.693069306930694,4.126249839196079
6.712871287128713,4.177392963677503
6.732673267326732,4.224549173754827
6.752475247524753,4.267667859404925
6.772277227722772,4.30670282220075
6.792079207920792,4.341612281716576
6.811881188118813,4.372358883860329
6.8316831683168315,4.398909710295498
6.851485148514851,4.4212362882714435
6.871287128712871,4.439314600310882
6.891089108910891,4.453125093312902
6.910891089108911,4.462652686724031
6.930693069306931,4.467886779511484
6.9504950495049505,4.468821255746055
6.97029702970297,4.465454488668552
6.99009900990099,4.457789343176411
7.00990099009901,4.445833176727746
7.02970297029703,4.429597838720619
7.0495049504950495,4.409099668467863
7.069306930693069,4.384359491954266
7.089108910891089,4.355402617635392
7.108910891089109,4.322258831619076
7.128712871287128,4.284962392663437
7.148514851485149,4.243552027534241
7.1683168316831685,4.198070927392902
7.188118811881187,4.148566746040766
7.207920792079208,4.0950916010323555
7.227722772277228,4.037702078899499
7.247524752475247,3.9764592460113484
7.267326732673268,3.9114286669479847
7.287128712871287,3.842680432708116
7.306930693069306,3.7702892016312872
7.326732673267327,3.69433425662832
7.346534653465347,3.6148995832291484
7.366336633663366,3.5320739741410656
7.3861386138613865,3.4459511675525154
7.405940594059406,3.3566300284432553
7.425742574257425,3.2642147848437277
7.445544554455446,3.1688153345687162
7.465346534653466,3.0705476427776595
7.485148514851485,2.9695342572810546
7.504950495049505,2.8659049775345093
7.524752475247524,2.7597977257865027
7.544554455445544,2.651359686422307
7.564356435643565,2.5407488044950854
7.584158415841584,2.4281357702705635
7.603960396039604,2.3137066687224386
7.623762376237624,2.1976665496566334
7.643564356435643,2.080244288609423
7.663366336633663,1.961699281566003
7.683168316831684,1.8423307808268023
7.702970297029703,1.7224910874180497
7.7227722772277225,1.602604449792435
7.742574257425743,1.4831945048821518
7.762376237623762,1.364924612144974
7.782178217821782,1.2486576684853812
7.801980198019803,1.135544974829523
7.821782178217822,1.027156601447576
7.841584158415841,0.9256645729945964
7.861386138613862,0.8340726202428499
7.881188118811881,0.7564220497590862
7.900990099009901,0.6977503688071043
7.92079207920792,0.6633853985604239
7.9405940594059405,0.6573097355302799
7.96039603960396,0.6803227288713803
7.980198019801979,0.7296110025213791
8.0,0.8001792089363957
8.01980198019802,0.8867369950536084
8.03960396039604,0.9847992185975861
8.05940594059406,1.0909492316182061
8.07920792079208,1.2026978709107943
8.099009900990099,1.3182492631188119
8.118811881188119,1.436295573672518
8.138613861386139,1.5558657040095456
8.158415841584159,1.676220795216359
8.178217821782178,1.7967836790070513
8.198019801980198,1.917091393283262
8.217821782178218,2.036763012782166
8.237623762376238,2.1554776115841494
8.257425742574258,2.2729589672863866
8.277227722772277,2.38896479838382
8.297029702970297,2.503279088941494
8.316831683168317,2.6157065446742207
8.336633663366337,2.726068540873794
8.356435643564357,2.8342001286547442
8.376237623762377,2.939947801704839
8.396039603960396,3.043167816234822
8.415841584158416,3.143724917956545
8.435643564356436,3.2414913717406963
8.455445544554456,3.336346218574734
8.475247524752476,3.4281747047513655
8.495049504950495,3.5168678426225353
8.514851485148515,3.6023220725844447
8.534653465346535,3.6844390034462453
8.554455445544555,3.7631252138167577
8.574257425742575,3.8382921011955475
8.594059405940595,3.9098557684773407
8.613861386138613,3.9777369398535543
8.633663366336634,4.041860899820971
8.653465346534654,4.102157450328167
8.673267326732672,4.158560882108491
8.693069306930694,4.211009957039341
8.712871287128714,4.259447898986529
8.732673267326732,4.3038223910806
8.752475247524753,4.344085577759757
8.772277227722773,4.380194070224232
8.792079207920791,4.4121089541975955
8.811881188118813,4.4397957990942
8.831683168316832,4.463224667859662
8.85148514851485,4.482370126890395
8.871287128712872,4.497211255555593
8.891089108910892,4.5077316549450535
8.91089108910891,4.513919455553276
8.930693069306932,4.515767323687865
8.950495049504951,4.513272466460165
8.97029702970297,4.506436635282256
8.990099009900991,4.495266127857538
9.00990099009901,4.479771788715179
9.029702970297029,4.459969008403603
9.04950495049505,4.435877721526416
9.06930693069307,4.407522403878942
9.089108910891088,4.374932069026802
9.10891089108911,4.338140264763019
9.12871287128713,4.297185069990649
9.148514851485148,4.252109092708567
9.16831683168317,4.202959469934159
9.188118811881187,4.149787870585964
9.207920792079207,4.092650502580412
9.227722772277229,4.03160812568215
9.247524752475247,3.9667260720021447
9.267326732673267,3.898074276482336
9.287128712871288,3.8257273202669038
9.306930693069306,3.7497644905739875
9.326732673267326,3.6702698615962954
9.346534653465348,3.5873324021389514
9.366336633663366,3.501046117237816
9.386138613861386,3.4115102330123475
9.405940594059407,3.3188294366644153
9.425742574257425,3.2231141870741706
9.445544554455445,3.124481116202683
9.465346534653467,3.0230535479656684
9.485148514851485,2.9189621700840838
9.504950495049505,2.8123459066510206
9.524752475247526,2.703353056261187
9.544554455445544,2.5921427847382246
9.564356435643564,2.4788870960927087
9.584158415841586,2.3637734554215237
9.603960396039604,2.247008310832589
9.623762376237623,2.1288218703080797
9.643564356435645,2.009474652786703
9.663366336633663,1.8892665807340066
9.683168316831683,1.7685497614544337
9.702970297029704,1.6477466900620403
9.722772277227723,1.5273765090361087
9.742574257425742,1.408093329966652
9.762376237623764,1.2907426249763105
9.782178217821782,1.1764443340050739
9.801980198019802,1.0667138601106252
9.821782178217823,0.9636312362530512
9.841584158415841,0.8700540971028968
9.861386138613861,0.789816689813745
9.881188118811881,0.7277282617182741
9.900990099009901,0.6890063899937191
9.92079207920792,0.6778507784345402
9.94059405940594,0.6956548199209533
9.96039603960396,0.7402886387317023
9.98019801980198,0.8071780508297428
10.0,0.8911160581438804
10.01980198019802,0.9874982049302874
10.03960396039604,1.0927262121665207
10.05940594059406,1.2041395072529109
10.07920792079208,1.3198035866688982
10.099009900990099,1.4383051893524992
10.118811881188119,1.5585947812774918
10.138613861386139,1.679875301498794
10.158415841584159,1.8015260750762752
10.178217821782178,1.9230512058085196
10.198019801980198,2.0440444519195804
10.217821782178218,2.1641650982968286
10.237623762376238,2.283121183632401
10.257425742574258,2.400657688725383
10.277227722772277,2.516548109801698
10.297029702970297,2.630588371132442
10.316831683168317,2.7425923757263053
10.336633663366337,2.852388718145294
10.356435643564357,2.9598182322654414
10.376237623762377,3.0647321461818033
10.396039603960396,3.1669906836461985
10.415841584158416,3.2664619974128652
10.435643564356436,3.3630213517258265
10.455445544554454,3.4565504935151172
10.475247524752476,3.546937167704619
10.495049504950495,3.634074743386367
10.514851485148514,3.7178619258398844
10.534653465346535,3.7982025353924955
10.554455445544555,3.8750053385618153
10.574257425742573,3.9481839202357443
10.594059405940595,4.017656588137301
10.613861386138614,4.083346302711803
10.633663366336632,4.145180627018691
10.653465346534654,4.203091692323188
10.673267326732674,4.2570161759473875
10.693069306930692,4.306895288615604
10.712871287128714,4.35267476906151
10.732673267326733,4.394304884086765
10.752475247524751,4.4317404325987155
10.772277227722773,4.464940752427077
