Frequency (Hz),Amplitude
0.0,2.023304440007667
0.020066889632107024,2.0232303613105143
0.04013377926421405,2.02300836742995
0.060200668896321065,2.0226391843916267
0.0802675585284281,2.0221240202144624
0.10033444816053512,2.021464561873423
0.12040133779264213,2.0206629710446267
0.14046822742474915,2.019721878630035
0.1605351170568562,2.0186443780586445
0.1806020066889632,2.017434017360645
0.20066889632107024,2.016094790010898
0.22073578595317725,2.0146311245383055
0.24080267558528426,2.013047872898096
0.2608695652173913,2.0113502976047344
0.2809364548494983,2.0095440576245043
0.3010033444816054,2.00763519302829
0.3210702341137124,2.0056301084071366
0.34113712374581934,2.0035355550557687
0.3612040133779264,2.001358611932168
0.3812709030100334,1.9991066654049756
0.4013377926421405,1.996787387804537
0.42140468227424743,1.9944087147981788
0.4414715719063545,1.9919788216154604
0.4615384615384615,1.9895060981550925
0.4816053511705685,1.9869991230115494
0.5016722408026756,1.9844666364664085
0.5217391304347826,1.9819175124968134
0.5418060200668896,1.9793607298615281
0.5618729096989966,1.9768053423332936
0.5819397993311036,1.9742604481549506
0.6020066889632107,1.971735158805727
0.6220735785953176,1.9692385671733006
0.6421404682274248,1.9667797152363447
0.6622073578595318,1.9643675613715277
0.6822742474916387,1.9620109474078402
0.7023411371237458,1.9597185655597593
0.7224080267558528,1.9574989253789374
0.7424749163879598,1.9553603208715924
0.7625418060200668,1.9533107979355437
0.7826086956521738,1.9513581222765188
0.802675585284281,1.9495097479680699
0.8227424749163879,1.9477727868228272
0.8428093645484949,1.9461539787447226
0.862876254180602,1.944659663232385
0.882943143812709,1.9432957522026366
0.903010033444816,1.9420677043002224
0.923076923076923,1.9409805008551808
0.9431438127090299,1.940038623642933
0.963210702341137,1.939246034593813
0.983277591973244,1.938606157588912
1.0033444816053512,1.9381218624674195
1.0234113712374582,1.937795451357394
1.0434782608695652,1.9376286474273157
1.0635451505016722,1.9376225861398095
1.0836120401337792,1.937777809072
1.1036789297658862,1.938094260349055
1.1237458193979932,1.9385712857191144
1.1438127090301002,1.9392076342789626
1.1638795986622072,1.9400014628408304
1.1839464882943145,1.9409503429121393
1.2040133779264215,1.9420512702414794
1.2240802675585283,1.943300676866526
1.2441471571906353,1.9446944455829018
1.2642140468227423,1.9462279267371507
1.2842809364548495,1.9478959572328163
1.3043478260869565,1.9496928816254708
1.3244147157190636,1.951612575171485
1.3444816053511706,1.953648468685303
1.3645484949832773,1.9557935750523894
1.3846153846153846,1.9580405172386257
1.4046822742474916,1.9603815576325856
1.4247491638795986,1.9628086285544084
1.4448160535117056,1.9653133637640734
1.4648829431438126,1.9678871308021826
1.4849498327759196,1.9705210639986364
1.5050167224080266,1.9732060979877621
1.5250836120401337,1.9759330015730634
1.5451505016722407,1.9786924117903693
1.5652173913043477,1.981474868024627
1.5852842809364547,1.9842708460428427
1.605351170568562,1.9870707918134844
1.625418060200669,1.989865154990848
1.6454849498327757,1.992644421951536
1.6655518394648827,1.9953991482786964
1.6856187290969897,1.9981199905985043
1.705685618729097,2.0007977376818915
1.725752508361204,2.003423340732881
1.745819397993311,2.005987942793085
1.765886287625418,2.008482907199532
1.7859531772575248,2.0108998450404
1.806020066889632,2.013230641559981
1.826086956521739,2.0154674814705436
1.846153846153846,2.0176028731345164
1.866220735785953,2.0196296715855473
1.8862876254180598,2.02154110036172
1.9063545150501673,2.0233307721281473
1.926421404682274,2.0249927080697256
1.9464882943143813,2.0265213560377235
1.966555183946488,2.027911607436296
1.9866220735785953,2.029158812836942
2.0066889632107023,2.030258796310306
2.026755852842809,2.031207868465787
2.0468227424749164,2.03200283818987
2.0668896321070234,2.0326410230744885
2.0869565217391304,2.033120258526416
2.1070234113712374,2.033438905548426
2.1270903010033444,2.03359585718222
2.1471571906354514,2.033590543602327
2.1672240802675584,2.0334229358490963
2.1872909698996654,2.03309354818789
2.2073578595317724,2.0326034390802468
2.2274247491638794,2.0319542107517954
2.2474916387959865,2.0311480073403034
2.267558528428094,2.0301875116063783
2.2876254180602005,2.02907594018828
2.3076923076923075,2.0278170373816167
2.3277591973244145,2.026415067424241
2.3478260869565215,2.024874805266401
2.367892976588629,2.0232015258065243
2.3879598662207355,2.021400991573533
2.408026755852843,2.019479438837743
2.4280936454849495,2.017443562134086
2.4481605351170566,2.01530049718361
2.468227424749164,2.0130578022021783
2.4882943143812706,2.01072343758894
2.508361204013378,2.0083057439915764
2.5284280936454846,2.0058134187504812
2.548494983277592,2.0032554907302957
2.568561872909699,2.000641293553991
2.5886287625418056,1.9979804372627163
2.608695652173913,1.995282778433351
2.6287625418060196,1.9925583887954352
2.648829431438127,1.9898175223996304
2.668896321070234,1.9870705814014404
2.688963210702341,1.984328080535897
2.709030100334448,1.9816006103719825
2.7290969899665547,1.9788987994488936
2.749163879598662,1.9762332754102578
2.769230769230769,1.9736146252665665
2.789297658862876,1.971053354930473
2.809364548494983,1.9685598481838749
2.82943143812709,1.9661443252496689
2.849498327759197,1.963816801154418
2.869565217391304,1.9615870440809933
2.8896321070234112,1.9594645339216177
2.9096989966555182,1.9574584212521795
2.9297658862876252,1.9555774869572309
2.9498327759197323,1.953830102741954
2.9698996655518393,1.9522241927720891
2.9899665551839463,1.950767196685143
3.0100334448160533,1.9494660342161738
3.0301003344481603,1.9483270716785397
3.0501672240802673,1.9473560905344536
3.0702341137123748,1.9465582582817642
3.0903010033444813,1.9459381018720368
3.1103678929765888,1.9454994838609074
3.1304347826086953,1.9452455814748661
3.1505016722408024,1.9451788687592901
3.1705685618729094,1.945301101950812
3.1906354515050164,1.9456133081934355
3.210702341137124,1.9461157776924385
3.2307692307692304,1.9468080593732213
3.250836120401338,1.9476889600846874
3.270903010033445,1.9487565473584445
3.2909698996655514,1.9500081557068274
3.311036789297659,1.9514403964148006
3.3311036789297654,1.9530491707536501
3.351170568561873,1.9548296865183235
3.3712374581939795,1.956776477765915
3.391304347826087,1.9588834276102207
3.411371237458194,1.961143793906948
3.4314381270903005,1.9635502376462024
3.451505016722408,1.9660948538535679
3.471571906354515,1.9687692047884304
3.491638795986622,1.9715643552183897
3.511705685618729,1.9744709095414632
3.531772575250836,1.9774790505235507
3.551839464882943,1.9805785794168445
3.5719063545150496,1.9837589572256584
3.591973244147157,1.987009346889352
3.612040133779264,1.9903186561570725
3.632107023411371,1.9936755809362285
3.652173913043478,1.9970686489052254
3.672240802675585,2.000486263191048
3.692307692307692,2.0039167459233957
3.712374581939799,2.0073483814890882
3.732441471571906,2.010769459322923
3.752508361204013,2.014168316084204
3.7725752508361197,2.0175333770810573
3.7926421404682276,2.0208531968177548
3.8127090301003346,2.0241164985528597
3.832775919732441,2.0273122127684515
3.852842809364548,2.030429514462348
3.872909698996655,2.0334578591864805
3.8929765886287626,2.036387017764846
3.9130434782608696,2.039207109634196
3.933110367892976,2.041908634759161
3.953177257525083,2.0444825040815218
3.9732441471571907,2.0469200684701505
3.9933110367892977,2.049213146144223
4.013377926421405,2.0513540485474193
4.033444816053511,2.0533356046551425
4.053511705685618,2.0551511837000604
4.073578595317726,2.0567947163041547
4.093645484949833,2.058260714006993
4.113712374581939,2.0595442871814096
4.133779264214047,2.0606411613280144
4.153846153846153,2.0615476917400124
4.173913043478261,2.0622608765290806
4.193979933110368,2.062778368001925
4.214046822742475,2.0630984823756244
4.234113712374581,2.0632202078178383
4.254180602006689,2.063143210795961
4.274247491638796,2.062867840716508
4.294314381270903,2.062395132833877
4.314381270903009,2.06172680940445
4.334448160535117,2.060865279059698
4.354515050167224,2.0598136343690165
4.374581939799331,2.058575647560619
4.394648829431437,2.057155764366518
4.414715719063545,2.055559095955541
4.434782608695651,2.0537914089168168
4.454849498327759,2.0518591132549715
4.474916387959866,2.049769248357758
4.494983277591973,2.0475294668970325
4.5150501672240795,2.0451480166248683
4.535117056856188,2.0426337200284888
4.555183946488294,2.0399959518105315
4.575250836120401,2.0372446141650835
4.595317725752508,2.0343901098252117
4.615384615384615,2.0314433128640594
4.635451505016722,2.028415537239568
4.655518394648829,2.0253185030823286
4.6755852842809364,2.022164300736858
4.695652173913043,2.0189653525793374
4.71571906354515,2.0157343726488
4.735785953177258,2.012484324144841
4.7558528428093645,2.0092283748619812
4.775919732441471,2.0059798506500357
4.795986622073578,2.002752187009904
4.816053511705686,1.9995588789559986
4.8361204013377925,1.9964134292988536
4.856187290969899,1.9933292955252906
4.8762541806020065,1.9903198354770648
4.896321070234113,1.9873982520532265
4.916387959866221,1.984577537185342
4.936454849498328,1.9818704153577307
4.956521739130435,1.9792892869671659
4.976588628762541,1.9768461718367782
4.996655518394649,1.9745526532173476
5.016722408026756,1.9724198226247236
5.036789297658863,1.9704582258747059
5.056856187290969,1.9686778106855851
5.076923076923077,1.9670878762233472
5.096989966555184,1.9656970249649228
5.117056856187291,1.9645131172504755
5.137123745819398,1.9635432288864227
5.157190635451505,1.9627936121463718
5.177257525083611,1.9622696604977246
5.197324414715719,1.9619758773571518
5.217391304347826,1.9619158491489843
5.237458193979933,1.9620922229068896
5.257525083612039,1.96250668862178
5.277591973244148,1.9631599664980173
5.297658862876254,1.964051799236476
5.317725752508361,1.9651809494176422
5.337792642140468,1.9665452020113592
5.357859531772575,1.9681413719930103
5.377926421404682,1.9699653169996039
5.397993311036789,1.9720119549142767
5.418060200668896,1.9742752862249124
5.438127090301003,1.9767484209625268
5.458193979933109,1.9794236099885618
5.478260869565218,1.982292280367711
5.498327759197324,1.9853450745346484
5.518394648829431,1.9885718929397735
5.538461538461538,1.991961939840431
5.558528428093646,1.9955037718906465
5.578595317725752,1.9991853491737184
5.598662207357859,2.00299408831822
5.618729096989966,2.00691691733864
5.638795986622073,2.010940331846817
5.65886287625418,2.0150504522889485
5.678929765886288,2.0192330818751545
5.698996655518394,2.0234737648834047
5.719063545150501,2.0277578450371196
5.739130434782608,2.032070523674935
5.759197324414716,2.0363969174518655
5.7792642140468224,2.040722115332688
5.799331103678929,2.0450312346605664
5.8193979933110365,2.049309476106094
5.839464882943144,2.0535421773239713
5.8595317725752505,2.0577148651658868
5.879598662207358,2.061813306318686
5.8996655518394645,2.065823556256428
5.919732441471571,2.069732006413028
5.9397993311036785,2.0735254294989875
5.959866220735786,2.077191022901112
5.9799331103678925,2.0807164501175803
5.999999999999999,2.0840898801931584
6.020066889632107,2.087300025129618
6.040133779264214,2.0903361752555645
6.060200668896321,2.0931882325471434
6.080267558528428,2.095846741897209
6.100334448160535,2.0983029203349255
6.120401337792642,2.1005486842011036
6.1404682274247495,2.102576674286482
6.160535117056856,2.1043802789410715
6.180602006688963,2.1059536551623435
6.200668896321069,2.1072917476690076
6.2207357859531776,2.1083903059649227
6.240802675585284,2.109245899394981
6.260869565217391,2.1098559301912094
6.280936454849498,2.1102186445032993
6.301003344481605,2.1103331414031343
6.321070234113712,2.1101993798479155
6.341137123745819,2.1098181835811176
6.361204013377926,2.1091912439450122
6.381270903010033,2.108321120572775
6.40133779264214,2.1072112399224987
6.421404682274248,2.105865891609789
6.441471571906354,2.1042902224901785
6.461538461538461,2.102490228437399
6.481605351170568,2.10047274375889
6.501672240802676,2.0982454281856184
6.521739130434782,2.095816751369943
6.54180602006689,2.093195974822546
6.561872909698996,2.0903931312178567
6.581939799331103,2.0874190009970097
6.60200668896321,2.084285086198291
6.622073578595318,2.0810035814475816
6.642140468227424,2.0775873420455544
6.662207357859531,2.074049849094563
6.682274247491639,2.0704051716165814
6.702341137123746,2.0666679256241403
6.722408026755852,2.062853230119405
6.742474916387959,2.058976660012269
6.762541806020066,2.0550541959669113
6.782608695652174,2.051102171207573
6.80267558528428,2.047137215338537
6.822742474916388,2.043176195260309
6.842809364548494,2.0392361532938215
6.862876254180601,2.0353342426567687
6.882943143812709,2.0314876604709884
6.903010033444816,2.0277135785163334
6.9230769230769225,2.024029071984857
6.94314381270903,2.0204510465283003
6.963210702341137,2.0169961639315668
6.983277591973244,2.013680766784209
7.0033444816053505,2.010520802560152
7.023411371237458,2.0075317475520573
7.0434782608695645,2.0047285311401017
7.063545150501672,2.002125460904242
7.083612040133779,1.9997361491136951
7.103678929765886,1.997573441146113
7.123745819397993,1.9956493464011418
7.143812709030099,1.993974972277798
7.1638795986622075,1.9925604617818276
7.183946488294314,1.991414935317403
7.204013377926421,1.9905464371968806
7.224080267558528,1.989961887372879
7.2441471571906355,1.9896670388585758
7.264214046822742,1.9896664412557261
7.2842809364548495,1.9899634107554316
7.304347826086956,1.9905600069158336
7.324414715719063,1.9914570164538257
7.34448160535117,1.9926539442168294
7.364548494983278,1.9941490114260985
7.384615384615384,1.9959391612071633
7.404682274247491,1.9980200713470126
7.424749163879598,2.0003861741431095
7.444816053511706,2.0030306831378724
7.464882943143812,2.0059456264652433
7.48494983277592,2.009121886474395
7.505016722408026,2.0125492452410145
7.525083612040134,2.0162164355293255
7.545150501672239,2.020111196729042
7.565217391304348,2.0242203352609205
7.585284280936455,2.0285297889228473
7.605351170568561,2.033024694635219
7.625418060200669,2.0376894590396035
7.645484949832775,2.0425078314075877
7.665551839464882,2.047462978327102
7.685618729096991,2.052537559650088
7.705685618729096,2.0577138052078636
7.725752508361204,2.062973591827419
7.74581939799331,2.0682985202128834
7.765886287625418,2.073669991290002
7.785953177257525,2.079069281647176
7.806020066889631,2.0844776177434605
7.826086956521739,2.0898762485910467
7.846153846153847,2.0952465166566205
7.866220735785952,2.1005699267618274
7.88628762541806,2.1058282127976256
7.906354515050166,2.1110034020996853
7.926421404682274,2.1160778773625117
7.946488294314381,2.121034435997781
7.966555183946488,2.1258563468676193
7.986622073578595,2.1305274043462186
8.006688963210701,2.1350319796828416
8.02675585284281,2.13935506965649
8.046822742474916,2.1434823425267715
8.066889632107022,2.1474001812973875
8.08695652173913,2.1510957243180386
8.107023411371236,2.1545569032575065
8.127090301003344,2.157772478485715
8.147157190635452,2.1607320719052674
8.167224080267557,2.163426197274251
8.187290969899665,2.165846288061307
8.207357859531772,2.1679847228719837
8.227424749163879,2.1698348484818797
8.247491638795987,2.171391000507429
8.267558528428093,2.1726485217395055
8.2876254180602,2.1736037781582556
8.307692307692307,2.17425417264021
8.327759197324415,2.1745981563604815
8.347826086956522,2.1746352378841087
8.367892976588628,2.174365989931444
8.387959866220736,2.173792053792769
8.408026755852843,2.1729161413575895
8.42809364548495,2.1717420347139624
8.448160535117056,2.1702745832632115
8.468227424749163,2.16851969828547
8.488294314381271,2.1664843448816447
8.508361204013378,2.164176531208268
8.528428093645484,2.1616052949126714
8.548494983277592,2.158780686668049
8.568561872909697,2.1557137507007025
8.588628762541806,2.1524165021958455
8.608695652173914,2.1489019014637627
8.628762541806019,2.1451838247451964
8.648829431438127,2.14127703153392
8.668896321070234,2.137197128295741
8.68896321070234,2.1329605284671964
8.709030100334449,2.1285844086239796
8.729096989966555,2.124086660719351
8.749163879598662,2.119485840306474
8.769230769230768,2.1148011106763858
8.789297658862875,2.1100521828651577
8.809364548494983,2.1052592515101956
8.82943143812709,2.1004429265667026
8.849498327759196,2.0956241609311625
8.869565217391303,2.0908241740593114
8.889632107023411,2.086064371711453
8.909698996655518,2.0813662620077693
8.929765886287624,2.076751368030232
8.949832775919733,2.072241137265201
8.96989966555184,2.067856848241119
8.989966555183946,2.063619514777929
9.010033444816054,2.059549788327982
9.030100334448159,2.0556678589507023
9.050167224080267,2.051993355524256
9.070234113712376,2.048545245854537
9.09030100334448,2.045341737394249
9.110367892976589,2.0424001793302766
9.130434782608695,2.0397369668343797
9.150501672240802,2.037367448299259
9.17056856187291,2.0353058363970877
9.190635451505017,2.0335651238000336
9.210702341137123,2.0321570043905703
9.23076923076923,2.031091800763065
9.250836120401337,2.0303783987770707
9.270903010033445,2.030024189866635
9.290969899665551,2.030035021739853
9.311036789297658,2.0304151580195415
9.331103678929765,2.0311672472809246
9.351170568561873,2.0322923018374186
9.37123745819398,2.033789686513339
9.391304347826086,2.035657117524992
9.411371237458194,2.0378906714718323
9.4314381270903,2.040484804320178
9.451505016722408,2.0434323801457173
9.471571906354516,2.046724709290742
9.49163879598662,2.050351595489804
9.511705685618729,2.054301391425548
9.531772575250837,2.058561062096535
9.551839464882942,2.0631162553122957
9.57190635451505,2.0679513785783183
9.591973244147155,2.073049681595857
9.612040133779264,2.078393343578126
9.632107023411372,2.0839635645753543
9.652173913043477,2.0897406600051274
9.672240802675585,2.095704157601193
9.692307692307692,2.10183289602086
9.712374581939798,2.108105124388123
9.732441471571907,2.1144986020939185
9.752508361204013,2.120990698225635
9.77257525083612,2.127558490053069
9.792642140468226,2.1341788600559086
9.812709030100335,2.140828591037426
9.832775919732441,2.1474844589283566
9.852842809364548,2.15412332294364
9.872909698996656,2.16072221281094
9.89297658862876,2.1672584128435037
9.91304347826087,2.1737095426798705
9.933110367892976,2.1800536345589867
9.953177257525082,2.1862692070410046
9.97324414715719,2.19233533512115
9.993311036789297,2.1982317167167684
10.013377926421404,2.203938735535553
10.033444816053512,2.209437520356851
10.053511705685617,2.214710000777036
10.073578595317725,2.219738959485605
10.093645484949834,2.2245080811501703
10.113712374581938,2.2290019979967055
10.133779264214047,2.2332063321765636
10.153846153846153,2.237107735013863
10.17391304347826,2.2406939232265297
10.193979933110368,2.2439537122116113
10.214046822742475,2.246877046480792
10.234113712374581,2.2494550273255847
10.254180602006688,2.2516799377835643
10.274247491638796,2.2535452649678054
10.294314381270903,2.2550457198108385
10.31438127090301,2.256177254263093
10.334448160535118,2.2569370759731
10.354515050167223,2.257323660463631
10.37458193979933,2.257336760803953
10.394648829431437,2.2569774147640107
10.414715719063544,2.2562479494214887
10.434782608695652,2.2551519831774525
10.454849498327757,2.253694425120998
10.474916387959865,2.2518814716676085
10.494983277591974,2.2497206003806403
10.515050167224079,2.2472205608698146
10.535117056856187,2.2443913626457506
10.555183946488295,2.2412442597949562
10.5752508361204,2.2377917323260617
10.595317725752508,2.234047464025274
10.615384615384615,2.2300263166477405
10.635451505016722,2.225744300261638
10.65551839464883,2.22121853955422
10.675585284280936,2.216467235903767
10.695652173913043,2.2115096250191795
10.71571906354515,2.2063659299501213
10.735785953177256,2.2010573092758543
10.755852842809364,2.1956058002907612
10.775919732441471,2.1900342570195055
10.795986622073578,2.1843662829155415
10.816053511705684,2.1786261581238247
10.836120401337793,2.1728387612224016
