Frequency (Hz),Amplitude
0.0,1.4753862328231762
0.04,1.4746665789892663
0.08,1.4725083351497248
0.12,1.4689136537585847
0.16,1.4638861204681488
0.19999999999999998,1.4574307514865437
0.24,1.4495539899070755
0.27999999999999997,1.4402637010392154
0.32,1.4295691667810857
0.36,1.4174810790847474
0.39999999999999997,1.4040115325784615
0.44,1.389174016425533
0.48,1.3729834055173344
0.52,1.355455951119942
0.5599999999999999,1.3366092711203597
0.6,1.3164623400510707
0.64,1.2950354791121288
0.6799999999999999,1.2723503464612378
0.72,1.2484299281066293
0.76,1.2232985298201204
0.7999999999999999,1.1969817705939347
0.84,1.1695065783027354
0.88,1.1409011884133147
0.9199999999999999,1.1111951468234895
0.96,1.0804193182310982
1.0,1.0486059018649394
1.04,1.0157884569963531
1.0799999999999998,0.9820019414592901
1.1199999999999999,0.9472827675348329
1.1600000000000001,0.9116688811492117
1.2,0.8751998726150045
1.24,0.8379171304573858
1.28,0.7998640547547196
1.3199999999999998,0.7610863537576564
1.3599999999999999,0.721632458764554
1.4,0.6815541097231415
1.44,0.6409071919195162
1.48,0.5997529496696399
1.52,0.5581597793153472
1.5599999999999998,0.5162059356639457
1.5999999999999999,0.47398372084997603
1.64,0.43160615754131576
1.68,0.38921797659609164
1.72,0.34701439569595083
1.76,0.3052745629608161
1.7999999999999998,0.2644237556803544
1.8399999999999999,0.22515375341612825
1.88,0.18866037191355262
1.92,0.1570880907654245
1.9599999999999997,0.1341298270128159
2.0,0.12475338889865285
2.0399999999999996,0.13193193400921405
2.08,0.1533412685469959
2.12,0.18402196075003263
2.1599999999999997,0.2200435553079777
2.2,0.25908267829918236
2.2399999999999998,0.299844710693871
2.28,0.3415859783831274
2.3200000000000003,0.3838532615615249
2.36,0.42635164293752004
2.4,0.46887652721262457
2.44,0.5112773033633523
2.48,0.5534370613466675
2.5199999999999996,0.5952607888896749
2.56,0.6366682381078147
2.6,0.6775894672110718
2.6399999999999997,0.717961970980273
2.68,0.7577287861024385
2.7199999999999998,0.7968372124355514
2.76,0.8352379337649755
2.8,0.872884403828862
2.84,0.9097324122327588
2.88,0.9457397746743732
2.92,0.9808661105294991
2.96,1.0150726827586758
2.9999999999999996,1.0483222828627266
3.04,1.0805791487788725
3.08,1.1118089071007742
3.1199999999999997,1.1419785334047023
3.16,1.1710563261366531
3.1999999999999997,1.1990118906975282
3.2399999999999998,1.2258161312097855
3.28,1.2514412480622734
3.32,1.2758607397791528
3.36,1.299049408091539
3.4,1.3209833653392395
3.44,1.341640043517889
3.4799999999999995,1.360998204429867
3.52,1.3790379505075558
3.5599999999999996,1.3957407359627727
3.5999999999999996,1.411089377983095
3.64,1.425068067748439
3.6799999999999997,1.4376623810832958
3.7199999999999998,1.4488592885937246
3.76,1.4586471651656636
3.7999999999999994,1.4670157987235781
3.84,1.473956398167184
3.88,1.4794616004197714
3.9199999999999995,1.4835254765351207
3.96,1.4861435368218145
4.0,1.4873127349542468
4.04,1.4870314710491745
4.079999999999999,1.4852995936956754
4.12,1.4821184009349986
4.16,1.477490640195365
4.199999999999999,1.4714205071956157
4.24,1.4639136438407407
4.28,1.4549771351424503
4.319999999999999,1.444619505208897
4.36,1.43285071236028
4.4,1.4196821434415328
4.4399999999999995,1.4051266074202473
4.4799999999999995,1.389198328378276
4.5200000000000005,1.3719129380298196
4.56,1.353287467928606
4.6,1.3333403415633571
4.640000000000001,1.312091366586417
4.68,1.2895617274774804
4.72,1.2657739790169051
4.76,1.2407520410352144
4.8,1.2145211950243395
4.84,1.1871080833502663
4.88,1.1585407120084086
4.92,1.1288484581295142
4.96,1.0980620837988884
5.0,1.0662137582295697
5.039999999999999,1.0333370909798616
5.08,0.999467179798715
5.12,0.9646406779245248
5.159999999999999,0.9288958874114376
5.2,0.8922728875520042
5.24,0.854813711074619
5.279999999999999,0.8165625860982383
5.319999999999999,0.7775662697498128
5.36,0.7378745113988437
5.3999999999999995,0.697540702145906
5.4399999999999995,0.6566227967879719
5.48,0.615184642424215
5.52,0.5732979275174974
5.56,0.5310451012132683
5.6,0.48852385182859825
5.64,0.44585416737045364
5.68,0.40318981509966706
5.72,0.3607376565191683
5.76,0.318791371009305
5.8,0.2777925823724679
5.84,0.2384451882868425
5.879999999999999,0.2019308327914709
5.92,0.1702880789767217
5.96,0.14688318940241452
5.999999999999999,0.1361676459215646
6.04,0.14112891119701446
6.08,0.16032188254501298
6.119999999999999,0.18942746287289064
6.16,0.2245507338040077
6.2,0.2631985498691503
6.239999999999999,0.303918935449948
6.279999999999999,0.34585934253432726
6.32,0.38849570521400867
6.359999999999999,0.43148688884713055
6.3999999999999995,0.4745974233712083
6.44,0.5176554304403309
6.4799999999999995,0.5605288693224684
6.52,0.6031116124901617
6.56,0.6453149891882082
6.6,0.6870624822454555
6.64,0.7282863060542812
6.68,0.7689251423574999
6.72,0.8089226090985938
6.76,0.8482262054385133
6.8,0.8867865732902726
6.84,0.9245569736694029
6.88,0.9614929115907572
6.92,0.9975518654274981
6.959999999999999,1.0326930908451915
7.0,1.0668774786927246
7.04,1.1000674523957068
7.08,1.1322268945673832
7.119999999999999,1.1633210954173965
7.16,1.1933167175362582
7.199999999999999,1.2221817730456606
7.239999999999999,1.2498856101152753
7.28,1.2763989065790586
7.32,1.3016936689201164
7.359999999999999,1.3257432352903753
7.3999999999999995,1.3485222815278468
7.4399999999999995,1.3700068293584282
7.4799999999999995,1.3901742561396648
7.52,1.4090033056350952
7.5600000000000005,1.4264740994093408
7.599999999999999,1.4425681485135706
7.64,1.4572683651936646
7.68,1.470559074403217
7.719999999999999,1.4824260249435945
7.76,1.4928564000857505
7.800000000000001,1.5018388275552137
7.839999999999999,1.509363388783785
7.88,1.5154216273502152
7.92,1.5200065565481191
7.959999999999999,1.5231126660334178
8.0,1.5247359275161139
8.040000000000001,1.5248737994726742
8.08,1.5235252308660796
8.12,1.5206906638711313
8.159999999999998,1.5163720356130843
8.2,1.5105727789384824
8.24,1.5032978222486337
8.28,1.4945535884386305
8.32,1.4843479929989138
8.36,1.4726904413522632
8.399999999999999,1.4595918255177576
8.44,1.4450645202150032
8.48,1.4291223785482203
8.52,1.4117807274412644
8.56,1.3930563630333916
8.6,1.372967546293199
8.639999999999999,1.3515339991674888
8.68,1.3287769016562037
8.72,1.3047188902987474
8.76,1.2793840586769365
8.8,1.2527979606941695
8.84,1.224987617590126
8.879999999999999,1.1959815299114593
8.92,1.1658096960029483
8.959999999999999,1.1345036390410383
9.0,1.1020964452456725
9.040000000000001,1.0686228167387066
9.079999999999998,1.0341191436574155
9.12,0.9986236017112674
9.16,0.9621762835844179
9.2,0.9248193757302353
9.24,0.8865973966284344
9.280000000000001,0.8475575191819229
9.32,0.8077500097293733
9.36,0.7672288309302026
9.399999999999999,0.7260524784807596
9.44,0.6842851571764984
9.48,0.6419984587015461
9.52,0.5992737965444361
9.559999999999999,0.5562060092693867
9.6,0.5129088110732147
9.639999999999999,0.4695232404088676
9.68,0.426231110120413
9.72,0.3832770362709814
9.76,0.3410055587070157
9.8,0.2999252561107125
9.84,0.2608207901935906
9.879999999999999,0.22494396697810895
9.92,0.1943002976520856
9.959999999999999,0.17189718010023572
10.0,0.16134586572665674
10.04,0.16501645454019023
10.079999999999998,0.18207223206179718
10.12,0.20924007647311976
10.16,0.2430937713560922
10.2,0.2811444609457944
10.24,0.3218049325504524
10.280000000000001,0.36408692078195015
10.319999999999999,0.4073612160587871
10.36,0.4512105912876588
10.4,0.49534514623949905
10.44,0.5395536892912015
10.48,0.5836752588003394
10.52,0.6275819819527728
10.559999999999999,0.6711684579968756
10.6,0.714344998746455
10.639999999999999,0.7570332138877011
10.68,0.7991630605463952
10.72,0.8406708306252464
10.76,0.8814977529140143
10.799999999999999,0.9215890069514057
10.84,0.9608930181116813
10.879999999999999,0.9993609482196082
10.92,1.0369463243296817
10.96,1.0736047665763002
11.0,1.109293788007678
11.04,1.1439726473442304
11.08,1.1776022410582219
11.12,1.210145024935429
11.16,1.2415649579133732
11.2,1.2718274628577686
11.24,1.3008994002787204
11.28,1.328749051961052
11.319999999999999,1.35534611219706
11.36,1.3806616848392292
11.4,1.4046682847869294
11.44,1.427339842820373
11.48,1.448651712923605
11.52,1.4685806814137916
11.559999999999999,1.487104977330273
11.6,1.5042042836434468
11.64,1.5198597489274417
11.68,1.5340539992075557
11.72,1.5467711497470764
11.759999999999998,1.5579968165817606
11.799999999999999,1.567718127646011
11.84,1.5759237333645846
11.879999999999999,1.582603816608748
11.92,1.587750101937432
11.96,1.591355864062821
11.999999999999998,1.593415935496747
12.04,1.5939267133500492
12.08,1.5928861652717647
12.12,1.5902938345296698
12.16,1.5861508442484078
12.200000000000001,1.5804599008367364
12.239999999999998,1.5732252966519682
12.28,1.564452911967791
12.32,1.5541502163321326
12.36,1.5423262694252708
12.4,1.528991721555911
12.44,1.514158813965478
12.479999999999999,1.4978413791501648
12.52,1.4800548414576415
12.559999999999999,1.46081621827355
12.6,1.4401441221847209
12.64,1.4180587645955647
12.68,1.3945819613862442
12.719999999999999,1.3697371413432842
12.76,1.3435493582739557
12.799999999999999,1.3160453079478163
12.84,1.28725335130886
12.88,1.2572035457927648
12.92,1.225927687097785
12.959999999999999,1.1934593644390397
12.999999999999998,1.1598340332270798
13.04,1.125089110341591
13.08,1.089264098848142
13.12,1.0524007513164289
13.16,1.0145432841178699
13.2,0.9757386596183331
13.239999999999998,0.9360369596600425
13.28,0.8954918830970457
13.32,0.8541614138958248
13.36,0.812108726782707
13.4,0.7694034283857496
13.44,0.726123279441372
13.479999999999999,0.6823566181437389
13.52,0.6382058233443451
13.559999999999999,0.5937923484858435
13.6,0.5492641735157636
13.64,0.5048070495473554
13.68,0.46066179569666627
13.719999999999999,0.41715137685514553
13.76,0.3747238243867547
13.799999999999999,0.33402027665137574
13.84,0.29597982234521264
13.88,0.2619859325037218
13.919999999999998,0.2340151484733433
13.959999999999999,0.2146147777597769
14.0,0.20635363399264514
14.04,0.2106314718069115
14.08,0.2267727393451393
14.120000000000001,0.2525012680846051
14.16,0.2851880520639039
14.2,0.3226526906189302
14.239999999999998,0.36332742171973714
14.28,0.40614082732559414
14.32,0.4503635709707474
14.36,0.4954896237787061
14.399999999999999,0.5411572971689228
14.44,0.5870991138992503
14.479999999999999,0.6331102248482616
14.52,0.679028329041557
14.56,0.7247206994662341
14.6,0.7700756416244707
14.64,0.81499676179256
14.68,0.859399049247795
14.719999999999999,0.9032061520142851
14.76,0.946348452638438
14.799999999999999,0.9887616898537368
14.84,1.0303859590153244
14.879999999999999,1.0711649794853844
14.919999999999998,1.11104555290583
14.959999999999999,1.149977159803221
15.0,1.1879116576763264
15.04,1.2248030543699007
15.079999999999998,1.2606073378686844
15.120000000000001,1.2952823487586118
15.159999999999998,1.3287876852141376
15.199999999999998,1.361084632953064
15.24,1.3921361144677686
15.28,1.4219066532066367
15.319999999999999,1.4503623493873816
15.36,1.4774708648752233
15.399999999999999,1.503201415124179
15.439999999999998,1.527524766608867
15.48,1.5504132385024436
15.52,1.5718407076100347
15.559999999999999,1.5917826157640784
15.600000000000001,1.6102159790428112
15.639999999999999,1.6271193982955794
15.679999999999998,1.642473070556248
15.72,1.6562588010047634
15.76,1.6684600152008204
15.799999999999999,1.6790617713664557
15.84,1.6880507725382008
15.879999999999999,1.69541537844682
15.919999999999998,1.7011456170148376
15.96,1.7052331953904176
16.0,1.707671510461937
16.04,1.7084556588215418
16.080000000000002,1.7075824461690283
16.12,1.7050503961701682
16.16,1.7008597588071277
16.200000000000003,1.6950125182833269
16.24,1.6875124005720832
16.279999999999998,1.6783648807283433
16.319999999999997,1.6675771901170255
16.36,1.6551583237511696
16.4,1.6411190479796567
16.439999999999998,1.6254719088199316
16.48,1.6082312412980688
16.52,1.5894131802401585
16.56,1.569035673058798
16.6,1.547118495202221
16.64,1.5236832690874647
16.68,1.4987534875319586
16.72,1.4723545429418694
16.759999999999998,1.4445137638252727
16.799999999999997,1.4152604605952168
16.84,1.3846259831394236
16.88,1.3526437932979956
16.919999999999998,1.3193495562604822
16.96,1.2847812560409468
17.0,1.248979341715774
17.04,1.2119869131555112
17.080000000000002,1.1738499577517956
17.12,1.1346176534235028
17.16,1.0943427584041094
17.2,1.0530821155816246
17.24,1.010897309397392
17.279999999999998,0.9678555278754669
17.32,0.9240307033133588
17.36,0.8795050356585143
17.4,0.8343710474444731
17.44,0.7887343857975381
17.48,0.7427176868990945
17.52,0.6964659688770704
17.56,0.6501542463801757
17.6,0.6039984003160465
17.64,0.5582708324477844
17.68,0.5133231130414844
17.72,0.46961861356319046
17.759999999999998,0.4277785624584347
17.799999999999997,0.38864356986804344
17.84,0.3533454123810368
17.88,0.3233625234979776
17.919999999999998,0.3004888541077223
17.96,0.28659930653988747
18.0,0.2831465437477345
18.04,0.29058511271633986
18.080000000000002,0.3081651963624586
18.12,0.3342888898176608
18.159999999999997,0.3671018148470599
18.2,0.40491900547336007
18.24,0.4463866710424371
18.279999999999998,0.49047873083925203
18.32,0.5364335683226107
18.36,0.5836854748225454
18.4,0.63180880618919
18.44,0.6804769934370826
18.48,0.7294337073936167
18.52,0.7784728727864461
18.560000000000002,0.8274248318687196
18.6,0.8761467089582117
18.64,0.9245156371044058
18.679999999999996,0.9724239441951967
18.72,1.0197756923210035
18.759999999999998,1.0664841618455918
18.799999999999997,1.1124700026858492
18.84,1.1576598624327148
18.88,1.2019853592704548
18.919999999999998,1.2453823070518992
18.96,1.2877901267805858
19.0,1.3291513973069924
19.04,1.3694115109921503
19.080000000000002,1.4085184092226606
19.119999999999997,1.446422379170194
19.159999999999997,1.48307589787684
19.2,1.5184335131583135
19.24,1.552451753322134
19.279999999999998,1.5850890595548228
19.32,1.6163057362209001
19.36,1.6460639153638765
19.4,1.6743275324958997
19.44,1.7010623113732695
19.48,1.7262357559265993
19.52,1.7498171478816065
19.560000000000002,1.7717775488944463
19.6,1.7920898062532975
19.639999999999997,1.8107285613794233
19.68,1.8276702605069466
19.72,1.8428931670391901
19.759999999999998,1.8563773751768664
19.8,1.8681048244942926
19.84,1.8780593152084402
19.88,1.8862265239442573
19.919999999999998,1.8925940198515607
19.96,1.8971512809752873
20.0,1.899889710824056
20.04,1.9008026551232535
20.08,1.8998854187795466
20.119999999999997,1.8971352831253199
20.159999999999997,1.8925515235552448
20.2,1.8861354277145204
20.24,1.877890314450917
20.279999999999998,1.8678215538023133
20.32,1.8559365883602479
20.36,1.8422449564304968
20.4,1.8267583175073796
20.44,1.8094904806927927
20.48,1.7904574368295938
20.52,1.7696773952873346
20.560000000000002,1.7471708265454378
20.599999999999998,1.7229605119742
20.639999999999997,1.6970716025315518
20.68,1.6695316884902596
20.72,1.640370882809138
20.759999999999998,1.6096219213929512
20.8,1.577320284288397
20.84,1.5435043428910435
20.88,1.5082155395611199
20.92,1.471498607759839
20.96,1.4334018430523026
21.0,1.393977438253928
21.04,1.3532818998665408
21.08,1.3113765680903404
21.119999999999997,1.268328269567896
21.159999999999997,1.224210141252738
21.2,1.1791026762791124
21.24,1.1330950596599023
21.279999999999998,1.086286884729011
21.32,1.038790372734203
21.36,0.9907332608489069
21.4,0.9422625818046505
21.44,0.8935496354436419
21.48,0.8447965520078601
21.52,0.7962449679322064
21.56,0.7481874638074402
21.599999999999998,0.7009825064907257
21.639999999999997,0.6550735788365467
21.68,0.6110127143787993
21.72,0.5694872667066215
21.759999999999998,0.5313455581357803
21.8,0.49761099251082375
21.84,0.4694651532561732
21.88,0.44817234327949407
21.92,0.43492327670844855
21.96,0.430611052233575
22.0,0.435614121179367
22.04,0.449696330462503
22.08,0.4720834664176821
22.119999999999997,0.5016684549606923
22.16,0.5372368499658478
22.2,0.5776316986677879
22.24,0.6218382161533325
22.28,0.6690075661562277
22.32,0.7184469962646848
22.36,0.7695965189994347
22.4,0.8220033147801618
22.44,0.8752987426212773
22.48,0.9291794400756551
22.519999999999996,0.9833924616072375
22.56,1.037723855937659
22.599999999999998,1.0919899808801754
22.639999999999997,1.1460309245685214
22.68,1.1997055202243472
22.72,1.2528875575444052
22.759999999999998,1.305462891055216
22.8,1.3573272219490347
22.84,1.4083843875271593
22.88,1.4585450351870595
22.92,1.5077255894349264
22.96,1.5558474435836316
23.0,1.602836324837334
23.04,1.6486217940285453
23.08,1.6931368505764102
23.119999999999997,1.7363176201584516
23.16,1.778103107770006
23.2,1.8184350027471685
23.24,1.857257525285259
23.28,1.894517306238179
23.32,1.9301632937127298
23.36,1.9641466813062185
23.400000000000002,1.996420853871782
23.44,2.0269413475052938
23.479999999999997,2.055665821083844
23.519999999999996,2.0825540371886277
23.56,2.1075678506449207
23.599999999999998,2.1306712032315542
23.639999999999997,2.151830123369676
23.68,2.171012729808852
23.72,2.188189238498381
23.759999999999998,2.2033319719709765
23.8,2.216415370681388
23.84,2.227416005838635
23.88,2.236312593351909
23.92,2.243086008579498
23.96,2.2477193016304264
23.999999999999996,2.2501977130216764
24.04,2.250508689542063
24.08,2.2486419002183595
24.119999999999997,2.2445892523218918
24.16,2.238344907395751
24.2,2.2299052973254443
24.24,2.2192691405206557
24.28,2.2064374583245163
24.32,2.1914135918209707
24.36,2.1742032192728833
24.400000000000002,2.1548143744957877
24.439999999999998,2.1332574665581614
24.479999999999997,2.109545301302479
24.52,2.0836931053077774
24.56,2.055718553070353
24.599999999999998,2.025641798373413
24.64,1.9934855110610448
24.68,1.9592749207414648
24.72,1.9230378693407857
24.759999999999998,1.8848048749387316
24.8,1.8446092099809248
24.84,1.8024869978306242
24.88,1.7584773327697978
24.92,1.7126224300877737
24.959999999999997,1.6649678149506455
24.999999999999996,1.6155625615347942
25.04,1.5644595977340139
25.08,1.5117160960530927
25.119999999999997,1.4573939787342127
25.16,1.4015605757057261
25.2,1.3442894890846082
25.24,1.2856617399973582
25.28,1.2257673059905305
25.32,1.1647072059541834
25.36,1.1025963633853497
25.4,1.0395675927830592
25.439999999999998,0.9757772323304088
25.479999999999997,0.9114132290557405
25.52,0.8467069369376122
25.56,0.7819506221176786
25.599999999999998,0.7175238496117533
25.64,0.6539337761843749
25.68,0.5918770602614731
25.72,0.5323341787720349
25.76,0.4767073737693418
25.8,0.4269998512621834
25.84,0.3859755479827483
25.880000000000003,0.35709152265805183
25.919999999999998,0.34382798831181455
25.959999999999997,0.34831041696205045
25.999999999999996,0.3701477037417131
26.04,0.4067261270781575
26.08,0.4546029462441347
26.119999999999997,0.5106535785514024
26.16,0.5724781763399717
26.2,0.6383588504670711
26.24,0.7070890161314299
26.28,0.7778143070340471
26.32,0.8499163161574913
26.36,0.9229344055373091
26.4,0.9965145106558093
26.439999999999998,1.0703757018998787
26.479999999999997,1.1442881520240742
26.52,1.2180584174659077
26.56,1.2915194499290659
26.599999999999998,1.3645237086163866
26.64,1.4369383366628357
26.68,1.5086417341314826
26.72,1.579521091122485
26.76,1.6494705912361662
26.8,1.718390090025629
26.84,1.7861841347197274
26.88,1.8527612323576566
26.919999999999998,1.9180333009562611
26.959999999999997,1.9819152570737428
27.0,2.044324706089858
27.04,2.105181710594636
27.08,2.164408618707734
27.119999999999997,2.221929938760849
27.16,2.277672250117864
27.2,2.3315641423555484
27.24,2.3835361768391
27.28,2.4335208660796708
27.32,2.4814526672811485
27.36,2.527267987259263
27.4,2.5709051965116236
27.439999999999998,2.6123046506784813
27.479999999999997,2.651408717994468
27.52,2.6881618116161583
27.56,2.7225104259373896
27.599999999999998,2.7544031761877257
27.64,2.783790840759872
27.68,2.8106264058371035
27.72,2.8348651119983788
27.76,2.8564645025717335
27.8,2.8753844735896665
27.839999999999996,2.891587325277258
27.88,2.9050378150773977
27.919999999999998,2.915703212290601
27.959999999999997,2.9235533544818266
