Time (s),Filtered Signal
0.0,-0.02186724047786048
0.033370535714285714,0.13629758055298483
0.06674107142857143,0.25661287739789673
0.10011160714285713,0.3082478300954321
0.13348214285714285,0.27391688768314737
0.16685267857142858,0.15407125868635432
0.20022321428571427,-0.03243552138644639
0.23359375,-0.2521519076677368
0.2669642857142857,-0.46498419081327225
0.30033482142857143,-0.634312373025574
0.33370535714285715,-0.7360574032857496
0.36707589285714287,-0.763566571945349
0.40044642857142854,-0.7267499824588307
0.43381696428571426,-0.646260456958774
0.4671875,-0.5454360291002193
0.5005580357142857,-0.4432374695401088
0.5339285714285714,-0.35039738229122175
0.5672991071428571,-0.26921733958100447
0.6006696428571429,-0.19597226636309498
0.6340401785714286,-0.12435455962486534
0.6674107142857143,-0.048715187447816485
0.70078125,0.03354745307421609
0.7341517857142857,0.12073855362842857
0.7675223214285715,0.20696843404207388
0.8008928571428571,0.28372739065339475
0.8342633928571428,0.3427058289613199
0.8676339285714285,0.379091771768138
0.9010044642857142,0.3941820914816023
0.934375,0.3961766211806241
0.9677455357142857,0.3984921088822991
1.0011160714285714,0.415632483496143
1.0344866071428571,0.4574207456226946
1.0678571428571428,0.5232028145289607
1.1012276785714286,0.5983365648166583
1.1345982142857143,0.6553824906952442
1.16796875,0.6612611803350306
1.2013392857142857,0.589116560619641
1.2347098214285714,0.4307025510838723
1.2680803571428572,0.20359628865075746
1.3014508928571429,-0.05111290649615189
1.3348214285714286,-0.28093869606398975
1.3681919642857143,-0.4393817345435819
1.4015625,-0.5012189685491167
1.4349330357142858,-0.46922947329853754
1.4683035714285715,-0.37009024006015995
1.5016741071428572,-0.24235193956602366
1.535044642857143,-0.12273350958887465
1.5684151785714286,-0.03680457125345204
1.6017857142857141,0.003144165175975438
1.6351562499999999,-0.005478521130988965
1.6685267857142856,-0.06056286918554649
1.7018973214285713,-0.15753526335348503
1.735267857142857,-0.28737643905793053
1.7686383928571427,-0.432506918367855
1.8020089285714285,-0.5647670561991442
1.8353794642857142,-0.6490750302881226
1.86875,-0.6531921379149948
1.9021205357142856,-0.560162567425888
1.9354910714285714,-0.3776927564762538
1.968861607142857,-0.13938882216902715
2.002232142857143,0.10386677140042519
2.0356026785714287,0.29971651279253236
2.0689732142857142,0.41132593251492783
2.10234375,0.4289306098517663
2.1357142857142857,0.3714859825364572
2.169084821428571,0.2779864800300681
2.202455357142857,0.19208544956927523
2.2358258928571426,0.14612178866283
2.2691964285714286,0.15064322523628632
2.302566964285714,0.19310288207575688
2.3359375,0.24559300481894777
2.3693080357142855,0.27782066689665835
2.4026785714285714,0.2695647043687627
2.436049107142857,0.21744469363225113
2.469419642857143,0.1337049054624886
2.5027901785714284,0.038504855894883575
2.5361607142857143,-0.049905059425287834
2.56953125,-0.12212664109748615
2.6029017857142858,-0.17856110230278605
2.6362723214285713,-0.22461152229055456
2.669642857142857,-0.2634893343979946
2.7030133928571427,-0.2911865942921925
2.7363839285714286,-0.2968472054428951
2.769754464285714,-0.26857961909833367
2.803125,-0.20142299572885103
2.8364955357142856,-0.10260468194886245
2.8698660714285715,0.009557038040779791
2.903236607142857,0.11323284698235797
2.936607142857143,0.19333636580044447
2.9699776785714285,0.24861794653916164
3.0033482142857144,0.2910782763798574
3.03671875,0.337374330946901
3.070089285714286,0.3966675756836815
3.1034598214285714,0.46185403815872617
3.1368303571428573,0.5096500546554974
3.170200892857143,0.5102674527003147
3.2035714285714283,0.4420782798189929
3.2369419642857142,0.3037678781307115
3.2703124999999997,0.11757493851677715
3.3036830357142857,-0.0783417378844745
3.337053571428571,-0.24492370460568358
3.370424107142857,-0.3574070667924891
3.4037946428571426,-0.4133155439614153
3.4371651785714286,-0.4294498361291978
3.470535714285714,-0.4297280094103227
3.50390625,-0.4306534319212822
3.5372767857142855,-0.4326857724031056
3.5706473214285714,-0.4227512437582458
3.604017857142857,-0.38681738253877995
3.637388392857143,-0.3251380044439147
3.6707589285714284,-0.260130038485005
3.7041294642857143,-0.2299163080051051
3.7375,-0.2683284213615079
3.7708705357142858,-0.3806949727371187
3.8042410714285713,-0.5291548492515473
3.837611607142857,-0.6383892341289803
3.8709821428571427,-0.6231506924926171
3.9043526785714286,-0.4272004600332363
3.937723214285714,-0.05547918286640779
3.97109375,0.4176554616755838
4.004464285714286,0.8709845281417522
4.0378348214285715,1.18169313658908
4.0712053571428575,1.2734278900806133
4.1045758928571425,1.1450997541700396
4.1379464285714285,0.8674334901480738
4.171316964285714,0.5497936967192378
4.2046875,0.2936559388784534
4.238058035714285,0.15427423217318398
4.271428571428571,0.1265783103641251
4.304799107142857,0.15868374776710573
4.338169642857142,0.18343483484948725
4.371540178571428,0.15139941063799425
4.404910714285714,0.05033903189570953
4.43828125,-0.09547771240698162
4.471651785714285,-0.24252954520653014
4.505022321428571,-0.3512485129837252
4.538392857142857,-0.40353281708663374
4.571763392857143,-0.40743298720030197
4.605133928571428,-0.3889399321523177
4.638504464285714,-0.37671831780555975
4.671875,-0.3878623811345944
4.705245535714286,-0.4209396486662716
4.738616071428571,-0.45831612197667215
4.771986607142857,-0.4754178139775612
4.805357142857143,-0.4520700933542006
4.838727678571429,-0.38100504491916676
4.872098214285714,-0.27048994416548483
4.90546875,-0.14068286629454363
4.938839285714286,-0.015691065181485477
4.972209821428572,0.08530833096604004
5.005580357142857,0.15442166845129926
5.038950892857143,0.1965208649140397
5.072321428571429,0.2254718938763041
5.105691964285715,0.256863437246988
5.1390625,0.30046233909211184
5.172433035714286,0.3557339672660279
5.2058035714285715,0.4123481798757677
5.2391741071428575,0.45522936125808366
5.2725446428571425,0.4715444237671909
5.3059151785714285,0.45617266722687055
5.339285714285714,0.4131158616321333
5.3726562499999995,0.3524861448648158
5.406026785714285,0.28497589089795605
5.439397321428571,0.21687561108820141
5.472767857142857,0.14820388065361628
5.506138392857142,0.07468131364528631
5.539508928571428,-0.007879438287076287
5.572879464285714,-0.09954247348080823
5.60625,-0.19515019846659235
5.639620535714285,-0.2870107457547611
5.672991071428571,-0.3698229000999224
5.706361607142857,-0.4445427784622131
5.739732142857143,-0.5179846405321187
5.773102678571428,-0.5971660735973322
5.806473214285714,-0.6807749928832837
5.83984375,-0.7527306573277153
5.873214285714286,-0.7828107388358815
5.906584821428571,-0.7362091341319125
5.939955357142857,-0.5890424919992964
5.973325892857143,-0.3428898287892326
6.006696428571429,-0.030841077292376288
6.040066964285714,0.28909525932869323
6.0734375,0.5515989040823371
6.106808035714286,0.70578967569552
6.140178571428572,0.732180770436736
6.173549107142857,0.6479490363454122
6.206919642857143,0.4987547791496659
6.240290178571429,0.341047350983357
6.273660714285715,0.22244309163366593
6.30703125,0.1678109655196246
6.340401785714286,0.17542898715834312
6.3737723214285715,0.22287286185692967
6.407142857142857,0.2785577252255312
6.4405133928571425,0.31363086190105055
6.4738839285714285,0.31021262252420706
6.507254464285714,0.26452690737215595
6.5406249999999995,0.18565274004472332
6.573995535714285,0.09152917871093182
6.607366071428571,0.003595597274281
6.640736607142857,-0.05909427074053885
6.674107142857142,-0.08550498475880602
6.707477678571428,-0.0767204667686546
6.740848214285714,-0.04681436625006912
6.77421875,-0.019222861860652796
6.807589285714285,-0.01888633375777862
6.840959821428571,-0.06250230439935427
6.874330357142857,-0.15074823092425918
6.907700892857143,-0.26625054884108273
6.941071428571428,-0.37904344798241313
6.974441964285714,-0.4579471866502848
7.0078125,-0.4832297358472404
7.041183035714286,-0.45478418897093614
7.074553571428571,-0.39174524248785053
7.107924107142857,-0.3234052559588234
7.141294642857143,-0.27556256567486836
7.174665178571429,-0.2587684398819638
7.208035714285714,-0.26400814522787763
7.24140625,-0.2676169162127635
7.274776785714286,-0.24272165784307886
7.308147321428572,-0.17160804981878774
7.341517857142857,-0.05348676644197382
7.374888392857143,0.09521259907439306
7.408258928571429,0.2473243882866165
7.441629464285715,0.37484045525325427
7.475,0.45804164713565243
7.508370535714286,0.4906389118268236
7.5417410714285715,0.4796187808762336
7.575111607142857,0.44052776416344913
7.6084821428571425,0.39045005976590835
7.6418526785714285,0.34155034074238766
7.675223214285714,0.29761440109712634
7.7085937499999995,0.25467548464357403
7.741964285714285,0.20508327014552521
7.775334821428571,0.14298796971525013
7.808705357142857,0.06874724552745172
7.842075892857142,-0.009666578122865638
7.875446428571428,-0.0789080166491172
7.908816964285714,-0.12534210341090427
7.9421875,-0.14100825874961506
7.975558035714285,-0.12801578643823944
8.008928571428571,-0.09933073622991159
8.042299107142856,-0.07518064854668391
8.075669642857143,-0.07601023968670609
8.109040178571428,-0.11437360922339075
8.142410714285715,-0.18873637673668364
8.17578125,-0.281676711217409
8.209151785714285,-0.36362638344852555
8.242522321428572,-0.4014971845880926
8.275892857142857,-0.3697719556359739
8.309263392857142,-0.26044751803102895
8.342633928571429,-0.08814962840221942
8.376004464285714,0.11193165525448322
8.409375,0.29323542712758677
8.442745535714286,0.41150901308231325
8.47611607142857,0.43856386490415955
8.509486607142858,0.37142917252456686
8.542857142857143,0.23356937768953512
8.576227678571428,0.067415212105016
8.609598214285715,-0.07949754647072017
8.64296875,-0.17003175054576242
8.676339285714285,-0.18900424705897267
8.709709821428572,-0.14651274922500007
8.743080357142857,-0.07188486320936083
8.776450892857143,-0.0008503314601905943
8.809821428571428,0.03870331055194549
8.843191964285714,0.03654748155077092
8.8765625,0.0017447743407065527
8.909933035714285,-0.04392200123594031
8.94330357142857,-0.07711512490558572
8.976674107142857,-0.08332871806282856
9.010044642857142,-0.062039128832327275
9.04341517857143,-0.025146176345504433
9.076785714285714,0.009432879171974239
9.11015625,0.025281350627435684
9.143526785714286,0.012764422429740397
9.176897321428571,-0.029260386155944857
9.210267857142856,-0.09450491881273854
9.243638392857143,-0.17134066736196338
9.277008928571428,-0.24470355068934832
9.310379464285715,-0.2978365349790812
9.34375,-0.3146925549299668
9.377120535714285,-0.28350692352064905
9.410491071428572,-0.20086793516068757
9.443861607142857,-0.07450772211986596
9.477232142857142,0.07705827079732831
9.510602678571429,0.2287356515264577
9.543973214285714,0.35575560864642186
9.57734375,0.4407224418850934
9.610714285714286,0.47807510807302783
9.64408482142857,0.47434871403554174
9.677455357142858,0.4443498444850983
9.710825892857143,0.4048376291941902
9.744196428571428,0.3680199860315684
9.777566964285715,0.33710791169122006
9.8109375,0.30551583070917837
9.844308035714285,0.26019054109413886
9.877678571428572,0.18811427866573405
9.911049107142857,0.08360720897621737
9.944419642857143,-0.0467093662230164
9.977790178571428,-0.18392693019000472
10.011160714285714,-0.302610428193598
10.04453125,-0.3804729240991971
10.077901785714285,-0.40795719200072506
10.11127232142857,-0.3931355999250044
10.144642857142857,-0.358927973023862
10.178013392857142,-0.33298747915331534
10.21138392857143,-0.33432514833158833
10.244754464285714,-0.3629685134397443
10.278125,-0.3982469833050424
10.311495535714286,-0.407564901016039
10.344866071428571,-0.3623167458439307
10.378236607142856,-0.2535308559875085
10.411607142857143,-0.0992409758875545
10.444977678571428,0.060825117955545654
10.478348214285715,0.18143621988706754
10.51171875,0.23144574000768253
10.545089285714285,0.20726291720362489
10.578459821428572,0.1335751603279538
10.611830357142857,0.0510831209917001
10.645200892857142,-0.002460182007105022
10.678571428571429,-0.008427200926242514
10.711941964285714,0.02697422176554103
10.745312499999999,0.0794525661107227
10.778683035714286,0.12141010836795048
10.81205357142857,0.13658561224776603
10.845424107142858,0.12719986582180845
10.878794642857143,0.11080584969416851
10.912165178571428,0.10960046791089172
10.945535714285715,0.138422895239226
10.97890625,0.19745736942795555
11.012276785714285,0.27242627378914647
11.045647321428572,0.3410141258316676
11.079017857142857,0.38166009630405046
11.112388392857143,0.38070349405443527
11.145758928571428,0.33561428417622846
11.179129464285714,0.2542618442311259
11.2125,0.15161191958709339
11.245870535714285,0.04549187603015969
11.27924107142857,-0.0474489023846121
11.312611607142857,-0.11503736369621669
11.345982142857142,-0.151829324684965
11.37935267857143,-0.15997238859188262
11.412723214285714,-0.14832896475144688
11.44609375,-0.129791939586623
11.479464285714286,-0.11732001646940711
11.512834821428571,-0.11989708145008425
11.546205357142856,-0.139982686915805
11.579575892857143,-0.17368592491720206
11.612946428571428,-0.2137706019648903
11.646316964285715,-0.2540962011634284
11.6796875,-0.2930417360020366
11.713058035714285,-0.333641294530269
11.746428571428572,-0.3797776978256341
11.779799107142857,-0.43014802578939415
11.813169642857142,-0.4735144277332838
11.846540178571429,-0.48875653721816353
11.879910714285714,-0.4511036779972545
11.913281249999999,-0.34256476821056386
11.946651785714286,-0.16182245116239313
11.98002232142857,0.07153674016327152
12.013392857142858,0.3210887266128527
12.046763392857143,0.5443986576344937
12.080133928571428,0.7056268002629317
12.113504464285715,0.7842918711963914
12.146875,0.7770709257791619
12.180245535714285,0.6934955826078258
12.213616071428572,0.5493750551869722
12.246986607142857,0.3620971488670203
12.280357142857143,0.14978031408329495
12.313727678571428,-0.06681166833789379
12.347098214285714,-0.26270024458982033
12.38046875,-0.4104387603695854
12.413839285714285,-0.48603675431246857
12.44720982142857,-0.4770897494273446
12.480580357142857,-0.3891989096323294
12.513950892857142,-0.246875176285531
12.54732142857143,-0.08738865843431064
12.580691964285714,0.050628975551887646
12.6140625,0.1393362607589126
12.647433035714286,0.1695475064142418
12.680803571428571,0.15121982861481165
12.714174107142856,0.10690728740319998
12.747544642857143,0.0616317103439875
12.780915178571428,0.03379219789756153
12.814285714285713,0.03053145793940983
12.84765625,0.0483212223020881
12.881026785714285,0.07706111858213202
12.914397321428572,0.10498445334497745
12.947767857142857,0.12230770817026233
12.981138392857142,0.12300497287387177
13.014508928571429,0.10521707775549172
13.047879464285714,0.07102594959192081
13.081249999999999,0.025862053889910582
13.114620535714286,-0.02263817612287269
13.14799107142857,-0.06643404905659452
13.181361607142858,-0.09914738409062482
13.214732142857143,-0.11762702299208215
13.248102678571428,-0.12244519173306462
13.281473214285715,-0.1174026858494957
13.31484375,-0.10860447753528069
13.348214285714285,-0.10352240363874998
13.381584821428572,-0.10984614935264116
13.414955357142857,-0.13353069463119582
13.448325892857143,-0.17586612042335242
13.481696428571428,-0.2305040467920675
13.515066964285714,-0.2823398066619224
13.5484375,-0.3100452598313877
13.581808035714285,-0.29258941496743424
13.61517857142857,-0.21789774777770754
13.648549107142857,-0.0900775522437254
13.681919642857142,0.06853469492345568
13.71529017857143,0.22248421594002976
13.748660714285714,0.3343537699075276
13.78203125,0.37784419150491905
13.815401785714286,0.3473232072793465
13.848772321428571,0.2596058554815188
13.882142857142856,0.14709237594592972
13.915513392857143,0.04529348497940287
13.948883928571428,-0.0197402413647173
13.982254464285713,-0.03875001287316645
14.015625,-0.018759472094193368
14.048995535714285,0.02399869859318072
14.082366071428572,0.07339030194519347
14.115736607142857,0.11991736639062771
14.149107142857142,0.16149954107153078
14.182477678571429,0.19905616980724825
14.215848214285714,0.23046526080999652
14.249218749999999,0.24722990207367113
14.282589285714286,0.23631364609269975
14.31595982142857,0.18634381744634312
14.349330357142858,0.09473084672594463
14.382700892857143,-0.028277792675211202
14.416071428571428,-0.16086779791274675
14.449441964285715,-0.27573660621704554
14.4828125,-0.34829141465346886
14.516183035714285,-0.3637497439792983
14.549553571428572,-0.32095259124051934
14.582924107142857,-0.23234770974932406
14.616294642857143,-0.12085980174251611
14.649665178571428,-0.014791135854196443
14.683035714285714,0.05827375704171794
14.71640625,0.0777934294209792
14.749776785714285,0.03591305598740505
14.78314732142857,-0.05892524061797013
14.816517857142857,-0.18203275629112614
14.849888392857142,-0.2973799837898398
14.88325892857143,-0.36715405555758873
14.916629464285714,-0.36370730381899347
14.95,-0.27982161256238913
14.983370535714286,-0.1327956541832799
15.016741071428571,0.04040611463462913
15.050111607142856,0.196112551131633
15.083482142857143,0.30021389684211136
15.116852678571428,0.3406845122302998
15.150223214285713,0.3303512588888319
15.18359375,0.2982515249395011
15.216964285714285,0.2736610543146193
15.250334821428572,0.27092136133427136
15.283705357142857,0.2830463556578177
15.317075892857142,0.28745532596583606
15.350446428571429,0.2604844279142985
15.383816964285714,0.19242039223228027
15.417187499999999,0.0946028339534436
15.450558035714286,-0.00523495408598795
15.48392857142857,-0.07657463638962901
15.517299107142858,-0.10111768405419114
15.550669642857143,-0.08137461472947113
15.584040178571428,-0.039019815057348826
15.617410714285715,-0.004777710191320405
15.65078125,-0.005514483067093917
15.684151785714285,-0.054551811091137395
15.717522321428572,-0.14842088438455583
15.750892857142857,-0.2695243567782509
15.784263392857143,-0.3918482285599209
15.817633928571428,-0.4869864676459035
15.851004464285714,-0.529459556940005
15.884375,-0.5017446295257195
15.917745535714285,-0.399243530540338
15.95111607142857,-0.23387714915960411
15.984486607142857,-0.033768252479428204
16.017857142857142,0.1628256738655667
16.05122767857143,0.3184349297499315
16.084598214285712,0.40816511012802065
16.11796875,0.4271484715431788
16.151339285714286,0.39021485641971715
16.18470982142857,0.32412241846517514
16.218080357142856,0.2562316589461556
16.251450892857143,0.20481760489639028
16.28482142857143,0.1748122908593962
16.318191964285713,0.1597420558590272
16.3515625,0.14773797780352313
16.384933035714287,0.1281257131871548
16.41830357142857,0.0956110772035893
16.451674107142857,0.05086095755995134
16.485044642857144,-0.001763885220026031
16.518415178571427,-0.05740721825668411
16.551785714285714,-0.11296368513022373
16.58515625,-0.1674512021667792
16.618526785714284,-0.22079379300721338
16.65189732142857,-0.27206971383254647
16.685267857142858,-0.3183012652129495
16.71863839285714,-0.35431290711195346
16.752008928571428,-0.3735458723012038
16.785379464285715,-0.369410536953843
16.81875,-0.33685256508105305
16.852120535714285,-0.2740243959437519
16.88549107142857,-0.1839307003137079
16.91886160714286,-0.0755507813881689
16.95223214285714,0.03647439634357623
16.98560267857143,0.13445190609602964
17.018973214285715,0.20255928534244105
17.05234375,0.2326918775804918
17.085714285714285,0.22869887261771488
17.119084821428572,0.20649383032409657
17.152455357142856,0.18904423896289085
17.185825892857142,0.19763863572281673
17.21919642857143,0.2428393388567199
17.252566964285712,0.3190292479143717
17.2859375,0.4051304058187045
17.319308035714286,0.4715267139999433
17.35267857142857,0.49063367778540024
17.386049107142856,0.44705372294233875
17.419419642857143,0.3434369278560636
17.45279017857143,0.1998956061006491
17.486160714285713,0.04732473461723694
17.51953125,-0.0827904525449298
17.552901785714287,-0.16840774929900362
17.58627232142857,-0.2034913147367444
17.619642857142857,-0.19927114669542717
17.653013392857144,-0.18019907572842048
