Time (s),Filtered Signal
0.0,-0.08258314977695659
0.03337028824833703,-0.17487796217516588
0.06674057649667406,-0.26274537462991465
0.10011086474501109,-0.3407580863690171
0.13348115299334812,-0.40011576578401153
0.16685144124168516,-0.42936572220914376
0.20022172949002218,-0.41715690998369187
0.2335920177383592,-0.35639752833886157
0.26696230598669624,-0.24845062585122402
0.3003325942350333,-0.10562672688371347
0.3337028824833703,0.0495239665113693
0.3670731707317073,0.1886977372797619
0.40044345898004435,0.28531453330104123
0.4338137472283814,0.32285579320110463
0.4671840354767184,0.3011568709419301
0.5005543237250555,0.23796226126276532
0.5339246119733925,0.1643758533649109
0.5672949002217295,0.1149737875167852
0.6006651884700666,0.11558816767023217
0.6340354767184035,0.17319218641179757
0.6674057649667406,0.27213186228872355
0.7007760532150776,0.37890349108648436
0.7341463414634146,0.4543206707020379
0.7675166297117517,0.46855831496455336
0.8008869179600887,0.41281600082050923
0.8342572062084257,0.3023640544099293
0.8676274944567628,0.16945355596571526
0.9009977827050998,0.04939593270879319
0.9343680709534368,-0.03347674423443644
0.9677383592017739,-0.07333180025679778
1.001108647450111,-0.08089965182195046
1.0344789356984478,-0.07436393279615297
1.067849223946785,-0.06895170247227526
1.101219512195122,-0.07096739494977011
1.134589800443459,-0.07852483401017737
1.167960088691796,-0.08685624147790998
1.2013303769401331,-0.09363504230332573
1.23470066518847,-0.10056151836515873
1.268070953436807,-0.11065946237412735
1.3014412416851442,-0.12401165839122998
1.3348115299334813,-0.13582827272914602
1.3681818181818182,-0.13907199486302216
1.4015521064301553,-0.13050260407463354
1.4349223946784924,-0.11620866507337659
1.4682926829268292,-0.11239094453695143
1.5016629711751663,-0.13970542032083785
1.5350332594235034,-0.2133881335643019
1.5684035476718403,-0.3342577377320868
1.6017738359201774,-0.48567023648794166
1.6351441241685145,-0.6384514198448475
1.6685144124168514,-0.7614600230910794
1.7018847006651885,-0.8322925129803537
1.7352549889135256,-0.8426367889677866
1.7686252771618625,-0.7960184258534676
1.8019955654101996,-0.7002921512234286
1.8353658536585367,-0.5603937039587409
1.8687361419068735,-0.37652018147660743
1.9021064301552106,-0.1491244805139941
1.9354767184035477,0.11280253761155161
1.9688470066518848,0.38655439308260775
2.002217294900222,0.6387992627864875
2.035587583148559,0.8372171629118269
2.0689578713968957,0.9652141016623053
2.102328159645233,1.0311961260289435
2.13569844789357,1.0657526870686236
2.1690687361419068,1.1062870594062573
2.202439024390244,1.175885424365866
2.235809312638581,1.2673627080377392
2.269179600886918,1.3417760830430165
2.302549889135255,1.3437216208519678
2.335920177383592,1.2269585962539786
2.369290465631929,0.9780787062042874
2.4026607538802662,0.6263610021814804
2.436031042128603,0.23457773526511502
2.46940133037694,-0.12512076998642452
2.5027716186252773,-0.39896912020064096
2.536141906873614,-0.5704464375871743
2.569512195121951,-0.6625946477167688
2.6028824833702884,-0.7242438981930927
2.6362527716186253,-0.8074434200373155
2.6696230598669626,-0.9458614497113154
2.7029933481152995,-1.141743795811972
2.7363636363636363,-1.3644667144344667
2.7697339246119737,-1.5596144274836605
2.8031042128603105,-1.66528311267399
2.8364745011086474,-1.6314632613406166
2.8698447893569847,-1.4376455727032524
2.9032150776053216,-1.1030058045564985
2.9365853658536585,-0.6840323386524285
2.969955654101996,-0.25793366183929173
3.0033259423503327,0.10363005694167328
3.0366962305986696,0.36003106865742074
3.070066518847007,0.5144479067318044
3.1034368070953438,0.6070919633161619
3.1368070953436806,0.6916253663674737
3.170177383592018,0.8062325762373864
3.203547671840355,0.9535214057194886
3.2369179600886917,1.0985962197962158
3.270288248337029,1.1852559459975245
3.303658536585366,1.1616967765854487
3.337028824833703,1.0036637662747747
3.37039911308204,0.72563527377142
3.403769401330377,0.3769717390311543
3.437139689578714,0.026321352300473704
3.470509977827051,-0.25880202529683743
3.503880266075388,-0.43016486054283615
3.537250554323725,-0.4698320995463598
3.5706208425720622,-0.39230763568893273
3.603991130820399,-0.2387009581671878
3.637361419068736,-0.06537289846893847
3.6707317073170733,0.0700560182159183
3.70410199556541,0.12266964912437821
3.737472283813747,0.07177870441999869
3.7708425720620844,-0.07242564152911149
3.8042128603104213,-0.2694653801808922
3.8375831485587586,-0.4579195423860461
3.8709534368070955,-0.5727642300908871
3.9043237250554323,-0.5666495342654003
3.9376940133037697,-0.42810502235857406
3.9710643015521065,-0.18896973470040435
4.004434589800444,0.08383948753303402
4.037804878048781,0.3111949095633646
4.071175166297118,0.4315386885064549
4.1045454545454545,0.4256441461348155
4.137915742793791,0.3252243898481356
4.171286031042128,0.20036842489164322
4.204656319290466,0.12986493719419392
4.238026607538803,0.16646553460492564
4.27139689578714,0.31215209232500574
4.304767184035477,0.5147213100659076
4.3381374722838135,0.6878599734236304
4.371507760532151,0.7464406113867803
4.404878048780488,0.6419141967871717
4.438248337028825,0.38267038731637887
4.471618625277162,0.03101437138236072
4.504988913525499,-0.3213376809255601
4.538359201773836,-0.5883908808568075
4.571729490022173,-0.7209499967398895
4.60509977827051,-0.7214623249076919
4.638470066518847,-0.6376995274339593
4.671840354767184,-0.5391019421304111
4.705210643015521,-0.486373930283016
4.738580931263858,-0.5071932475604036
4.771951219512196,-0.5878564110085156
4.8053215077605325,-0.683495019355994
4.838691796008869,-0.741138978460914
4.872062084257206,-0.7241734917306595
4.905432372505543,-0.626543777011633
4.93880266075388,-0.47071350926820815
4.972172949002218,-0.2920640296406883
5.005543237250555,-0.11946732852483281
5.0389135254988915,0.03678279786054973
5.072283813747228,0.18352179769339447
5.105654101995565,0.3321762578613659
5.139024390243902,0.48452561327039706
5.17239467849224,0.6270515344439839
5.205764966740577,0.7381894490875255
5.239135254988914,0.8036216932505702
5.2725055432372505,0.8285036258372882
5.305875831485587,0.836787542140351
5.339246119733925,0.8562475601244712
5.372616407982262,0.8978955593731871
5.405986696230599,0.943162075469001
5.439356984478936,0.9480050147943352
5.472727272727273,0.8627607316542389
5.5060975609756095,0.6570899075302463
5.539467849223947,0.3368883023237454
5.572838137472284,-0.054584995439006204
5.606208425720621,-0.4502567588530175
5.639578713968958,-0.7799020431417355
5.672949002217295,-0.9893361075705066
5.706319290465632,-1.0527802753113824
5.7396895787139695,-0.977062696486337
5.773059866962306,-0.798521603567179
5.806430155210643,-0.5737633861393588
5.83980044345898,-0.36541358511061656
5.873170731707317,-0.22509109966064414
5.906541019955654,-0.17786408314175442
5.939911308203992,-0.2138109839482943
5.9732815964523285,-0.29127302196566135
6.006651884700665,-0.35246128746399674
6.040022172949002,-0.3466309414306699
6.073392461197339,-0.25170979890627354
6.106762749445676,-0.08464979149088273
6.140133037694014,0.1051154477673298
6.173503325942351,0.2572423804078781
6.2068736141906875,0.3277897306303013
6.240243902439024,0.30952176804558607
6.273614190687361,0.2352006237354715
6.306984478935698,0.1618902106686311
6.340354767184036,0.14368382440180086
6.373725055432373,0.20611496862683604
6.40709534368071,0.33464280256483053
6.4404656319290465,0.4824318798172814
6.473835920177383,0.5929813719191932
6.507206208425721,0.6260557953821403
6.540576496674058,0.5743227767797794
6.573946784922395,0.46329983899330157
6.607317073170732,0.3357217443650008
6.640687361419069,0.22894671463796085
6.674057649667406,0.15695469123785255
6.707427937915743,0.10560325993009179
6.74079822616408,0.04269011751498471
6.774168514412417,-0.06326338893334217
6.807538802660754,-0.22575155309299288
6.840909090909091,-0.433343756616053
6.874279379157428,-0.655760247546025
6.9076496674057655,-0.858424892549715
6.941019955654102,-1.016691192679913
6.974390243902439,-1.1219613157134602
7.007760532150776,-1.1773562396648096
7.041130820399113,-1.186944730209437
7.07450110864745,-1.1459820757209083
7.107871396895788,-1.0384746642055707
7.1412416851441245,-0.8439100430712434
7.174611973392461,-0.5500108441153365
7.207982261640798,-0.1653218660304878
7.241352549889135,0.27471383365970325
7.274722838137472,0.7121004517259372
7.30809312638581,1.0808892033723285
7.341463414634147,1.3274310810898877
7.3748337028824835,1.428515914583938
7.40820399113082,1.3993767912012745
7.441574279379157,1.2870003812840003
7.474944567627494,1.1504486037541266
7.508314855875832,1.036272077347287
7.541685144124169,0.9602322202194666
7.575055432372506,0.9042796028037817
7.6084257206208425,0.8305720438553665
7.641796008869179,0.7056008052752037
7.675166297117517,0.5218646874790659
7.708536585365854,0.3053476435384024
7.741906873614191,0.10427745495225256
7.775277161862528,-0.03540623629088507
7.808647450110865,-0.0951510315919722
7.842017738359202,-0.09615706089899202
7.875388026607539,-0.09223852461834132
7.908758314855876,-0.14650517965617826
7.942128603104213,-0.3033674508257159
7.97549889135255,-0.5693290105293394
8.008869179600888,-0.910999795262445
8.042239467849225,-1.2697865106463258
8.075609756097561,-1.5847760000190232
8.108980044345898,-1.81245564887053
8.142350332594235,-1.935054316097362
8.175720620842572,-1.9560710101335974
8.209090909090909,-1.8880087317135639
8.242461197339246,-1.7402405248352455
8.275831485587583,-1.5134442722734411
8.30920177383592,-1.202640438164648
8.342572062084257,-0.8061469189903652
8.375942350332595,-0.33495338222534604
8.409312638580932,0.18288668045256143
8.442682926829269,0.7055644407153028
8.476053215077606,1.1872885166254843
8.509423503325943,1.5899105336887758
8.54279379157428,1.8907371929208612
8.576164079822616,2.082907625421643
8.609534368070953,2.168987764272498
8.64290465631929,2.152549681819281
8.676274944567627,2.0338257921626806
8.709645232815964,1.812925389007705
8.743015521064303,1.4989453275022109
8.77638580931264,1.118794126300348
8.809756097560976,0.7186721208315495
8.843126385809313,0.35470946479530213
8.87649667405765,0.07531388402397417
8.909866962305987,-0.09714030363703122
8.943237250554324,-0.1764106833868143
8.97660753880266,-0.20868714305002972
9.009977827050998,-0.255625811564546
9.043348115299334,-0.37060566098436565
9.076718403547671,-0.5777584647384221
9.110088691796008,-0.8622067320116009
9.143458980044347,-1.1752390873425826
9.176829268292684,-1.4519447394983083
9.21019955654102,-1.6337981974731104
9.243569844789358,-1.6870079910824556
9.276940133037694,-1.609839858292471
9.310310421286031,-1.427433924997122
9.343680709534368,-1.178248781817139
9.377050997782705,-0.899417367224336
9.410421286031042,-0.6175726270341261
9.443791574279379,-0.34778959392259734
9.477161862527716,-0.09851383482876946
9.510532150776053,0.12270689238726841
9.543902439024391,0.30767062636416886
9.577272727272728,0.451858302612258
9.610643015521065,0.5617810228732623
9.644013303769402,0.6591561930205437
9.677383592017739,0.7760032901760979
9.710753880266076,0.9392673317582717
9.744124168514412,1.1505416358973046
9.77749445676275,1.3719866324229444
9.810864745011086,1.5295751059056693
9.844235033259423,1.5377522228161857
9.87760532150776,1.338042262311314
9.910975609756099,0.9340839807966386
9.944345898004435,0.40346852956834084
9.977716186252772,-0.1244356237839172
10.01108647450111,-0.518746384722636
10.044456762749446,-0.7031948515440837
10.077827050997783,-0.6897513074137217
10.11119733924612,-0.5706519665096428
10.144567627494457,-0.4709113761649877
10.177937915742794,-0.48508540816382745
10.21130820399113,-0.6312967370138481
10.244678492239467,-0.8462407871685235
10.278048780487804,-1.0221583073934484
10.311419068736143,-1.0639570235964495
10.34478935698448,-0.9350205049136292
10.378159645232817,-0.6687163222509651
10.411529933481154,-0.34327377831859957
10.44490022172949,-0.037905998033622705
10.478270509977827,0.2036287682099315
10.511640798226164,0.38305388933659573
10.545011086474501,0.5294181074262317
10.578381374722838,0.6674246768343839
10.611751662971175,0.7933057537273993
10.645121951219512,0.8729480585708363
10.67849223946785,0.8626261532679602
10.711862527716187,0.7391351448784443
10.745232815964524,0.5208757681963246
10.778603104212861,0.26684541258680483
10.811973392461198,0.05291540560217618
10.845343680709535,-0.06280306906137144
10.878713968957872,-0.06777497930349513
10.912084257206208,-0.0016243622812584578
10.945454545454545,0.062382789976865465
10.978824833702882,0.05246375630975712
11.012195121951219,-0.06655781132009693
11.045565410199556,-0.2748049656020501
11.078935698447895,-0.5043833536333999
11.112305986696231,-0.6687972291880733
11.145676274944568,-0.7013947246975479
11.179046563192905,-0.5856194765754074
11.212416851441242,-0.36385228043301077
11.245787139689579,-0.12129703704658798
11.279157427937916,0.04788715198976826
11.312527716186253,0.07785035839185571
11.34589800443459,-0.043464500132512886
11.379268292682926,-0.27038206383331514
11.412638580931263,-0.5178356409882697
11.4460088691796,-0.6939432586383434
11.479379157427939,-0.7336561798947008
11.512749445676276,-0.6205140867835331
11.546119733924613,-0.38852492727892335
11.57949002217295,-0.10385792436729893
11.612860310421286,0.16623933224343032
11.646230598669623,0.3845132655657216
11.67960088691796,0.5608391100827016
11.712971175166297,0.7457435203576059
11.746341463414634,0.9999961296846147
11.77971175166297,1.3516799289481634
11.813082039911308,1.7610370342952129
11.846452328159646,2.1137586017205545
11.879822616407983,2.2527021071608644
11.91319290465632,2.0396612272220658
11.946563192904657,1.4215994957495799
11.979933481152994,0.4696035524619605
12.01330376940133,-0.6312407292031946
12.046674057649668,-1.6404794663983466
12.080044345898004,-2.3453126987802313
12.113414634146341,-2.6318378945897822
12.146784922394678,-2.5143869330691624
12.180155210643015,-2.113492673573308
12.213525498891352,-1.5969834746604106
12.24689578713969,-1.1135931265711063
12.280266075388028,-0.7477376505925827
12.313636363636364,-0.5099286152849278
12.347006651884701,-0.35846085666488986
12.380376940133038,-0.2346152532863413
12.413747228381375,-0.09162340207764337
12.447117516629712,0.09380168613746179
12.480487804878049,0.3259293706347165
12.513858093126386,0.6001903336143956
12.547228381374723,0.9083305822044765
12.58059866962306,1.2346367107008311
12.613968957871396,1.5479702220082499
12.647339246119735,1.7987659064896462
12.680709534368072,1.9276185288733623
12.714079822616409,1.8845622308648509
12.747450110864746,1.6506069422050087
12.780820399113082,1.2502561919662023
12.81419068736142,0.7473832658345025
12.847560975609756,0.22506987172947251
12.880931263858093,-0.24166161206242834
12.91430155210643,-0.6075257251687309
12.947671840354767,-0.8634449545565727
12.981042128603104,-1.0265408581706026
13.014412416851442,-1.1211991971566635
13.04778270509978,-1.1628913121096673
13.081152993348116,-1.153553619987864
13.114523281596453,-1.089496988325455
13.14789356984479,-0.9750460941502728
13.181263858093127,-0.8320177907705896
13.214634146341464,-0.6981137602867565
13.2480044345898,-0.6139875882888478
13.281374722838137,-0.605039039821661
13.314745011086474,-0.6666984659799664
13.348115299334811,-0.7603697849001364
13.381485587583148,-0.8227301516942499
13.414855875831487,-0.7859053503240375
13.448226164079824,-0.6019038463899976
13.48159645232816,-0.2626890351578334
13.514966740576497,0.191973420235713
13.548337028824834,0.6831338343706798
13.581707317073171,1.1162620614272072
13.615077605321508,1.4122968371400173
13.648447893569845,1.5345689408178163
13.681818181818182,1.500195670420368
13.715188470066519,1.3698595325349137
13.748558758314855,1.2190510424504761
13.781929046563192,1.1030966384732541
13.815299334811531,1.0326688157877997
13.848669623059868,0.9726086645733186
13.882039911308205,0.8655425195775548
13.915410199556542,0.6683161046000209
13.948780487804878,0.38121872708871307
13.982150776053215,0.05269580751422077
14.015521064301552,-0.2446554225058167
14.048891352549889,-0.4542696507585663
14.082261640798226,-0.5687602518482348
14.115631929046563,-0.6352470077217229
14.1490022172949,-0.7273502292079465
14.182372505543238,-0.8982232113640025
14.215742793791575,-1.141672920627342
14.249113082039912,-1.3855242125979612
14.282483370288249,-1.5236276965222588
14.315853658536586,-1.4703663738955797
14.349223946784923,-1.207774506147042
14.38259423503326,-0.799013002484151
14.415964523281596,-0.36089046569930466
14.449334811529933,-0.010918952542202104
14.48270509977827,0.18251338407048615
14.516075388026607,0.22205050462340742
14.549445676274944,0.16783674117015818
14.582815964523283,0.100611544531278
14.61618625277162,0.08383513108354007
14.649556541019956,0.14354525707577956
14.682926829268293,0.2711118741428159
14.71629711751663,0.44026765832471665
14.749667405764967,0.6240573386030918
14.783037694013304,0.8016838650590454
14.81640798226164,0.954996556432467
14.849778270509978,1.0622174299847924
14.883148558758315,1.0974776516931657
14.916518847006651,1.0390851771387546
14.949889135254988,0.8817724112941904
14.983259423503327,0.6440333212431724
15.016629711751664,0.3639615144504497
15.05,0.08428011900460833
15.083370288248338,-0.1653289737576595
15.116740576496674,-0.37802215241985404
15.150110864745011,-0.5655647357942343
15.183481152993348,-0.7425947331904366
15.216851441241685,-0.9092581559549249
15.250221729490022,-1.043361099728819
15.283592017738359,-1.1075592879729115
15.316962305986696,-1.068199368127112
15.350332594235034,-0.9156997065129744
15.383702882483371,-0.6755255285199631
15.417073170731708,-0.40375532850614276
15.450443458980045,-0.16866917447807359
15.483813747228382,-0.025796002380029482
15.517184035476719,0.0038303044919970547
15.550554323725056,-0.056101901524132185
15.583924611973393,-0.1427774112702334
15.61729490022173,-0.17477467310707342
15.650665188470066,-0.08144613080558488
15.684035476718403,0.16867576127926331
15.71740576496674,0.5511719587584595
15.750776053215079,0.9884586160407972
15.784146341463416,1.3730484095802862
15.817516629711752,1.6042225398379284
15.85088691796009,1.6244898713961347
15.884257206208426,1.4408296053652598
15.917627494456763,1.120945258909516
15.9509977827051,0.7649923148686935
15.984368070953437,0.46415247984246993
16.017738359201775,0.26390637782103843
16.05110864745011,0.14847802610727162
16.08447893569845,0.053741196844399236
16.117849223946784,-0.09724961447436119
16.151219512195123,-0.35281118223602936
16.184589800443458,-0.7049925637209391
16.217960088691797,-1.088781256639933
16.251330376940132,-1.4080601691375907
16.28470066518847,-1.5754656969630336
16.31807095343681,-1.547455807343017
16.351441241685144,-1.339532685555023
16.384811529933483,-1.017036241531054
16.418181818181818,-0.6682812993602087
16.451552106430157,-0.3733999515722475
16.48492239467849,-0.18168744974164133
16.51829268292683,-0.10411529455037233
16.551662971175165,-0.11995960025420142
16.585033259423504,-0.1911127482659204
16.61840354767184,-0.2765255990055976
16.651773835920178,-0.34177706564056054
16.685144124168513,-0.36273526749634
16.71851441241685,-0.32528054854741373
16.75188470066519,-0.22388429097175958
16.785254988913525,-0.06078280015766454
16.818625277161864,0.1541902419063814
16.8519955654102,0.40411295733068975
16.885365853658538,0.6667879598254886
16.918736141906873,0.9180141317745689
16.95210643015521,1.1355936121292665
16.985476718403547,1.302901412714154
17.018847006651885,1.410922923756588
17.05221729490022,1.458114816543619
17.08558758314856,1.448105117350664
17.118957871396898,1.3860018209246967
17.152328159645233,1.2747350354896294
17.18569844789357,1.11309213709115
17.219068736141907,0.8966347827989974
17.252439024390245,0.62154265018496
17.28580931263858,0.290053756157904
17.31917960088692,-0.08479424482288063
17.352549889135254,-0.4774881466831824
17.385920177383593,-0.8528699091376427
17.419290465631928,-1.1732719310325406
