Frequency (Hz),Amplitude
0.0,1.2626144755118451
0.020066889632107024,1.2635118253941373
0.04013377926421405,1.2661966404151244
0.060200668896321065,1.2706473823499889
0.0802675585284281,1.2768286969998397
0.10033444816053512,1.284692196744133
0.12040133779264213,1.2941774959825278
0.14046822742474915,1.3052134464887644
0.1605351170568562,1.3177195135513111
0.1806020066889632,1.331607232502348
0.20066889632107024,1.3467816883384855
0.22073578595317725,1.363142967688213
0.24080267558528426,1.3805875412354054
0.2608695652173913,1.399009544692816
0.2809364548494983,1.4183019364926888
0.3010033444816054,1.438357519711681
0.3210702341137124,1.4590698238297792
0.34113712374581934,1.4803338484519613
0.3612040133779264,1.5020466760267095
0.3812709030100334,1.5241079639673354
0.4013377926421405,1.5464203286108846
0.42140468227424743,1.5688896343768515
0.4414715719063545,1.5914252015664803
0.4615384615384615,1.613939945710161
0.4816053511705685,1.6363504604313759
0.5016722408026756,1.6585770546193197
0.5217391304347826,1.6805437534184509
0.5418060200668896,1.7021782712471096
0.5618729096989966,1.723411963813791
0.5819397993311036,1.7441797649496655
0.6020066889632107,1.7644201130421582
0.6220735785953176,1.7840748709457301
0.6421404682274248,1.8030892424623772
0.6622073578595318,1.821411687819301
0.6822742474916387,1.8389938400151005
0.7023411371237458,1.8557904234468479
0.7224080267558528,1.8717591758565275
0.7424749163879598,1.8868607743347332
0.7625418060200668,1.901058765880907
0.7826086956521738,1.9143195028331093
0.802675585284281,1.9266120833371538
0.8227424749163879,1.9379082969174832
0.8428093645484949,1.9481825751337174
0.862876254180602,1.9574119472518219
0.882943143812709,1.9655760008229355
0.903010033444816,1.9726568470418564
0.923076923076923,1.9786390907482792
0.9431438127090299,1.9835098049342215
0.963210702341137,1.9872585096288757
0.983277591973244,1.989877155045443
1.0033444816053512,1.9913601088921995
1.0234113712374582,1.9917041477708326
1.0434782608695652,1.990908452608264
1.0635451505016722,1.9889746080927098
1.0836120401337792,1.985906606110243
1.1036789297658862,1.9817108532038017
1.1237458193979932,1.9763961821017912
1.1438127090301002,1.9699738673878537
1.1638795986622072,1.9624576454058156
1.1839464882943145,1.95386373851392
1.2040133779264215,1.9442108838188925
1.2240802675585283,1.933520366532149
1.2441471571906353,1.9218160580960186
1.2642140468227423,1.9091244592250738
1.2842809364548495,1.8954747479949643
1.3043478260869565,1.8808988330846703
1.3244147157190636,1.865431412235403
1.3444816053511706,1.8491100359255956
1.3645484949832773,1.8319751761715946
1.3846153846153846,1.8140703002420913
1.4046822742474916,1.7954419489131999
1.4247491638795986,1.776139818682684
1.4448160535117056,1.7562168470959711
1.4648829431438126,1.7357293000030947
1.4849498327759196,1.7147368591520777
1.5050167224080266,1.6933027080185146
1.5250836120401337,1.671493613160635
1.5451505016722407,1.6493799976616772
1.5652173913043477,1.6270360023690145
1.5852842809364547,1.6045395296557896
1.605351170568562,1.5819722633203108
1.625418060200669,1.5594196570134857
1.6454849498327757,1.5369708822756827
1.6655518394648827,1.514718725922257
1.6856187290969897,1.492759425219692
1.705685618729097,1.4711924281538056
1.725752508361204,1.450120065257256
1.745819397993311,1.4296471191256537
1.765886287625418,1.409880278137969
1.7859531772575248,1.3909274622616883
1.806020066889632,1.372897011428962
1.826086956521739,1.3558967310511532
1.846153846153846,1.3400327949601403
1.866220735785953,1.3254085134579492
1.8862876254180598,1.312122983065909
1.9063545150501673,1.3002696445865436
1.926421404682274,1.2899347865457131
1.9464882943143813,1.2811960410185714
1.966555183946488,1.2741209271076268
1.9866220735785953,1.2687655027065803
2.0066889632107023,1.265173186533134
2.026755852842809,1.2633738089545314
2.0468227424749164,1.263382941591917
2.0668896321070234,1.2652015424555096
2.0869565217391304,1.2688159364877516
2.1070234113712374,1.2741981324869898
2.1270903010033444,1.2813064583842493
2.1471571906354514,1.2900864796994649
2.1672240802675584,1.3004721523637701
2.1872909698996654,1.3123871520754264
2.2073578595317724,1.3257463184051257
2.2274247491638794,1.3404571527697144
2.2474916387959865,1.3564213144017738
2.267558528428094,1.3735360664614173
2.2876254180602005,1.3916956342426359
2.3076923076923075,1.410792447854022
2.3277591973244145,1.4307182518311734
2.3478260869565215,1.4513650731593717
2.367892976588629,1.4726260467220817
2.3879598662207355,1.494396103065399
2.408026755852843,1.516572527598435
2.4280936454849495,1.5390554030876213
2.4481605351170566,1.5617479487794523
2.468227424749164,1.5845567699600474
2.4882943143812706,1.6073920314883314
2.508361204013378,1.6301675680514345
2.5284280936454846,1.6528009427802026
2.548494983277592,1.6752134645823378
2.568561872909699,1.6973301732154222
2.5886287625418056,1.7190797998132465
2.608695652173913,1.7403947093494752
2.6287625418060196,1.7612108304042229
2.648829431438127,1.7814675766069186
2.668896321070234,1.8011077632662484
2.688963210702341,1.8200775219614516
2.709030100334448,1.838326215249586
2.7290969899665547,1.8558063531291507
2.749163879598662,1.8724735124798844
2.769230769230769,1.8882862603581936
2.789297658862876,1.90320608175655
2.809364548494983,1.917197312221799
2.82943143812709,1.9302270755626056
2.849498327759197,1.9422652267509957
2.869565217391304,1.9532843000309295
2.8896321070234112,1.9632594621806567
2.9096989966555182,1.9721684708313652
2.9297658862876252,1.9799916377170654
2.9498327759197323,1.9867117967170325
2.9698996655518393,1.9923142765486759
2.9899665551839463,1.996786877974407
3.0100334448160533,2.0001198553975246
3.0301003344481603,2.00230590273913
3.0501672240802673,2.0033401435085363
3.0702341137123748,2.0032201250030788
3.0903010033444813,2.0019458165984942
3.1103678929765888,1.9995196121176824
3.1304347826086953,1.9959463362928132
3.1505016722408024,1.9912332553632288
3.1705685618729094,1.985390091878143
3.1906354515050164,1.9784290437991698
3.210702341137124,1.970364808020856
3.2307692307692304,1.961214608449022
3.250836120401338,1.9509982287934156
3.270903010033445,1.9397380502432269
3.2909698996655514,1.927459094199365
3.311036789297659,1.914189070233368
3.3311036789297654,1.8999584294278962
3.351170568561873,1.884800423223915
3.3712374581939795,1.8687511678512945
3.391304347826087,1.851849714348265
3.411371237458194,1.8341381240745984
3.4314381270903005,1.8156615494870083
3.451505016722408,1.7964683197653069
3.471571906354515,1.7766100306438921
3.491638795986622,1.7561416375055618
3.511705685618729,1.7351215504200175
3.531772575250836,1.7136117293452888
3.551839464882943,1.6916777771424047
3.5719063545150496,1.6693890273675371
3.591973244147157,1.6468186229895052
3.612040133779264,1.624043581224056
3.632107023411371,1.6011448385750748
3.652173913043478,1.5782072689330942
3.672240802675585,1.555319666220028
3.692307692307692,1.5325746816249273
3.712374581939799,1.5100687040104899
3.732441471571906,1.4879016706805308
3.752508361204013,1.4661767945176993
3.7725752508361197,1.445000192708488
3.7926421404682276,1.4244804020905757
3.8127090301003346,1.4047277668520004
3.832775919732441,1.3858536861689452
3.852842809364548,1.367969712679348
3.872909698996655,1.3511864976941206
3.8929765886287626,1.3356125858911905
3.9130434782608696,1.3213530708931678
3.933110367892976,1.3085081333343263
3.953177257525083,1.2971714942208399
3.9732441471571907,1.287428827707075
3.9933110367892977,1.2793561876956818
4.013377926421405,1.273018510583073
4.033444816053511,1.2684682606703053
4.053511705685618,1.265744284118688
4.073578595317726,1.2648709311880117
4.093645484949833,1.2658574948550005
4.113712374581939,1.2686979975320658
4.133779264214047,1.2733713379700258
4.153846153846153,1.2798417895300818
4.173913043478261,1.2880598210534755
4.193979933110368,1.297963194588986
4.214046822742475,1.3094782818266228
4.234113712374581,1.322521534101359
4.254180602006689,1.3370010393819152
4.274247491638796,1.3528181031721165
4.294314381270903,1.3698687976572579
4.314381270903009,1.3880454334015793
4.334448160535117,1.4072379190989515
4.354515050167224,1.427334986111673
4.374581939799331,1.4482252648873648
4.394648829431437,1.4697982092218276
4.414715719063545,1.4919448714332886
4.434782608695651,1.5145585367740615
4.454849498327759,1.5375352289512467
4.474916387959866,1.5607741006885343
4.494983277591973,1.5841777241195896
4.5150501672240795,1.607652295748197
4.535117056856188,1.631107770008819
4.555183946488294,1.6544579343423025
4.575250836120401,1.6776204373489167
4.595317725752508,1.700516780135011
4.615384615384615,1.7230722795306554
4.635451505016722,1.7452160104905354
4.655518394648829,1.7668807337404815
4.6755852842809364,1.7880028136175774
4.695652173913043,1.8085221300802161
4.71571906354515,1.8283819880329868
4.735785953177258,1.8475290264103188
4.7558528428093645,1.8659131288813287
4.775919732441471,1.883487337561558
4.795986622073578,1.9002077707320706
4.816053511705686,1.9160335452589856
4.8361204013377925,1.930926704164707
4.856187290969899,1.9448521496152333
4.8762541806020065,1.957777581445915
4.896321070234113,1.9696734412429522
4.916387959866221,1.9805128619229289
4.936454849498328,1.9902716227013522
4.956521739130435,1.9989281093095408
4.976588628762541,2.0064632793022996
4.996655518394649,2.012860632294383
5.016722408026756,2.0181061849684845
5.036789297658863,2.0221884507094683
5.056856187290969,2.0250984237374907
5.076923076923077,2.0268295676343633
5.096989966555184,2.0273778081830547
5.117056856187291,2.026741530467565
5.137123745819398,2.024921580209682
5.157190635451505,2.021921269349494
5.177257525083611,2.0177463859070324
5.197324414715719,2.012405208193409
5.217391304347826,2.005908523469544
5.237458193979933,1.998269651179617
5.257525083612039,1.9895044709130967
5.277591973244148,1.979631455273147
5.297658862876254,1.9686717078488303
5.317725752508361,1.9566490065030762
5.337792642140468,1.9435898521950254
5.357859531772575,1.92952352355265
5.377926421404682,1.914482137396159
5.397993311036789,1.8985007153810458
5.418060200668896,1.8816172568773908
5.438127090301003,1.8638728181236321
5.458193979933109,1.8453115975816183
5.478260869565218,1.825981027267852
5.498327759197324,1.8059318696333213
5.518394648829431,1.7852183193002753
5.538461538461538,1.763898108626026
5.558528428093646,1.7420326156364705
5.578595317725752,1.7196869723398265
5.598662207357859,1.6969301707772932
5.618729096989966,1.6738351633747466
5.638795986622073,1.650478953213716
5.65886287625418,1.6269426687282191
5.678929765886288,1.6033116160528205
5.698996655518394,1.5796753008025435
5.719063545150501,1.556127409480664
5.739130434782608,1.5327657390334313
5.759197324414716,1.5096920613797247
5.7792642140468224,1.4870119081591981
5.799331103678929,1.4648342596315618
5.8193979933110365,1.443271120845658
5.839464882943144,1.422436968155461
5.8595317725752505,1.402448050215936
5.879598662207358,1.3834215300917665
5.8996655518394645,1.3654744593938324
5.919732441471571,1.3487225816888597
5.9397993311036785,1.3332789709304587
5.959866220735786,1.3192525212305
5.9799331103678925,1.3067463165106432
5.999999999999999,1.2958559216578602
6.020066889632107,1.2866676495888083
6.040133779264214,1.279256869630167
6.060200668896321,1.2736864302182465
6.080267558528428,1.2700052715790293
6.100334448160535,1.268247300625054
6.120401337792642,1.2684305903315884
6.1404682274247495,1.2705569497383051
6.160535117056856,1.27461188979374
6.180602006688963,1.2805649866208735
6.200668896321069,1.2883706199904548
6.2207357859531776,1.2979690434247741
6.240802675585284,1.3092877255896782
6.260869565217391,1.3222428918900515
6.280936454849498,1.3367411909751692
6.301003344481605,1.3526814128093345
6.321070234113712,1.3699561919925178
6.341137123745819,1.388453640627716
6.361204013377926,1.408058867602736
6.381270903010033,1.428655354189055
6.40133779264214,1.450126168158988
6.421404682274248,1.472355009356648
6.441471571906354,1.4952270883737067
6.461538461538461,1.5186298465397217
6.481605351170568,1.542453529939747
6.501672240802676,1.5665916328704808
6.521739130434782,1.590941227368958
6.54180602006689,1.6154031955407213
6.561872909698996,1.6398823807020422
6.581939799331103,1.6642876721138269
6.60200668896321,1.6885320365497893
6.622073578595318,1.7125325082815703
6.642140468227424,1.7362101474027636
6.662207357859531,1.7594899748351145
6.682274247491639,1.7823008909141012
6.702341137123746,1.8045755831635468
6.722408026755852,1.82625042774873
6.742474916387959,1.8472653881407246
6.762541806020066,1.8675639137217648
6.782608695652174,1.8870928403968674
6.80267558528428,1.905802294734938
6.822742474916388,1.9236456027261768
6.842809364548494,1.9405792038962812
6.862876254180601,1.9565625712469201
6.882943143812709,1.9715581372835558
6.903010033444816,1.9855312262345748
6.9230769230769225,1.9984499924503503
6.94314381270903,2.0102853648890697
6.963210702341137,2.0210109975413406
6.983277591973244,2.0306032256121913
7.0033444816053505,2.03904102726239
7.023411371237458,2.0463059907076255
7.0434782608695645,2.0523822864810226
7.063545150501672,2.0572566446790828
7.083612040133779,2.0609183370322435
7.103678929765886,2.063359163666571
7.123745819397993,2.064573444452221
7.143812709030099,2.0645580148659715
7.1638795986622075,2.0633122263285517
7.183946488294314,2.060837951012426
7.204013377926421,2.0571395911513752
7.224080267558528,2.0522240929191433
7.2441471571906355,2.0461009649804796
7.264214046822742,2.0387823018530997
7.2842809364548495,2.030282812253256
7.304347826086956,2.0206198526295402
7.324414715719063,2.0098134661189175
7.34448160535117,1.9978864271835133
7.364548494983278,1.9848642922060995
7.384615384615384,1.9707754563332207
7.404682274247491,1.9556512168555515
7.424749163879598,1.9395258434019513
7.444816053511706,1.9224366551922503
7.464882943143812,1.904424105539179
7.48494983277592,1.8855318737053495
7.505016722408026,1.8658069640986426
7.525083612040134,1.845299812619574
7.545150501672239,1.8240643997449244
7.565217391304348,1.8021583696298593
7.585284280936455,1.7796431541197335
7.605351170568561,1.7565841000646971
7.625418060200669,1.7330505977045914
7.645484949832775,1.7091162071176444
7.665551839464882,1.6848587787816462
7.685618729096991,1.6603605631611793
7.705685618729096,1.6357083028932613
7.725752508361204,1.610993299589772
7.74581939799331,1.5863114455156173
7.765886287625418,1.5617632084661222
7.785953177257525,1.5374535561161704
7.806020066889631,1.5134918040491554
7.826086956521739,1.4899913697526943
7.846153846153847,1.467069413309259
7.866220735785952,1.4448463446065383
7.88628762541806,1.4234451770059893
7.906354515050166,1.4029907089601674
7.926421404682274,1.3836085185067688
7.946488294314381,1.365423761309151
7.966555183946488,1.3485597712679123
7.986622073578595,1.3331364737910139
8.006688963210701,1.319268635345267
8.02675585284281,1.307063988249457
8.046822742474916,1.2966212856411041
8.066889632107022,1.2880283565116109
8.08695652173913,1.2813602426710944
8.107023411371236,1.2766775064048868
8.127090301003344,1.2740247976286474
8.147157190635452,1.2734297614286083
8.167224080267557,1.27490235090319
8.187290969899665,1.2784345873184924
8.207357859531772,1.2840007820042247
8.227424749163879,1.291558205209708
8.247491638795987,1.30104815965758
8.267558528428093,1.3123973938126219
8.2876254180602,1.3255197741346425
8.307692307692307,1.3403181278771206
8.327759197324415,1.3566861682005704
8.347826086956522,1.3745104203569207
8.367892976588628,1.3936720796693094
8.387959866220736,1.4140487469210636
8.408026755852843,1.4355160026104752
8.42809364548495,1.4579487967077067
8.448160535117056,1.4812226439222156
8.468227424749163,1.505214625404118
8.488294314381271,1.5298042060369657
8.508361204013378,1.554873882133904
8.528428093645484,1.5803096777334176
8.548494983277592,1.6060015092192867
8.568561872909697,1.6318434381044309
8.588628762541806,1.6577338309334309
8.608695652173914,1.6835754437307484
8.628762541806019,1.7092754465371052
8.648829431438127,1.734745401551387
8.668896321070234,1.7599012063825845
8.68896321070234,1.784663012016784
8.709030100334449,1.8089551233759311
8.729096989966555,1.8327058888189698
8.749163879598662,1.8558475836171413
8.769230769230768,1.878316291319044
8.789297658862875,1.900051785991246
8.809364548494983,1.9209974175575457
8.82943143812709,1.9411000018437075
8.849498327759196,1.960309716442829
8.869565217391303,1.9785800031303498
8.889632107023411,1.9958674772591973
8.909698996655518,2.0121318443386875
8.929765886287624,2.0273358238325794
8.949832775919733,2.041445080090399
8.96989966555184,2.0544281602423267
8.989966555183946,2.0662564388340336
9.010033444816054,2.0769040689471328
9.030100334448159,2.086347939538382
9.050167224080267,2.0945676387323897
9.070234113712376,2.1015454228150117
9.09030100334448,2.1072661906951877
9.110367892976589,2.111717463629979
9.130434782608695,2.1148893700390086
9.150501672240802,2.1167746352699495
9.17056856187291,2.11736857621431
9.190635451505017,2.116669100712653
9.210702341137123,2.114676711729729
9.23076923076923,2.111394516322216
9.250836120401337,2.1068282394648596
9.270903010033445,2.100986242844187
9.290969899665551,2.093879548772267
9.311036789297658,2.0855218694159756
9.331103678929765,2.0759296415790955
9.351170568561873,2.065122067314648
9.37123745819398,2.0531211606822413
9.391304347826086,2.0399518009982915
9.411371237458194,2.025641792954299
9.4314381270903,2.0102219339972365
9.451505016722408,1.9937260893737545
9.471571906354516,1.9761912752322268
9.49163879598662,1.9576577501486758
9.511705685618729,1.9381691153880325
9.531772575250837,1.9177724241228487
9.551839464882942,1.896518299697869
9.57190635451505,1.8744610628383962
9.591973244147155,1.8516588674385508
9.612040133779264,1.8281738442145148
9.632107023411372,1.8040722510471798
9.652173913043477,1.779424628244266
9.672240802675585,1.7543059561964403
9.692307692307692,1.7287958119575542
9.712374581939798,1.702978520114176
9.732441471571907,1.676943291897338
9.752508361204013,1.650784344805817
9.77257525083612,1.6246009930442897
9.792642140468226,1.5984976968380162
9.812709030100335,1.5725840562052282
9.832775919732441,1.5469747321286382
9.852842809364548,1.5217892754065492
9.872909698996656,1.49715184099513
9.89297658862876,1.4731907636814645
9.91304347826087,1.4500379698562207
9.933110367892976,1.4278282004912057
9.953177257525082,1.4066980227512782
9.97324414715719,1.3867846125942354
9.993311036789297,1.368224298787051
10.013377926421404,1.3511508703617723
10.033444816053512,1.3356936646768318
10.053511705685617,1.3219754714598813
10.073578595317725,1.3101103083589138
10.093645484949834,1.300201143789719
10.113712374581938,1.2923376607898263
10.133779264214047,1.2865941683680535
10.153846153846153,1.2830277717607792
10.17391304347826,1.2816769080120456
10.193979933110368,1.2825603375388144
10.214046822742475,1.2856766565820266
10.234113712374581,1.2910043621141984
10.254180602006688,1.29850246367174
10.274247491638796,1.3081116002059654
10.294314381270903,1.3197555887573758
10.31438127090301,1.3333433089613966
10.334448160535118,1.3487708149914202
10.354515050167223,1.3659235647496748
10.37458193979933,1.3846786636421804
10.394648829431437,1.4049070348007078
10.414715719063544,1.4264754463605487
10.434782608695652,1.449248346658624
10.454849498327757,1.4730894777295191
10.474916387959865,1.497863254654303
10.494983277591974,1.5234359122565917
10.515050167224079,1.54967643104083
10.535117056856187,1.5764572612798387
10.555183946488295,1.6036548682164886
10.5752508361204,1.6311501230206096
10.595317725752508,1.6588285640367422
10.615384615384615,1.6865805515239474
10.635451505016722,1.7143013369935103
10.65551839464883,1.741891065762003
10.675585284280936,1.769254728726721
10.695652173913043,1.796302076824285
10.71571906354515,1.8229475092682552
10.735785953177256,1.8491099445425205
10.755852842809364,1.874712681281063
10.775919732441471,1.8996832545917024
10.795986622073578,1.9239532920678735
