Frequency (Hz),Amplitude
0.0,0.23947587868420772
0.020066889632107024,0.25847304344401306
0.04013377926421405,0.3084635895389779
0.060200668896321065,0.3771751795433405
0.0802675585284281,0.4560220783117431
0.10033444816053512,0.5403473335517593
0.12040133779264213,0.6276833721808185
0.14046822742474915,0.7166495285215412
0.1605351170568562,0.8064136747948744
0.1806020066889632,0.8964349187677552
0.20066889632107024,0.9863358624945178
0.22073578595317725,1.0758358412386702
0.24080267558528426,1.1647142145046405
0.2608695652173913,1.2527892281118684
0.2809364548494983,1.339905337632816
0.3010033444816054,1.4259253330117636
0.3210702341137124,1.510725294807304
0.34113712374581934,1.5941912787701848
0.3612040133779264,1.676217087969284
0.3812709030100334,1.7567027480215038
0.4013377926421405,1.835553447952184
0.42140468227424743,1.912678796094252
0.4414715719063545,1.9879922932355074
0.4615384615384615,2.0614109581284525
0.4816053511705685,2.132855061456583
0.5016722408026756,2.202247938008843
0.5217391304347826,2.269515855876023
0.5418060200668896,2.3345879276025663
0.5618729096989966,2.3973960524266267
0.5819397993311036,2.457874881666436
0.6020066889632107,2.515961801377288
0.6220735785953176,2.571596927881627
0.6421404682274248,2.624723112845366
0.6622073578595318,2.6752859553575394
0.6822742474916387,2.7232338190510017
0.7023411371237458,2.7685178527359646
0.7224080267558528,2.8110920133460784
0.7424749163879598,2.850913090246643
0.7625418060200668,2.8879407301468163
0.7826086956521738,2.9221374620070115
0.802675585284281,2.953468721449376
0.8227424749163879,2.981902874271709
0.8428093645484949,3.0074112387388854
0.862876254180602,3.0299681063850024
0.882943143812709,3.049550761107987
0.903010033444816,3.066139496377892
0.923076923076923,3.0797176304135085
0.9431438127090299,3.090271519209688
0.963210702341137,3.0977905673219848
0.983277591973244,3.1022672363362247
1.0033444816053512,3.103697050969453
1.0234113712374582,3.102078602765777
1.0434782608695652,3.0974135513669547
1.0635451505016722,3.089706623352837
1.0836120401337792,3.0789656086623958
1.1036789297658862,3.06520135462154
1.1237458193979932,3.048427757620617
1.1438127090301002,3.028661752501924
1.1638795986622072,3.0059232997374488
1.1839464882943145,2.980235370498696
1.2040133779264215,2.95162392974628
1.2240802675585283,2.920117917496175
1.2441471571906353,2.8857492284550985
1.2642140468227423,2.8485526902597456
1.2842809364548495,2.8085660406062503
1.3043478260869565,2.7658299036199567
1.3244147157190636,2.720387765894593
1.3444816053511706,2.6722859527293714
1.3645484949832773,2.6215736052182486
1.3846153846153846,2.5683026590065303
1.4046822742474916,2.512527825737285
1.4247491638795986,2.4543065784797786
1.4448160535117056,2.3936991427861756
1.4648829431438126,2.330768495491801
1.4849498327759196,2.265580374001716
1.5050167224080266,2.1982032996541028
1.5250836120401337,2.1287086199092813
1.5451505016722407,2.0571705757125827
1.5652173913043477,1.9836664026163473
1.5852842809364547,1.9082764774141228
1.605351170568562,1.8310845265895812
1.625418060200669,1.7521779195142573
1.6454849498327757,1.6716480791518342
1.6655518394648827,1.5895910578358585
1.6856187290969897,1.5061083484409432
1.705685618729097,1.4213080369603066
1.725752508361204,1.3353064597799058
1.745819397993311,1.2482306231787237
1.765886287625418,1.1602218019551656
1.7859531772575248,1.0714410118832833
1.806020066889632,0.9820775513953052
1.826086956521739,0.8923627440501298
1.846153846153846,0.8025928351983939
1.866220735785953,0.7131686963826779
1.8862876254180598,0.6246678376501208
1.9063545150501673,0.537981504158055
1.926421404682274,0.4545882070516996
1.9464882943143813,0.3771153854206378
1.966555183946488,0.31044393747067217
1.9866220735785953,0.26326762039160767
2.0066889632107023,0.24723703097696315
2.026755852842809,0.26806095860342743
2.0468227424749164,0.31852627453783494
2.0668896321070234,0.3870608019566123
2.0869565217391304,0.4655499729077527
2.1070234113712374,0.5495058105918098
2.1270903010033444,0.6365051738958837
2.1471571906354514,0.7251728023539127
2.1672240802675584,0.8146715605014012
2.1872909698996654,0.9044537981736288
2.2073578595317724,0.9941360017802083
2.2274247491638794,1.083432515723408
2.2474916387959865,1.1721187680401066
2.267558528428094,1.2600099426196156
2.2876254180602005,1.346948114256712
2.3076923076923075,1.4327942175831176
2.3277591973244145,1.517422882430331
2.3478260869565215,1.6007190267168754
2.367892976588629,1.6825755594980845
2.3879598662207355,1.7628918041030421
2.408026755852843,1.8415723995127533
2.4280936454849495,1.918526526123696
2.4481605351170566,1.99366735570793
2.468227424749164,2.066911658930384
2.4882943143812706,2.1381795252332867
2.508361204013378,2.2073941638951684
2.5284280936454846,2.2744817643800563
2.548494983277592,2.339371400390073
2.568561872909699,2.401994966363855
2.5886287625418056,2.462287138183979
2.608695652173913,2.520185351992833
2.6287625418060196,2.575629796547257
2.648829431438127,2.6285634156517172
2.668896321070234,2.6789319180239217
2.688963210702341,2.7266837925495
2.709030100334448,2.7717703273340626
2.7290969899665547,2.8141456313019355
2.749163879598662,2.853766657351466
2.769230769230769,2.890593226276961
2.789297658862876,2.924588050823197
2.809364548494983,2.955716759360261
2.82943143812709,2.9839479187631124
2.849498327759197,3.009253056157273
2.869565217391304,3.0316066792539416
2.8896321070234112,3.0509862950488555
2.9096989966555182,3.067372426700301
2.9297658862876252,3.080748628437276
2.9498327759197323,3.091101498377593
2.9698996655518393,3.098420689161703
2.9899665551839463,3.102698916330129
3.0100334448160533,3.1039319643926016
3.0301003344481603,3.102118690555336
3.0501672240802673,3.0972610260906124
3.0702341137123748,3.0893639753495328
3.0903010033444813,3.078435612436102
3.1103678929765888,3.064487075578126
3.1304347826086953,3.0475325592491362
3.1505016722408024,3.027589304115683
3.1705685618729094,3.004677584906933
3.1906354515050164,2.978820696329061
3.210702341137124,2.9500449371765805
3.2307692307692304,2.918379592827745
3.250836120401338,2.883856916352701
3.270903010033445,2.8465121085136094
3.2909698996655514,2.806383296997347
3.311036789297659,2.7635115152975174
3.3311036789297654,2.717940681757215
3.351170568561873,2.669717579403018
3.3712374581939795,2.618891837351917
3.391304347826087,2.56551591476599
3.411371237458194,2.5096450885791572
3.4314381270903005,2.4513374465446884
3.451505016722408,2.3906538875782455
3.471571906354515,2.327658131935481
3.491638795986622,2.2624167445183394
3.511705685618729,2.194999175623836
3.531772575250836,2.1254778248417625
3.551839464882943,2.0539281357301142
3.5719063545150496,1.9804287315834916
3.591973244147157,1.9050616064110917
3.612040133779264,1.8279123906944628
3.632107023411371,1.7490707194351114
3.652173913043478,1.6686307417457829
3.672240802675585,1.5866918289106517
3.692307692307692,1.5033595649303604
3.712374581939799,1.4187471459484933
3.732441471571906,1.3329773827366167
3.752508361204013,1.2461856114656893
3.7725752508361197,1.1585240047958676
3.7926421404682276,1.0701680987305249
3.8127090301003346,0.9813269284343357
3.832775919732441,0.8922592338227812
3.852842809364548,0.8033002403399426
3.872909698996655,0.714907580246415
3.8929765886287626,0.6277432483772372
3.9130434782608696,0.5428258944518498
3.933110367892976,0.46182325157737425
3.953177257525083,0.38761502048098395
3.9732441471571907,0.3252737769104329
3.9933110367892977,0.28307085765400414
4.013377926421405,0.2707858469633019
4.033444816053511,0.29226249478050936
4.053511705685618,0.3411133756487199
4.073578595317726,0.4074621881840269
4.093645484949833,0.48396508525534515
4.113712374581939,0.5662852154141155
4.133779264214047,0.6519614980908112
4.153846153846153,0.7395499135458127
4.173913043478261,0.8281533217127521
4.193979933110368,0.9171783955338393
4.214046822742475,1.0062080760996897
4.234113712374581,1.0949321731996402
4.254180602006689,1.1831080333219086
4.274247491638796,1.270537354892457
4.294314381270903,1.3570520226428766
4.314381270903009,1.4425051716666142
4.334448160535117,1.5267653900154992
4.354515050167224,1.6097128645078245
4.374581939799331,1.69123676393027
4.394648829431437,1.7712334303200623
4.414715719063545,1.8496051100560351
4.434782608695651,1.9262590529555093
4.454849498327759,2.0011068668659546
4.474916387959866,2.0740640525504395
4.494983277591973,2.1450496676556283
4.5150501672240795,2.2139860842835373
4.535117056856188,2.280798815195969
4.555183946488294,2.3454163908165335
4.575250836120401,2.4077702741179934
4.595317725752508,2.4677948039272586
4.615384615384615,2.5254271596237428
4.635451505016722,2.5806073419612616
4.655518394648829,2.633278166018672
4.6755852842809364,2.683385263221147
4.695652173913043,2.730877090069296
4.71571906354515,2.775704941734737
4.735785953177258,2.817822969075384
4.7558528428093645,2.857188197925001
4.775919732441471,2.8937605497440853
4.795986622073578,2.927502862899505
4.816053511705686,2.9583809139821358
4.8361204013377925,2.986363438683745
4.856187290969899,3.011422151843913
4.8762541806020065,3.0335317663499506
4.896321070234113,3.0526700106317084
4.916387959866221,3.0688176445416264
4.936454849498328,3.0819584734510315
4.956521739130435,3.092079360428118
4.976588628762541,3.0991702363927427
4.996655518394649,3.103224108169441
5.016722408026756,3.1042370643837693
5.036789297658863,3.1022082791687513
5.056856187290969,3.097140013669307
5.076923076923077,3.0890376153527006
5.096989966555184,3.0779095151538503
5.117056856187291,3.063767222505672
5.137123745819398,3.0466253183276883
5.157190635451505,3.026501446071355
5.177257525083611,3.003416300948809
5.197324414715719,2.977393617504353
5.217391304347826,2.948460155725855
5.237458193979933,2.9166456859379797
5.257525083612039,2.8819829727732764
5.277591973244148,2.844507758582082
5.297658862876254,2.804258746722656
5.317725752508361,2.7612775852717206
5.337792642140468,2.715608851819566
5.357859531772575,2.667300040169403
5.377926421404682,2.616401549958701
5.397993311036789,2.562966680473036
5.418060200668896,2.50705163024963
5.438127090301003,2.4487155044926934
5.458193979933109,2.38802033287996
5.478260869565218,2.325031101077984
5.498327759197324,2.259815800270047
5.518394648829431,2.1924455003310626
5.538461538461538,2.1229944540983747
5.558528428093646,2.051540242687491
5.578595317725752,1.9781639752886409
5.598662207357859,1.9029505618014875
5.618729096989966,1.825989083706686
5.638795986622073,1.7473732987891069
5.65886287625418,1.6672023303795045
5.678929765886288,1.5855816143258288
5.698996655518394,1.5026242112747534
5.719063545150501,1.4184526452553412
5.739130434782608,1.3332015142931122
5.759197324414716,1.2470212562476273
5.7792642140468224,1.1600836814854358
5.799331103678929,1.072590273393749
5.8193979933110365,0.9847849396952351
5.839464882943144,0.8969741252809053
5.8595317725752505,0.8095594673344921
5.879598662207358,0.7230924642280735
5.8996655518394645,0.6383688128240254
5.919732441471571,0.5565952767762027
5.9397993311036785,0.47968671444559224
5.959866220735786,0.4107706901054253
5.9799331103678925,0.35488046621943753
5.999999999999999,0.3192034531361727
6.020066889632107,0.3109329288891124
6.040133779264214,0.3321529973129405
6.060200668896321,0.37785633210848585
6.080267558528428,0.4403406712016328
6.100334448160535,0.5133191197382906
6.120401337792642,0.5926969094016951
6.1404682274247495,0.6759672188478538
6.160535117056856,0.7615803172845904
6.180602006688963,0.8485407021371111
6.200668896321069,0.9361773040982525
6.2207357859531776,1.024014503903673
6.240802675585284,1.111698492636127
6.260869565217391,1.1989540266338494
6.280936454849498,1.285558236149198
6.301003344481605,1.3713242789814688
6.321070234113712,1.456090850385131
6.341137123745819,1.5397152794319517
6.361204013377926,1.6220688825339153
6.381270903010033,1.7030337737449242
6.40133779264214,1.7825006371724836
6.421404682274248,1.8603671482627837
6.441471571906354,1.9365368411117976
6.461538461538461,2.0109182876976153
6.481605351170568,2.0834244986709094
6.501672240802676,2.1539724837349783
6.521739130434782,2.2224829284234633
6.54180602006689,2.2888799567148954
6.561872909698996,2.353090957556381
6.581939799331103,2.415046459357411
6.60200668896321,2.474680040726376
6.622073578595318,2.5319282687228952
6.642140468227424,2.586730658062104
6.662207357859531,2.639029646284773
6.682274247491639,2.6887705810696265
6.702341137123746,2.7359017167299045
6.722408026755852,2.780374217586643
6.742474916387959,2.8221421664048902
6.762541806020066,2.8611625764566933
6.782608695652174,2.8973954060662783
6.80267558528428,2.930803574719944
6.822742474916388,2.9613529800013962
6.842809364548494,2.98901251475444
6.862876254180601,3.013754083987902
6.882943143812709,3.0355526211286303
6.903010033444816,3.0543861033026807
6.9230769230769225,3.070235565386272
6.94314381270903,3.0830851126191288
6.963210702341137,3.0929219316164875
6.983277591973244,3.09973629965373
7.0033444816053505,3.1035215921307935
7.023411371237458,3.1042742881536203
7.0434782608695645,3.1019939741979146
7.063545150501672,3.0966833458471
7.083612040133779,3.088348207623003
7.103678929765886,3.076997470954422
7.123745819397993,3.0626431503571863
7.143812709030099,3.0453003579296816
7.1638795986622075,3.0249872963014544
7.183946488294314,3.001725250210932
7.204013377926421,2.975538576932015
7.224080267558528,2.9464546958213567
7.2441471571906355,2.9145040773191604
7.264214046822742,2.879720231810774
7.2842809364548495,2.842139698846099
7.304347826086956,2.8018020373246384
7.324414715719063,2.758749817391079
7.34448160535117,2.7130286149577114
7.364548494983278,2.6646870099858733
7.384615384615384,2.613776589932433
7.404682274247491,2.560351960118025
7.424749163879598,2.5044707632252257
7.444816053511706,2.4461937107221337
7.464882943143812,2.3855846297756456
7.48494983277592,2.3227105302349775
7.505016722408026,2.2576416976205285
7.525083612040134,2.1904518198760106
7.545150501672239,2.1212181581189
7.565217391304348,2.0500217750259497
7.585284280936455,1.976947839213479
7.605351170568561,1.9020860306073188
7.625418060200669,1.8255310812357928
7.645484949832775,1.747383499484912
7.665551839464882,1.6677505457483681
7.685618729096991,1.5867475569338936
7.705685618729096,1.5044997618295826
7.725752508361204,1.4211447976794618
7.74581939799331,1.336836245095701
7.765886287625418,1.2517486684401253
7.785953177257525,1.1660849248050367
7.806020066889631,1.0800869616353308
7.826086956521739,0.9940520935922987
7.846153846153847,0.9083580689687091
7.866220735785952,0.8235025145641097
7.88628762541806,0.7401662490445852
7.906354515050166,0.6593163207208017
7.926421404682274,0.5823734490289487
7.946488294314381,0.5114738393520335
7.966555183946488,0.4498263370269523
7.986622073578595,0.4020036623820808
8.006688963210701,0.3735708699936415
8.02675585284281,0.3691539375772474
8.046822742474916,0.3895858464969266
8.066889632107022,0.431277500443885
8.08695652173913,0.48867945975698673
8.107023411371236,0.5567667013685974
8.127090301003344,0.6318720497757722
8.147157190635452,0.7115285152055015
8.167224080267557,0.79410105349036
8.187290969899665,0.8784876268163532
8.207357859531772,0.9639220300534794
8.227424749163879,1.049851653251217
8.247491638795987,1.1358625177745838
8.267558528428093,1.2216328445558906
8.2876254180602,1.3069037614377201
8.307692307692307,1.3914604256634777
8.327759197324415,1.4751195928275946
8.347826086956522,1.5577212598905639
8.367892976588628,1.6391229382072796
8.387959866220736,1.7191956597542717
8.408026755852843,1.797821148105103
8.42809364548495,1.8748897865824556
8.448160535117056,1.9502991413362998
8.468227424749163,2.0239528767909762
8.488294314381271,2.0957599525216195
8.508361204013378,2.1656340246405366
8.528428093645484,2.233492997567406
8.548494983277592,2.29925868756647
8.568561872909697,2.36285657014057
8.588628762541806,2.4242155908648395
8.608695652173914,2.483268024553708
8.628762541806019,2.53994937146457
8.648829431438127,2.5941982820059355
8.668896321070234,2.6459565034442125
8.68896321070234,2.6951688436050163
8.709030100334449,2.7417831476874133
8.729096989966555,2.7857502851569813
8.749163879598662,2.827024144328533
8.769230769230768,2.8655616327448508
8.789297658862875,2.901322681841116
8.809364548494983,2.9342702546841606
8.82943143812709,2.9643703558111443
8.849498327759196,2.9915920423792475
8.869565217391303,3.015907435987554
8.889632107023411,3.0372917346533774
8.909698996655518,3.055723224523898
8.929765886287624,3.0711832909856307
8.949832775919733,3.083656428902543
8.96989966555184,3.0931302517717976
8.989966555183946,3.0995954996362793
9.010033444816054,3.103046045637782
9.030100334448159,3.1034789011351
9.050167224080267,3.1008942193489597
9.070234113712376,3.095295297532028
9.09030100334448,3.086688577698365
9.110367892976589,3.075083645983416
9.130434782608695,3.0604932307448864
9.150501672240802,3.042933199556981
9.17056856187291,3.0224225552979633
9.190635451505017,2.9989834315845347
9.210702341137123,2.9726410878688876
9.23076923076923,2.943423904587649
9.250836120401337,2.911363378839413
9.270903010033445,2.8764941211730553
9.290969899665551,2.838853854197677
9.311036789297658,2.79848341388309
9.331103678929765,2.755426754615796
9.351170568561873,2.7097309593199537
9.37123745819398,2.6614462562608834
9.391304347826086,2.610626044538721
9.411371237458194,2.557326930777925
9.4314381270903,2.5016087801587505
9.451505016722408,2.4435347857664595
9.471571906354516,2.3831715613171225
9.49163879598662,2.320589263744474
9.511705685618729,2.255861754023701
9.531772575250837,2.1890668071404433
9.551839464882942,2.1202863855341016
9.57190635451505,2.0496069950106586
9.591973244147155,1.9771201485489642
9.612040133779264,1.902922972376747
9.632107023411372,1.8271190012979752
9.652173913043477,1.7498192282115932
9.672240802675585,1.6711434986606528
9.692307692307692,1.5912223790786375
9.712374581939798,1.5101996833788711
9.732441471571907,1.4282359264820443
9.752508361204013,1.3455131009424095
9.77257525083612,1.2622413691205998
9.792642140468226,1.1786685686999057
9.812709030100335,1.0950939079885664
9.832775919732441,1.0118879786627721
9.852842809364548,0.9295223792727124
9.872909698996656,0.8486139846673434
9.89297658862876,0.7699912476063313
9.91304347826087,0.6947922106476764
9.933110367892976,0.6246029561774328
9.953177257525082,0.5616306523608978
9.97324414715719,0.508851879806218
9.993311036789297,0.46995116839734136
10.013377926421404,0.4487194345987043
10.033444816053512,0.44776146849418935
10.053511705685617,0.467203261506026
10.073578595317725,0.504620809303082
10.093645484949834,0.5562679238310195
10.113712374581938,0.6184135658039746
10.133779264214047,0.688008028988148
10.153846153846153,0.7627785615891449
10.17391304347826,0.8410898680183443
10.193979933110368,0.9217694949335962
10.214046822742475,1.0039655251433945
10.234113712374581,1.087045145297914
10.254180602006688,1.170525866491336
10.274247491638796,1.254029583494883
10.294314381270903,1.3372518513128566
10.31438127090301,1.4199411513412865
10.334448160535118,1.5018847203809
10.354515050167223,1.5828987277970237
10.37458193979933,1.662821368779484
10.394648829431437,1.7415079405175424
10.414715719063544,1.8188272862037436
10.434782608695652,1.8946591960845247
10.454849498327757,1.9688924874052793
10.474916387959865,2.041423572276041
10.494983277591974,2.1121553805452287
10.515050167224079,2.180996543956688
10.535117056856187,2.247860774662978
10.555183946488295,2.312666389729029
10.5752508361204,2.375335946274109
10.595317725752508,2.4357959611331905
10.615384615384615,2.4939766955425795
10.635451505016722,2.549811990158162
10.65551839464883,2.603239139233104
10.675585284280936,2.6541987953843695
10.695652173913043,2.7026348983202815
10.71571906354515,2.7484946223644506
10.735785953177256,2.791728338722743
10.755852842809364,2.8322895892908453
10.775919732441471,2.8701350694568757
10.795986622073578,2.9052246178643344
10.816053511705684,2.9375212115012013
