Time (s),Filtered Signal
0.0,0.013073476633577335
0.03337004405286344,-0.33086495593608634
0.06674008810572687,-0.7040065711752833
0.10011013215859031,-1.1001175126397231
0.13348017621145375,-1.4599639138460982
0.16685022026431717,-1.6809825855509644
0.20022026431718062,-1.65248273568429
0.23359030837004408,-1.302932586228971
0.2669603524229075,-0.6394952195382414
0.3003303964757709,0.23839435299893083
0.33370044052863435,1.1599683639990175
0.3670704845814978,1.9328459806428546
0.40044052863436125,2.4029330273102643
0.43381057268722467,2.500777605091413
0.46718061674008815,2.256334922274675
0.5005506607929515,1.7780965232612793
0.533920704845815,1.2078475063929486
0.5672907488986785,0.6713760977509345
0.6006607929515418,0.24449503466793898
0.6340308370044053,-0.055540710934404214
0.6674008810572687,-0.2551945601057141
0.7007709251101322,-0.3973736529095106
0.7341409691629956,-0.515443045086433
0.767511013215859,-0.6189451727360153
0.8008810572687225,-0.6947083276966405
0.834251101321586,-0.7201104350868471
0.8676211453744493,-0.6806784568325085
0.9009911894273128,-0.5832023317896609
0.9343612334801763,-0.4580990671027956
0.9677312775330397,-0.34972845898943655
1.001101321585903,-0.298764690634999
1.0344713656387665,-0.324372288245087
1.06784140969163,-0.41426182258667543
1.1012114537444935,-0.5275162797982366
1.134581497797357,-0.6096953919947021
1.1679515418502202,-0.614402378051564
1.2013215859030837,-0.5224903270787727
1.2346916299559472,-0.3507388651403548
1.2680616740088106,-0.14602872225719685
1.3014317180616741,0.032846628279562584
1.3348017621145374,0.1381702575320006
1.3681718061674009,0.15130361677024678
1.4015418502202643,0.0880704120750446
1.4349118942731278,-0.0104267915545191
1.4682819383259913,-0.09692574692026758
1.5016519823788548,-0.1380743276058992
1.535022026431718,-0.12638702412045483
1.5683920704845815,-0.0791617695629443
1.601762114537445,-0.025705421284362907
1.6351321585903085,0.010368922559377294
1.668502202643172,0.02490288274575815
1.7018722466960352,0.03617971203479383
1.7352422907488987,0.07547487449496286
1.7686123348017622,0.1694864572142548
1.8019823788546256,0.32308231035904694
1.8353524229074891,0.5111144286299998
1.8687224669603526,0.6841877093139852
1.9020925110132159,0.786786514658819
1.9354625550660793,0.7800528571794101
1.9688325991189428,0.6588600153033324
2.002202643171806,0.45516100253710684
2.0355726872246698,0.22589493012559989
2.068942731277533,0.03086999841214984
2.1023127753303967,-0.08954208281638773
2.13568281938326,-0.12739871787806326
2.1690528634361232,-0.10599480109440572
2.202422907488987,-0.06609194952145026
2.23579295154185,-0.046453922818908026
2.269162995594714,-0.06744805850319444
2.302533039647577,-0.12440367805055372
2.3359030837004404,-0.1926170140757528
2.369273127753304,-0.2406788682345826
2.4026431718061674,-0.24550491309780564
2.436013215859031,-0.20235039559339862
2.4693832599118943,-0.1259390104134957
2.5027533039647576,-0.04310939391138157
2.5361233480176213,0.0189265673333744
2.5694933920704845,0.043109073259037574
2.6028634361233483,0.027415836723904876
2.6362334801762115,-0.017217878941516728
2.6696035242290748,-0.07390718297985531
2.7029735682819385,-0.12774583047947047
2.7363436123348017,-0.17086002169983275
2.7697136563876654,-0.2027746613275277
2.8030837004405287,-0.22679778378991627
2.8364537444933924,-0.24491973389599295
2.8698237885462556,-0.2541186623612368
2.903193832599119,-0.2460403145064927
2.9365638766519826,-0.21035637873376367
2.969933920704846,-0.14043318469193677
3.0033039647577096,-0.03887777105323158
3.036674008810573,0.07959230272065126
3.070044052863436,0.18969086126148196
3.1034140969162998,0.26177575439746337
3.136784140969163,0.27127008504427197
3.1701541850220267,0.20832975572409146
3.20352422907489,0.08405222675737474
3.2368942731277532,-0.06991775871532063
3.270264317180617,-0.20943375148112164
3.30363436123348,-0.2914891044226793
3.337004405286344,-0.28865223926557615
3.370374449339207,-0.19867176373616352
3.4037444933920704,-0.045442533445084025
3.437114537444934,0.12883502361597426
3.4704845814977974,0.27694767174690266
3.503854625550661,0.36046276254186865
3.5372246696035243,0.35986204042120146
3.5705947136563876,0.2789803527030533
3.6039647577092513,0.1435918333898069
3.6373348017621145,-0.005181951463269539
3.6707048458149782,-0.12169613045637952
3.7040748898678415,-0.16912658390542112
3.737444933920705,-0.13201329533021963
3.7708149779735685,-0.023259164619827917
3.8041850220264317,0.11864952347123434
3.8375550660792954,0.2430675810315116
3.8709251101321587,0.30698232575363926
3.9042951541850224,0.2927836758503242
3.9376651982378856,0.21537938922488803
3.971035242290749,0.11449455419106783
4.004405286343612,0.03522302003637895
4.037775330396476,0.006073990037873567
4.0711453744493395,0.025410366070817425
4.104515418502203,0.06321404803753088
4.137885462555066,0.07747795049469564
4.171255506607929,0.03712490494428798
4.2046255506607935,-0.06003226776607915
4.237995594713657,-0.18344316402660515
4.27136563876652,-0.28236399686997
4.304735682819383,-0.30906920832623064
4.3381057268722465,-0.24180376396192668
4.371475770925111,-0.09664827709469838
4.404845814977974,0.07727348342920934
4.438215859030837,0.2170461344086013
4.4715859030837,0.2709535592427737
4.504955947136564,0.2182082250868292
4.538325991189428,0.07521807169568154
4.571696035242291,-0.11347836658978533
4.605066079295154,-0.29466274994527486
4.638436123348018,-0.42710960572597284
4.671806167400881,-0.4944712732959996
4.705176211453745,-0.5056396737029389
4.738546255506608,-0.484078076707904
4.7719162995594715,-0.45269354628222636
4.805286343612335,-0.42223160731232
4.838656387665198,-0.38836737378260144
4.872026431718062,-0.3374252933887959
4.905396475770925,-0.25609600704394314
4.938766519823789,-0.13919606781802193
4.972136563876652,0.00814484017469338
5.005506607929515,0.1734122933119245
5.038876651982379,0.3413738456098673
5.072246696035243,0.49713294435560096
5.105616740088106,0.6266901225830338
5.138986784140969,0.716783855892424
5.172356828193832,0.7564192831676141
5.2057268722466965,0.7406687135755683
5.23909691629956,0.6746243268138326
5.272466960352423,0.5741204948287197
5.305837004405286,0.4612728948731491
5.3392070484581495,0.3562133429842091
5.372577092511014,0.26932307380680887
5.405947136563877,0.19856869487082163
5.43931718061674,0.13369996179392907
5.4726872246696034,0.06474012780601113
5.506057268722468,-0.01074786057281701
5.539427312775331,-0.08653809778849647
5.572797356828194,-0.15365049369961456
5.606167400881057,-0.20923756243657765
5.639537444933921,-0.2619109983788516
5.672907488986785,-0.3288789843700106
5.706277533039648,-0.42558473568840166
5.739647577092511,-0.5538306556662201
5.7730176211453745,-0.6959972289086805
5.806387665198238,-0.8196132924694174
5.839757709251102,-0.8902479464742554
5.873127753303965,-0.8855579116557785
5.9064977973568284,-0.8027048440978729
5.939867841409692,-0.6556335766428614
5.973237885462555,-0.4650399050961941
6.006607929515419,-0.24813426229270716
6.039977973568282,-0.014838146313260747
6.073348017621146,0.22772526627332984
6.106718061674009,0.4664734503983338
6.140088105726872,0.6765332690689724
6.173458149779736,0.823939524080646
6.2068281938325995,0.8771283640017369
6.240198237885463,0.8217485041105411
6.273568281938326,0.6706985783985454
6.306938325991189,0.46335370138943116
6.3403083700440535,0.2533944414146836
6.373678414096917,0.09035283312524343
6.40704845814978,0.0029080207497512037
6.440418502202643,-0.009141068644614593
6.4737885462555065,0.02853297366777898
6.507158590308371,0.07742708428706276
6.540528634361234,0.10233988505595588
6.573898678414097,0.08437893733659561
6.60726872246696,0.02605318072078748
6.640638766519824,-0.05274547349419795
6.674008810572688,-0.12522415400778908
6.707378854625551,-0.16949192034897767
6.740748898678414,-0.1764490568495282
6.774118942731278,-0.1508402957757198
6.807488986784141,-0.10612025940550246
6.840859030837005,-0.05680000197520238
6.874229074889868,-0.012829840861360244
6.9075991189427315,0.021151820513310438
6.940969162995595,0.042213471838692486
6.974339207048458,0.04462959261956628
7.007709251101322,0.01865188439112942
7.041079295154185,-0.045350789841583694
7.074449339207049,-0.1489558555087909
7.107819383259912,-0.2785715161318149
7.141189427312775,-0.4042610222981184
7.174559471365639,-0.4870921434900626
7.207929515418503,-0.49323104785914723
7.241299559471366,-0.40903204035889174
7.274669603524229,-0.24993296464737022
7.308039647577092,-0.058024233069331514
7.3414096916299565,0.1119959587488339
7.37477973568282,0.21330045865899522
7.408149779735683,0.22522290210063708
7.441519823788546,0.16115966940868517
7.47488986784141,0.06224472196825273
7.508259911894274,-0.02061529933370119
7.541629955947137,-0.04828230653655477
7.575,-0.008662034081330186
7.608370044052863,0.0811570417377892
7.641740088105728,0.18636376801896767
7.675110132158591,0.27324778767696595
7.708480176211454,0.3255657467047911
7.741850220264317,0.35004183480063106
7.775220264317181,0.3683622140246476
7.808590308370045,0.4002591598848393
7.841960352422908,0.4472522054282753
7.875330396475771,0.48659901763428137
7.9087004405286345,0.47976592554753106
7.942070484581498,0.3918247315760957
7.975440528634362,0.21185451321031665
8.008810572687224,-0.036672286294444266
8.042180616740088,-0.30156274230830354
8.075550660792953,-0.5213172961859402
8.108920704845815,-0.6489509720560332
8.142290748898679,-0.6690558942211302
8.175660792951541,-0.6009117171518275
8.209030837004406,-0.4875398053053277
8.24240088105727,-0.37679897303674953
8.275770925110132,-0.3030833741057929
8.309140969162996,-0.27650817609909095
8.342511013215859,-0.28233715095977746
8.375881057268723,-0.2891813198972822
8.409251101321587,-0.26187705876559375
8.44262114537445,-0.1743929427884589
8.475991189427313,-0.019081124872680225
8.509361233480176,0.1898000235605529
8.54273127753304,0.41877249794462124
8.576101321585904,0.6231790131897414
8.609471365638766,0.7586124186255848
8.64284140969163,0.7928921552468904
8.676211453744493,0.7153198452978033
8.709581497797357,0.5403210730001601
8.742951541850221,0.30396714659886365
8.776321585903084,0.05407268936162269
8.809691629955948,-0.1631215452010519
8.84306167400881,-0.31525464627056904
8.876431718061674,-0.39099113613358505
8.909801762114538,-0.3998548744418561
8.9431718061674,-0.3654387868758726
8.976541850220265,-0.3150519003363019
9.009911894273127,-0.269810053815728
9.043281938325991,-0.23853423233171678
9.076651982378856,-0.21712203032576277
9.110022026431718,-0.19306242455565792
9.143392070484582,-0.15308230152243388
9.176762114537445,-0.09091907449678742
9.210132158590309,-0.012125915026268435
9.243502202643173,0.06627192382409265
9.276872246696035,0.12166755174657957
9.3102422907489,0.13551371855827088
9.343612334801762,0.10307761459684676
9.376982378854626,0.03900840228149261
9.41035242290749,-0.024543303396653726
9.443722466960352,-0.047867500583859496
9.477092511013216,0.0011086692133861575
9.510462555066079,0.13199011084967752
9.543832599118943,0.3238503517365469
9.577202643171807,0.528314307540402
9.61057268722467,0.6838101821460402
9.643942731277534,0.7361116711846014
9.677312775330396,0.6572264120223847
9.71068281938326,0.45515295950610546
9.744052863436124,0.1709454855026323
9.777422907488987,-0.13505868278351954
9.81079295154185,-0.4018130156013157
9.844162995594713,-0.5838680635024064
9.877533039647577,-0.660497383767906
9.910903083700441,-0.6364431765278928
9.944273127753304,-0.5362434184116147
9.977643171806168,-0.3954323216207974
10.01101321585903,-0.2514802404603556
10.044383259911895,-0.13614623836820067
10.077753303964759,-0.06995252667810507
10.111123348017621,-0.05912854738694321
10.144493392070485,-0.09536421785624821
10.177863436123348,-0.15859827701756685
10.211233480176212,-0.2225735820803674
10.244603524229076,-0.2620721354820088
10.277973568281938,-0.25993572297600037
10.311343612334802,-0.21165198378524955
10.344713656387665,-0.12581153249358284
10.378083700440529,-0.020131337612016263
10.411453744493393,0.08548836528249754
10.444823788546255,0.17607133819981616
10.47819383259912,0.2458793608621523
10.511563876651982,0.2982285670106408
10.544933920704846,0.3412734631306689
10.57830396475771,0.38224736457474323
10.611674008810573,0.4233756785693462
10.645044052863437,0.46154744700358247
10.678414096916299,0.49136516089473975
10.711784140969163,0.5088918065743142
10.745154185022027,0.5128906518269242
10.77852422907489,0.5021930403537791
10.811894273127754,0.470994339316664
10.845264317180618,0.40621132639523777
10.87863436123348,0.2906517742050747
10.912004405286345,0.11241378474215011
10.945374449339207,-0.12355214902728859
10.978744493392071,-0.3885519699959699
11.012114537444935,-0.6336557501919221
11.045484581497798,-0.8044120311439257
11.078854625550662,-0.8613173635502893
11.112224669603524,-0.7965688485151489
11.145594713656388,-0.6384326791098007
11.178964757709252,-0.44018610359793287
11.212334801762115,-0.25828027956170013
11.245704845814979,-0.13002964312539367
11.279074889867841,-0.06154465865667373
11.312444933920705,-0.03133810445593611
11.34581497797357,-0.006806863867056495
11.379185022026432,0.03584171289304134
11.412555066079296,0.09898711664632245
11.445925110132158,0.16448499387707902
11.479295154185023,0.20646506003022422
11.512665198237887,0.20802912185737887
11.546035242290749,0.17222680173740193
11.579405286343613,0.12143600207473047
11.612775330396476,0.08592764018148064
11.64614537444934,0.08813181147657294
11.679515418502204,0.13100803482235143
11.712885462555066,0.1963630177299189
11.74625550660793,0.25368914336229015
11.779625550660793,0.2749445139022897
11.812995594713657,0.24804617196736647
11.846365638766521,0.18265528635726422
11.879735682819383,0.1054912752130041
11.913105726872248,0.047250948303444486
11.94647577092511,0.027191933043146103
11.979845814977974,0.04283673069941374
12.013215859030838,0.07025929529773461
12.0465859030837,0.07561263174318587
12.079955947136565,0.03292799670150263
12.113325991189427,-0.060532173174459664
12.146696035242291,-0.17977229878954723
12.180066079295155,-0.28202818759984705
12.213436123348018,-0.3274605173469933
12.246806167400882,-0.30055603329587666
12.280176211453744,-0.22063396589566758
12.313546255506608,-0.13451473943032133
12.346916299559473,-0.09349548342879856
12.380286343612335,-0.12567613055096827
12.413656387665199,-0.2183033518460512
12.447026431718061,-0.32054044528181524
12.480396475770926,-0.3666533738003119
12.51376651982379,-0.30851636380887104
12.547136563876652,-0.14086476320564972
12.580506607929516,0.09384304155253775
12.613876651982379,0.3235626967027428
12.647246696035243,0.4786483073439007
12.680616740088107,0.5218810050494104
12.71398678414097,0.46236593723991193
12.747356828193833,0.3476239524599146
12.780726872246696,0.23888121483495497
12.81409691629956,0.1821410012965525
12.847466960352424,0.18878224465067828
12.880837004405286,0.23406454185477304
12.91420704845815,0.2729132226024085
12.947577092511013,0.2641267888347422
12.980947136563877,0.1905992131767928
13.014317180616741,0.0658755180599002
13.047687224669604,-0.07515122436044516
13.081057268722468,-0.1952930390583395
13.11442731277533,-0.27305836549181056
13.147797356828194,-0.31011253502918046
13.181167400881058,-0.32517495619737086
13.21453744493392,-0.33903336663653266
13.247907488986785,-0.35995308252084585
13.281277533039647,-0.377864298854857
13.314647577092511,-0.370212949130905
13.348017621145376,-0.31567016280806287
13.381387665198238,-0.2078145013846297
13.414757709251102,-0.061452525653088626
13.448127753303964,0.09132695607156725
13.481497797356829,0.21281694568261889
13.514867841409693,0.2731453382094997
13.548237885462555,0.25976041911732506
13.58160792951542,0.18011448512555675
13.614977973568282,0.058139634832279206
13.648348017621146,-0.0729581536411393
13.68171806167401,-0.1791050882161639
13.715088105726872,-0.23346699065938523
13.748458149779736,-0.2232765704075431
13.781828193832599,-0.15396641262881536
13.815198237885463,-0.048618419469989654
13.848568281938327,0.05866339310970664
13.88193832599119,0.134535171569172
13.915308370044054,0.15935351980078782
13.948678414096916,0.13547169547832116
13.98204845814978,0.08626496401410522
14.015418502202644,0.04540672732087448
14.048788546255507,0.04099570529456013
14.08215859030837,0.08219586629511011
14.115528634361233,0.1551142507794463
14.148898678414097,0.23001301716710604
14.182268722466961,0.276095866040022
14.215638766519824,0.2762104699593408
14.249008810572688,0.23397616697429885
14.28237885462555,0.16999315513285984
14.315748898678414,0.10970853218835372
14.349118942731279,0.07001796188801127
14.382488986784141,0.05224202577746278
14.415859030837005,0.04526702827598563
14.449229074889868,0.036419943362140904
14.482599118942732,0.022672333930303334
14.515969162995596,0.014206233412323337
14.549339207048458,0.026917350850472282
14.582709251101322,0.06761796927922287
14.616079295154185,0.12121901132012722
14.649449339207049,0.14941368407218977
14.682819383259913,0.10470707541420411
14.716189427312775,-0.045116083529336645
14.74955947136564,-0.29397998530084335
14.782929515418502,-0.5889258429913362
14.816299559471366,-0.8429534622845206
14.84966960352423,-0.9660327616732809
14.883039647577093,-0.9015676492812236
14.916409691629957,-0.6518944902059333
14.94977973568282,-0.28058715142767277
14.983149779735683,0.11035679559190263
15.016519823788547,0.4188161136131849
15.04988986784141,0.5794997170722109
15.083259911894274,0.5835058555415877
15.116629955947138,0.47294259774653896
15.15,0.315086997100267
15.183370044052865,0.16998851415595898
15.216740088105727,0.06746425212009971
15.250110132158591,0.003278949196657089
15.283480176211455,-0.046413864531244714
15.316850220264318,-0.10261922032750603
15.350220264317182,-0.16639176442384684
15.383590308370044,-0.2162210962195187
15.416960352422908,-0.22046387291034983
15.450330396475772,-0.15727985165400524
15.483700440528635,-0.03096372749231799
15.517070484581499,0.12423150531686403
15.550440528634361,0.2553779730115721
15.583810572687225,0.3127047808518578
15.61718061674009,0.27253280328451046
15.650550660792952,0.15104546346523104
15.683920704845816,0.0019959153324149645
15.717290748898678,-0.10227692334432219
15.750660792951543,-0.10017875931215366
15.784030837004407,0.030890921619461005
15.817400881057269,0.2597104263361548
15.850770925110133,0.5078555821686239
15.884140969162996,0.6772777041611048
15.91751101321586,0.6888589141985595
15.950881057268724,0.5159062499121632
15.984251101321586,0.19743742042840906
16.01762114537445,-0.1755832737361969
16.050991189427315,-0.4956439840402295
16.084361233480177,-0.6801208734501938
16.11773127753304,-0.700403237777322
16.151101321585905,-0.5865700259586147
16.184471365638768,-0.40735446930434704
16.21784140969163,-0.23649930921810064
16.251211453744492,-0.12190510131066927
16.284581497797358,-0.07111852321178098
16.31795154185022,-0.05777027406711948
16.351321585903083,-0.0433159414805012
16.38469162995595,-0.0017610395913803924
16.41806167400881,0.06525785871349177
16.451431718061674,0.12999101738913424
16.48480176211454,0.15506967064082908
16.518171806167402,0.11604029080123254
16.551541850220264,0.018260656530490752
16.584911894273127,-0.10066013041757364
16.618281938325993,-0.184760035261219
16.651651982378855,-0.18407421861288517
16.685022026431717,-0.07843348029021875
16.718392070484583,0.11045656406157434
16.751762114537446,0.3248311531658981
16.785132158590308,0.4926670552812658
16.818502202643174,0.5560259601626288
16.851872246696036,0.493228109891842
16.8852422907489,0.3250022960361055
16.91861233480176,0.10250882687976454
16.951982378854627,-0.1161611225514819
16.98535242290749,-0.28926698447892785
17.01872246696035,-0.40370663588864103
17.052092511013218,-0.4718017212112675
17.08546255506608,-0.5161125228510496
17.118832599118942,-0.5514681339763164
17.152202643171808,-0.5740270758733034
17.18557268722467,-0.5628322988525233
17.218942731277533,-0.49247611388988516
17.2523127753304,-0.3497017328257284
