Time (s),Filtered Signal
0.0,0.003844646558317626
0.03337008452774715,-0.3732687454612283
0.0667401690554943,-0.6670016510997429
0.10011025358324147,-0.8172324136865848
0.1334803381109886,-0.80278038777931
0.16685042263873576,-0.6446671795815091
0.20022050716648293,-0.39661001818023245
0.23359059169423008,-0.12659454573454187
0.2669606762219772,0.10405136191102275
0.30033076074972437,0.2572950972525907
0.3337008452774715,0.3256652800670294
0.36707092980521866,0.32833060335286124
0.40044101433296586,0.2982314146187493
0.433811098860713,0.2661075990658193
0.46718118338846015,0.24873647879759467
0.5005512679162073,0.2467152376580974
0.5339213524439544,0.252030883890682
0.5672914369717016,0.25997121123976563
0.6006615214994487,0.2771365689981344
0.6340316060271959,0.31952670348936524
0.667401690554943,0.40090853312031977
0.7007717750826902,0.518204792441936
0.7341418596104373,0.6433611722789484
0.7675119441381845,0.7281815460105089
0.8008820286659317,0.7215572861759003
0.8342521131936789,0.5914400501782562
0.867622197721426,0.3409121792433271
0.9009922822491732,0.010450712104445654
0.9343623667769203,-0.3347453053510495
0.9677324513046675,-0.6265749101409925
1.0011025358324146,-0.8157285374009524
1.0344726203601617,-0.8851441692471205
1.0678427048879089,-0.8515009285597516
1.101212789415656,-0.7559647395581213
1.1345828739434032,-0.6487409739792573
1.1679529584711503,-0.5729659968544394
1.2013230429988975,-0.5525262830920187
1.2346931275266446,-0.5864879463311397
1.2680632120543918,-0.6507933710434477
1.301433296582139,-0.7061674047169302
1.334803381109886,-0.7098756445874556
1.3681734656376332,-0.6281559441250335
1.4015435501653803,-0.4460124681818204
1.4349136346931275,-0.17183831317961348
1.4682837192208746,0.16408462137161717
1.5016538037486218,0.5163339640364558
1.535023888276369,0.8341494022405562
1.568393972804116,1.071726915709346
1.6017640573318634,1.1968892973635727
1.6351341418596106,1.1967594892122868
1.6685042263873577,1.0796758186473665
1.7018743109151049,0.8730560836375877
1.735244395442852,0.617489591938005
1.7686144799705992,0.3581141352480055
1.8019845644983463,0.13507322767553553
1.8353546490260935,-0.024813192945851003
1.8687247335538406,-0.11322586754344693
1.9020948180815878,-0.14103674818464823
1.935464902609335,-0.13407714039031737
1.968834987137082,-0.12474551679138568
2.002205071664829,-0.14159883034565438
2.0355751561925763,-0.20012813774281943
2.0689452407203235,-0.29790594254643826
2.1023153252480706,-0.4158298793584642
2.1356854097758178,-0.5247883095012962
2.169055494303565,-0.5949991496834875
2.202425578831312,-0.604676776350111
2.235795663359059,-0.5457074171528112
2.2691657478868064,-0.4256804159532886
2.3025358324145535,-0.2666702177056141
2.3359059169423007,-0.10113375584096611
2.369276001470048,0.035125909264054546
2.402646085997795,0.11263041918456691
2.436016170525542,0.11866705053323216
2.4693862550532892,0.06470295511698741
2.5027563395810364,-0.013637685111935038
2.5361264241087835,-0.06646965786018794
2.5694965086365307,-0.047571251261773445
2.602866593164278,0.06610227669164816
2.636236677692025,0.26196940700020427
2.669606762219772,0.49312735274226016
2.7029768467475193,0.6943172024548536
2.7363469312752664,0.806458901470477
2.7697170158030135,0.7990876132528765
2.8030871003307607,0.6805262940349972
2.836457184858508,0.4912887770136612
2.869827269386255,0.2842782043787329
2.903197353914002,0.10166664178003182
2.9365674384417493,-0.04039266796569735
2.9699375229694964,-0.15248579514384392
3.0033076074972436,-0.2590532253239343
3.0366776920249907,-0.3797077182653555
3.070047776552738,-0.5149673442867008
3.103417861080485,-0.6435225045646572
3.136787945608232,-0.7315904724533342
3.1701580301359793,-0.7486869432277999
3.203528114663727,-0.6815420342148981
3.236898199191474,-0.5398373680037246
3.270268283719221,-0.3522836687058163
3.3036383682469683,-0.15632058748932212
3.3370084527747155,0.013080162517023809
3.3703785373024626,0.13109725970561914
3.4037486218302098,0.18591908838239207
3.437118706357957,0.17835580172398585
3.470488790885704,0.1206465730731003
3.503858875413451,0.035522205586212205
3.5372289599411983,-0.045645071013677416
3.5705990444689455,-0.08784803665757036
3.6039691289966926,-0.06161165577402533
3.63733921352444,0.04568612406257989
3.670709298052187,0.22116291708446695
3.704079382579934,0.42574704407951147
3.7374494671076812,0.6040130446113199
3.7708195516354284,0.7022289262023299
3.8041896361631755,0.6878559935651646
3.8375597206909227,0.562201262423266
3.87092980521867,0.3603265936684529
3.904299889746417,0.13769739892035568
3.937669974274164,-0.051047934538516984
3.9710400588019112,-0.1721709803637409
4.004410143329658,-0.22310118904592963
4.0377802278574055,-0.22866442837317874
4.071150312385153,-0.22553103225598917
4.1045203969129,-0.24265208725800344
4.137890481440647,-0.28723003697022764
4.171260565968394,-0.3428092428582198
4.204630650496141,-0.37977916028528397
4.238000735023888,-0.3721999242066212
4.2713708195516356,-0.31180675621945203
4.304740904079383,-0.21200145903519413
4.33811098860713,-0.10046414720965362
4.371481073134877,-0.005318365583064286
4.404851157662624,0.057120905201687916
4.438221242190371,0.08677104047717794
4.471591326718118,0.09539805202598156
4.504961411245866,0.09767325404284852
4.538331495773613,0.10384868844269987
4.57170158030136,0.11800201920101419
4.605071664829107,0.1413380415193421
4.638441749356854,0.1765223574979329
4.671811833884601,0.2287010208271477
4.7051819184123485,0.30165574916981774
4.738552002940096,0.39135547498746753
4.771922087467843,0.48140550832725226
4.80529217199559,0.5441838484585486
4.838662256523337,0.5483618213563536
4.872032341051084,0.4699973075611453
4.905402425578831,0.3024674489244364
4.9387725101065785,0.06104271564129946
4.972142594634326,-0.2196721235922773
5.005512679162073,-0.49431772172242466
5.03888276368982,-0.718268824718904
5.072252848217567,-0.8584075583207975
5.105622932745314,-0.9002959623427178
5.138993017273061,-0.8502096652133999
5.1723631018008085,-0.7319097358627288
5.205733186328556,-0.5792664502559519
5.239103270856303,-0.42680452639234656
5.27247335538405,-0.3007653910844526
5.305843439911797,-0.21318030004537988
5.339213524439544,-0.16061251371168855
5.372583608967291,-0.12777763852855129
5.4059536934950385,-0.09458625986385731
5.439323778022786,-0.04387850974422842
5.472693862550533,0.033165362126669554
5.50606394707828,0.1359678637440327
5.539434031606027,0.2578828870872608
5.572804116133774,0.39174053445481555
5.606174200661521,0.5341158475745961
5.6395442851892685,0.6852654870847087
5.672914369717016,0.8439961092490919
5.706284454244763,0.9999766628443301
5.73965453877251,1.1284089619287685
5.773024623300257,1.1918455536489052
5.806394707828004,1.1508263328232833
5.839764792355751,0.9802060888477484
5.873134876883499,0.6841235259979537
5.906504961411246,0.3019057004922445
5.939875045938993,-0.09943772687239996
5.97324513046674,-0.44454068333680896
6.006615214994487,-0.6736450840253021
6.039985299522234,-0.7616130865321378
6.073355384049981,-0.7244392078049341
6.106725468577729,-0.6112089415475438
6.140095553105476,-0.4856075704885109
6.173465637633223,-0.40481641142741015
6.20683572216097,-0.40334314393180776
6.240205806688717,-0.4858292750926011
6.273575891216464,-0.6287046104887872
6.3069459757442115,-0.7881200673296711
6.340316060271959,-0.9114931399510594
6.373686144799706,-0.9508995524597015
6.407056229327454,-0.8765916078199539
6.440426313855201,-0.6875968076947497
6.473796398382948,-0.41507297304573454
6.507166482910695,-0.1150196579771184
6.540536567438442,0.14913876362669862
6.5739066519661895,0.3283830252599889
6.607276736493937,0.4054178684173193
6.640646821021684,0.39979443019425376
6.674016905549431,0.3585309081673689
6.707386990077178,0.3364795863375015
6.740757074604925,0.37484179339455886
6.774127159132672,0.4861580450776936
6.8074972436604195,0.6505669196179702
6.840867328188167,0.8234553060782906
6.874237412715914,0.9509158067725447
6.907607497243661,0.9875553520898994
6.940977581771408,0.9110445274517592
6.974347666299155,0.7290201172481223
7.007717750826902,0.47632713449139935
7.0410878353546495,0.20370389466827257
7.074457919882397,-0.03804340497319315
7.107828004410144,-0.2127713630104104
7.141198088937891,-0.30764711185754107
7.174568173465638,-0.3332924759454434
7.207938257993385,-0.3163351970738416
7.241308342521132,-0.28791767658395606
7.27467842704888,-0.2727187298891005
7.308048511576627,-0.2822964536209342
7.341418596104374,-0.3145630123153297
7.374788680632121,-0.3587326615088128
7.408158765159868,-0.4029928666444262
7.441528849687615,-0.441199439818536
7.4748989342153624,-0.475485786023228
7.50826901874311,-0.513568760276825
7.541639103270857,-0.5619322178424012
7.575009187798604,-0.6180164458211788
7.608379272326351,-0.6653100487066802
7.641749356854098,-0.6744823820422381
7.675119441381845,-0.6114819632628224
7.7084895259095925,-0.45046965145739787
7.74185961043734,-0.18674925627125422
7.775229694965087,0.15607022838942303
7.808599779492834,0.5287192518137783
7.841969864020581,0.8687844563748011
7.875339948548328,1.1187028062463809
7.908710033076075,1.2421663179203806
7.9420801176038225,1.2324947085697486
7.97545020213157,1.110257889226269
8.008820286659317,0.9123586966272622
8.042190371187063,0.6783189571920366
8.075560455714811,0.4398285641317446
8.108930540242557,0.2167846057701367
8.142300624770305,0.019002348546489262
8.175670709298052,-0.14991400626705137
8.2090407938258,-0.2899067072659026
8.242410878353546,-0.4039485001064096
8.275780962881294,-0.4980439100318199
8.30915104740904,-0.579459387274188
8.342521131936788,-0.6526129027399082
8.375891216464534,-0.7146952727666248
8.409261300992283,-0.7544426650813019
8.442631385520029,-0.7562391080976768
8.476001470047777,-0.7084922546411252
8.509371554575523,-0.6120704382365375
8.542741639103271,-0.4836732062990981
8.57611172363102,-0.3511685679102034
8.609481808158765,-0.24214977327848577
8.642851892686513,-0.17095158120858414
8.67622197721426,-0.13083858594687128
8.709592061742008,-0.09601360055483245
8.742962146269754,-0.03333288587482228
8.776332230797502,0.08146718759332468
8.809702315325248,0.2508869072341554
8.843072399852996,0.45260721790205133
8.876442484380743,0.6478939049467209
8.90981256890849,0.7973050962217489
8.943182653436237,0.8759556574839423
8.976552737963985,0.8811256938613834
9.009922822491731,0.8292570156041351
9.04329290701948,0.7449206146227676
9.076662991547225,0.648140336006925
9.110033076074973,0.5466385419354163
9.14340316060272,0.4363300734333772
9.176773245130468,0.30872746974790394
9.210143329658214,0.1603868947355624
9.243513414185962,-0.0011621216100246227
9.276883498713708,-0.15831182287452625
9.310253583241456,-0.2906201840020555
9.343623667769203,-0.3845960848382647
9.37699375229695,-0.4408693692304443
9.410363836824697,-0.4746962607053932
9.443733921352445,-0.5087681348360018
9.477104005880191,-0.5610199472152014
9.51047409040794,-0.6330628580322433
9.543844174935685,-0.705532405768159
9.577214259463434,-0.7442233964077203
9.61058434399118,-0.7158795422496639
9.643954428518928,-0.6070054027136181
9.677324513046674,-0.4360392701877603
9.710694597574422,-0.25096201244167216
9.744064682102168,-0.1109301960098798
9.777434766629916,-0.05898798860847115
9.810804851157663,-0.09881535371264855
9.84417493568541,-0.1880547695423624
9.877545020213157,-0.2534367162748841
9.910915104740905,-0.22207200223842533
9.944285189268651,-0.05466838088478976
9.9776552737964,0.23503837204112352
10.011025358324146,0.5836821765144266
10.044395442851894,0.9024135858516056
10.07776552737964,1.110257103517775
10.111135611907388,1.1621125635357212
10.144505696435134,1.060929832734879
10.177875780962882,0.851582235734024
10.211245865490628,0.6013339382974018
10.244615950018376,0.3755593475527536
10.277986034546123,0.21719203030618578
10.31135611907387,0.13568418912413546
10.344726203601617,0.10769425225878484
10.378096288129365,0.08831328240190756
10.411466372657111,0.02889765666154877
10.44483645718486,-0.10410697414786206
10.478206541712606,-0.3152081521425433
10.511576626240354,-0.5752975970307344
10.5449467107681,-0.8283515483754686
10.578316795295848,-1.0079519621191484
10.611686879823594,-1.0589653567223263
10.645056964351342,-0.9575204801323234
10.678427048879088,-0.722158103217493
10.711797133406836,-0.4112711751510185
10.745167217934583,-0.10645056960802242
10.77853730246233,0.11331696018945671
10.811907386990077,0.19771037890098703
10.845277471517825,0.14193159135975147
10.878647556045571,-0.011790035997424217
10.91201764057332,-0.18839900634600681
10.945387725101066,-0.304625650991358
10.978757809628814,-0.29553929381776656
11.01212789415656,-0.13469030012338068
11.045497978684308,0.1578596851278485
11.078868063212054,0.5215275893184397
11.112238147739802,0.8732487281948221
11.145608232267548,1.132177312912812
11.178978316795297,1.2432932017495144
11.212348401323043,1.191887348584349
11.24571848585079,1.0036738825456226
11.279088570378537,0.7308116258442852
11.312458654906285,0.43024147948201535
11.345828739434031,0.1442335309151687
11.37919882396178,-0.10839083507341656
11.412568908489526,-0.32781581064133386
11.445938993017274,-0.5202083202385679
11.47930907754502,-0.6850438994637382
11.512679162072768,-0.810610175161727
11.546049246600514,-0.8798365119239479
11.579419331128262,-0.8819253322597888
11.612789415656009,-0.8216940177677564
11.646159500183757,-0.7201598005311335
11.679529584711503,-0.6055680207272689
11.71289966923925,-0.5001682307251049
11.746269753766997,-0.41074534034831256
11.779639838294745,-0.32852271866005417
11.813009922822491,-0.2381134114387512
11.84638000735024,-0.12953808729922553
11.879750091877986,-0.005600015264533485
11.913120176405734,0.11984669554426979
11.94649026093348,0.2311980306951041
11.979860345461228,0.32159846449419816
12.013230429988974,0.3975988360340258
12.046600514516722,0.4746752935695383
12.079970599044469,0.5659933766152443
12.113340683572217,0.6709597865723806
12.146710768099963,0.770385106188329
12.180080852627711,0.8315096714439049
12.213450937155457,0.8209055596212492
12.246821021683205,0.7192614723341202
12.280191106210951,0.5312274907478388
12.3135611907387,0.28594677738203583
12.346931275266446,0.02816379161756502
12.380301359794194,-0.19619407222475668
12.41367144432194,-0.3540076386478871
12.447041528849688,-0.433192830284603
12.480411613377434,-0.44266865975285585
12.513781697905182,-0.4052277028538016
12.547151782432929,-0.3472085502327498
12.580521866960677,-0.2895196075229699
12.613891951488423,-0.24312139728813656
12.647262036016171,-0.20959189214140547
12.680632120543917,-0.1852256597371709
12.714002205071665,-0.16608540310508277
12.747372289599411,-0.1515813146693175
12.78074237412716,-0.1450962994976643
12.814112458654908,-0.15150035162717984
12.847482543182654,-0.17280665540916643
12.880852627710402,-0.2043194797128418
12.914222712238148,-0.23382426971050668
12.947592796765896,-0.2452043441657771
12.980962881293642,-0.22551904562543862
13.01433296582139,-0.17214059976285928
13.047703050349137,-0.09560577773616688
13.081073134876885,-0.015457085978152194
13.114443219404631,0.04987390126583644
13.147813303932379,0.09412000466754096
13.181183388460125,0.12852036981759724
13.214553472987873,0.1770159370948702
13.24792355751562,0.262218890717966
13.281293642043368,0.38878775530578163
13.314663726571114,0.533501848904439
13.348033811098862,0.6489486296236059
13.381403895626608,0.6811078276998368
13.414773980154356,0.5936131546706749
13.448144064682102,0.38724865074996656
13.48151414920985,0.1048024110153893
13.514884233737597,-0.18191254770943094
13.548254318265345,-0.3977267086685903
13.581624402793091,-0.49158501994760684
13.614994487320839,-0.45442216843718275
13.648364571848585,-0.3205922216027951
13.681734656376333,-0.15309421837412138
13.71510474090408,-0.01918815481472802
13.748474825431828,0.033835832240978886
13.781844909959574,-0.006214623011619651
13.815214994487322,-0.11532400186030146
13.848585079015068,-0.2455628796443246
13.881955163542816,-0.3451902659095268
13.915325248070562,-0.3783003721508818
13.94869533259831,-0.3363560960975308
13.982065417126057,-0.2375983929320526
14.015435501653805,-0.11555345795274294
14.048805586181551,-0.0024790682886793526
14.082175670709299,0.08444707389137852
14.115545755237045,0.1480061591443686
14.148915839764793,0.20513635218282003
14.18228592429254,0.273872222959559
14.215656008820288,0.3598992480230818
14.249026093348034,0.44972521363289425
14.282396177875782,0.5142398576611077
14.315766262403528,0.5213585678302275
14.349136346931276,0.45189476444905424
14.382506431459023,0.310959381017541
14.41587651598677,0.12903851228764085
14.449246600514517,-0.04830154768666377
14.482616685042265,-0.17768142393369632
14.515986769570011,-0.23440873158726902
14.54935685409776,-0.22098200189709125
14.582726938625505,-0.1643838214819408
14.616097023153253,-0.10421225215190107
14.649467107681,-0.07741453910631718
14.682837192208748,-0.10587911907427601
14.716207276736494,-0.19072143991138157
14.749577361264242,-0.313619184014942
14.782947445791988,-0.44306463514500133
14.816317530319736,-0.5428538307364056
14.849687614847483,-0.5809587692393754
14.88305769937523,-0.5377572789609782
14.916427783902977,-0.4124858261437646
14.949797868430725,-0.22601274761486403
14.983167952958471,-0.017794015672979474
15.01653803748622,0.16383862298728416
15.049908122013965,0.2762484742936646
15.083278206541713,0.2973810567686893
15.11664829106946,0.23520979295310576
15.150018375597208,0.1272144836153809
15.183388460124954,0.028829222879969182
15.216758544652702,-0.005781875229222506
15.250128629180448,0.05627213953708454
15.283498713708196,0.21366862114199303
15.316868798235943,0.430445906560824
15.35023888276369,0.6485579316860135
15.383608967291437,0.8084005882220615
15.416979051819185,0.868917901707019
15.450349136346931,0.8193120933537063
15.48371922087468,0.6784257137574071
15.517089305402425,0.48346925401663166
15.550459389930174,0.27409563814105165
15.58382947445792,0.0788917467633926
15.617199558985668,-0.09088750452317862
15.650569643513414,-0.23939810503752065
15.683939728041162,-0.37851934951836974
15.717309812568908,-0.5183739205652573
15.750679897096656,-0.6597967193022667
15.784049981624403,-0.7912571436706787
15.81742006615215,-0.891174123384217
15.850790150679897,-0.9348961475375897
15.884160235207645,-0.9039821457668156
15.917530319735391,-0.7942924041056764
15.95090040426314,-0.6195020616019683
15.984270488790886,-0.4083177060676263
16.017640573318634,-0.19633849505591244
16.05101065784638,-0.015832843009323055
16.084380742374126,0.11257856813136696
16.117750826901876,0.18359965800148767
16.151120911429622,0.2059663398156807
16.18449099595737,0.19792626385835704
16.217861080485115,0.18185633653003264
16.251231165012864,0.17955314959955854
16.28460124954061,0.2084348721142451
16.317971334068357,0.27825189913137055
16.351341418596103,0.38829723661627996
16.384711503123853,0.5259731806901119
16.4180815876516,0.6679543738647115
16.451451672179346,0.7845437276948567
16.484821756707092,0.846441670133176
16.51819184123484,0.831943307721405
16.551561925762588,0.7323534704029703
16.584932010290334,0.554264206008123
16.61830209481808,0.31861199304954496
16.65167217934583,0.05726690747051885
16.685042263873576,-0.1920543898943475
16.718412348401323,-0.3921388269813474
16.75178243292907,-0.513560911623474
16.78515251745682,-0.5419751706771424
16.818522601984565,-0.4835284300311678
16.85189268651231,-0.36597113294214967
16.885262771040058,-0.23364560233757095
16.918632855567807,-0.13636441340154468
16.952002940095554,-0.11467047019101193
16.9853730246233,-0.18605102593783937
17.018743109151046,-0.33729049517306464
17.052113193678796,-0.5266576167756876
17.085483278206542,-0.6962491880661094
17.11885336273429,-0.7907574528203796
17.15222344726204,-0.7759765303137407
17.185593531789785,-0.6500132026461751
17.21896361631753,-0.4427814405450984
17.252333700845277,-0.2039126765559306
17.285703785373027,0.016192793516029102
17.319073869900773,0.18467727411312707
