Frequency (Hz),Amplitude
0.0,1.5092989141412816
0.019801980198019802,1.5135733938896891
0.039603960396039604,1.5263083599757092
0.0594059405940594,1.5472457142272535
0.07920792079207921,1.5759782825225552
0.09900990099009901,1.6119798213869065
0.1188118811881188,1.6546395417612607
0.13861386138613863,1.7032963847425642
0.15841584158415842,1.757269446161113
0.1782178217821782,1.8158825051863032
0.19801980198019803,1.878482049438805
0.21782178217821782,1.944449220150772
0.2376237623762376,2.0132066695840125
0.25742574257425743,2.084221514170163
0.27722772277227725,2.1570055135942146
0.297029702970297,2.231113429357392
0.31683168316831684,2.3061403016924706
0.33663366336633666,2.3817181803463003
0.3564356435643564,2.4575126748698866
0.37623762376237624,2.533219559123364
0.39603960396039606,2.608561569573941
0.4158415841584158,2.6832854711380514
0.43564356435643564,2.7571594207933456
0.45544554455445546,2.829970631783519
0.4752475247524752,2.9015233250264574
0.495049504950495,2.9716369456176794
0.5148514851485149,3.0401446184462992
0.5346534653465347,3.106891816072628
0.5544554455445545,3.171735212918177
0.5742574257425742,3.234541701680707
0.594059405940594,3.2951875501923182
0.613861386138614,3.353557679371796
0.6336633663366337,3.409545045296382
0.6534653465346534,3.4630501106329996
0.6732673267326733,3.513980392675786
0.6930693069306931,3.562250077021761
0.7128712871287128,3.6077796874821595
0.7326732673267327,3.650495804189106
0.7524752475247525,3.690330823034068
0.7722772277227723,3.7272227505880093
0.7920792079207921,3.7611150295231246
0.8118811881188118,3.7919563903033158
0.8316831683168316,3.819700725551758
0.8514851485148516,3.844306984055792
0.8712871287128713,3.8657390818453856
0.891089108910891,3.8839658281941376
0.9108910891089109,3.8989608647514893
0.9306930693069307,3.9107026163308953
0.9504950495049505,3.919174252159329
0.9702970297029703,3.924363656644898
0.99009900990099,3.9262634089493686
1.00990099009901,3.9248707708642714
1.0297029702970297,3.920187682690697
1.0495049504950495,3.9122207670161107
1.0693069306930694,3.900981340473059
1.0891089108910892,3.886485433758043
1.108910891089109,3.868753820388205
1.1287128712871286,3.8478120548847703
1.1485148514851484,3.82369052129924
1.1683168316831685,3.796424493247468
1.188118811881188,3.7660542068932306
1.2079207920792079,3.7326249486351113
1.227722772277228,3.696187159604307
1.2475247524752475,3.6567965594872684
1.2673267326732673,3.6145142926553504
1.2871287128712872,3.5694071001257925
1.3069306930693068,3.5215475215088468
1.3267326732673268,3.4710141318294006
1.3465346534653466,3.4178918189666936
1.3663366336633662,3.3622721084507257
1.3861386138613863,3.3042535435109612
1.405940594059406,3.2439421296115083
1.4257425742574257,3.1814518542478902
1.4455445544554455,3.116905294538087
1.4653465346534653,3.0504343271211463
1.4851485148514851,2.9821809570665363
1.504950495049505,2.9122982848548222
1.5247524752475248,2.840951632920975
1.5445544554455446,2.768319855581259
1.5643564356435644,2.6945968580960207
1.5841584158415842,2.6199933516640503
1.6039603960396038,2.544738870532198
1.6237623762376237,2.469084073957507
1.6435643564356437,2.3933033477252543
1.6633663366336633,2.3176977047644547
1.683168316831683,2.2425979585568543
1.7029702970297032,2.1683681017339125
1.7227722772277227,2.0954087594675
1.7425742574257426,2.0241604960523536
1.7623762376237624,1.9551066267973536
1.782178217821782,1.8887750222516357
1.801980198019802,1.8257381919684876
1.8217821782178218,1.766610720105752
1.8415841584158414,1.7120429405913649
1.8613861386138615,1.6627096660502148
1.881188118811881,1.6192929393559428
1.900990099009901,1.5824582930346152
1.920792079207921,1.552824974691999
1.9405940594059405,1.530931992373809
1.9603960396039604,1.5172033981199518
1.98019801980198,1.5119174682729217
2.0,1.515184760966493
2.01980198019802,1.5269390311716302
2.0396039603960396,1.546942749482868
2.0594059405940595,1.5748061544659475
2.0792079207920793,1.6100163119217534
2.099009900990099,1.6519713189068668
2.118811881188119,1.7000148088773566
2.1386138613861387,1.7534669814040926
2.1584158415841586,1.8116499171927545
2.1782178217821784,1.8739064093590985
2.1980198019801978,1.9396126290592772
2.217821782178218,2.008185566798594
2.237623762376238,2.079086422495381
2.257425742574257,2.151821088196511
2.2772277227722775,2.225938701363097
2.297029702970297,2.3010290339712505
2.3168316831683167,2.376719276658431
2.336633663366337,2.4526706027853544
2.3564356435643563,2.528574761662643
2.376237623762376,2.604150850948644
2.3960396039603964,2.6791423491171855
2.4158415841584158,2.7533144429098564
2.4356435643564356,2.8264516555252746
2.455445544554456,2.8983557638716473
2.4752475247524752,2.9688439836815865
2.495049504950495,3.0377473968917306
2.514851485148515,3.1049095944992886
2.5346534653465347,3.170185508820075
2.5544554455445545,3.233440410832475
2.5742574257425743,3.2945490505514394
2.594059405940594,3.3533949207973537
2.6138613861386135,3.4098696271072084
2.633663366336634,3.463872348768882
2.6534653465346536,3.5153093779907962
2.673267326732673,3.564093726029415
2.6930693069306932,3.6101447866883722
2.712871287128713,3.653388048988444
2.7326732673267324,3.6937548520058625
2.7524752475247527,3.731182175908839
2.7722772277227725,3.765612464108936
2.792079207920792,3.7969934722053353
2.811881188118812,3.825278140053829
2.8316831683168315,3.8504244838547748
2.8514851485148514,3.8723955056391444
2.8712871287128716,3.8911591179522573
2.891089108910891,3.9066880819006435
2.910891089108911,3.9189599570490903
2.9306930693069306,3.927957061939663
2.9504950495049505,3.9336664442598868
2.9702970297029703,3.9360798599195332
2.99009900990099,3.9351937605103466
3.00990099009901,3.931009288825253
3.0297029702970297,3.9235322823087744
3.0495049504950495,3.9127732845019367
3.0693069306930694,3.8987475647385152
3.089108910891089,3.8814751465487634
3.108910891089109,3.8609808454366785
3.128712871287129,3.837294316922709
3.148514851485148,3.8104501159905824
3.1683168316831685,3.7804877693508376
3.1881188118811883,3.7474518622418524
3.2079207920792077,3.711392141838727
3.227722772277228,3.6723636397409827
3.2475247524752473,3.6304268164712847
3.267326732673267,3.5856477314515467
3.2871287128712874,3.538098242543001
3.3069306930693068,3.4878562399588855
3.3267326732673266,3.4350059201988006
3.346534653465347,3.3796381066331533
3.366336633663366,3.321850624502874
3.386138613861386,3.261748739416436
3.4059405940594063,3.199445669941821
3.4257425742574257,3.1350631866214087
3.4455445544554455,3.0687323116886103
3.4653465346534653,3.0005941359272748
3.485148514851485,2.9308007714470543
3.504950495049505,2.859516461564291
3.5247524752475248,2.786918871313224
3.5445544554455446,2.7132005840838502
3.564356435643564,2.6385708310269296
3.5841584158415842,2.563257479450322
3.603960396039604,2.487509303329756
3.6237623762376234,2.4115985515939946
3.6435643564356437,2.3358238155837467
3.6633663366336635,2.26051317260648
3.683168316831683,2.1860275432065364
3.702970297029703,2.112764139779234
3.722772277227723,2.041159796660504
3.7425742574257423,1.9716938501063652
3.762376237623762,1.9048900764588943
3.7821782178217824,1.8413170012056914
3.801980198019802,1.7815856779857182
3.8217821782178216,1.7263438466633187
3.841584158415842,1.6762652893119647
3.8613861386138613,1.6320333249743786
3.881188118811881,1.5943178509159928
3.9009900990099013,1.5637462520718386
3.9207920792079207,1.540869847583097
3.9405940594059405,1.5261290999994666
3.96039603960396,1.5198221144561426
3.98019801980198,1.5220814117300723
4.0,1.5328631304240965
4.01980198019802,1.5519507177008987
4.03960396039604,1.5789723911272473
4.0594059405940595,1.6134291188522094
4.079207920792079,1.6547283724991737
4.099009900990099,1.7022187616542048
4.118811881188119,1.7552216148818658
4.138613861386139,1.8130570725696602
4.158415841584159,1.8750637499692966
4.178217821782178,1.9406121687641023
4.198019801980198,2.009112834849252
4.217821782178218,2.08002011601996
4.237623762376238,2.152833072069795
4.257425742574258,2.2270942376107135
4.2772277227722775,2.3023871492350803
4.297029702970297,2.3783332010289477
4.316831683168317,2.454588234008973
4.336633663366336,2.530839124768652
4.356435643564357,2.6068005350935546
4.376237623762377,2.682211911674203
4.3960396039603955,2.756834776359557
4.415841584158416,2.8304503162561856
4.435643564356436,2.9028572641635426
4.455445544554455,2.97387004936238
4.475247524752476,3.0433171937542083
4.4950495049504955,3.1110399267619915
4.514851485148514,3.1768909928732385
4.534653465346535,3.2407336273281246
4.554455445544555,3.3024406776439994
4.574257425742574,3.3618938510603846
4.594059405940594,3.418983070368672
4.613861386138614,3.473605922837218
4.633663366336633,3.5256671889944733
4.653465346534653,3.575078439867413
4.673267326732674,3.6217576928885666
4.693069306930693,3.6656291180945813
4.712871287128713,3.7066227874597417
4.732673267326733,3.7446744612603275
4.752475247524752,3.779725406270505
4.772277227722772,3.81172224136745
4.792079207920793,3.8406168067909814
4.811881188118812,3.866366053876816
4.8316831683168315,3.888931952578101
4.851485148514852,3.9082814145183917
4.871287128712871,3.924386229692841
4.891089108910891,3.9372230152618957
4.910891089108912,3.946773175171905
4.930693069306931,3.9530228695966843
4.9504950495049505,3.955962993429916
4.97029702970297,3.9555891632760503
4.99009900990099,3.951901712591961
5.00990099009901,3.944905694828273
5.02970297029703,3.9346108946123155
5.0495049504950495,3.921031847208756
5.069306930693069,3.90418786669342
5.089108910891089,3.8841030834855657
5.108910891089109,3.8608064921087184
5.128712871287129,3.834332010295469
5.148514851485149,3.804718550823776
5.1683168316831685,3.772010107777149
5.188118811881188,3.736255859267591
5.207920792079208,3.697510289055563
5.227722772277227,3.655833329957132
5.247524752475248,3.611290532455136
5.267326732673268,3.5639532625427353
5.2871287128712865,3.513898933539156
5.306930693069307,3.4612112774451025
5.326732673267327,3.4059806623690085
5.346534653465346,3.3483044636741486
5.366336633663367,3.288287497792013
5.3861386138613865,3.2260425291383212
5.405940594059405,3.161690862270225
5.425742574257426,3.095363033344119
5.445544554455446,3.0271996170627316
5.465346534653465,2.9573521676024352
5.485148514851486,2.885984314402471
5.504950495049505,2.813273036022285
5.524752475247524,2.739410137260525
5.544554455445545,2.664603955936852
5.564356435643565,2.5890813254645364
5.584158415841584,2.5130898165115934
5.603960396039604,2.4369002740535133
5.623762376237624,2.3608096526251883
5.643564356435643,2.285144129296203
5.663366336633663,2.2102624363790326
5.683168316831684,2.1365592984522848
5.702970297029703,2.0644687742748284
5.7227722772277225,1.9944671868847046
5.742574257425743,1.927075170130097
5.762376237623762,1.8628581690574857
5.782178217821782,1.802424520416154
5.801980198019803,1.746420046450861
5.821782178217822,1.695517991364006
5.841584158415841,1.6504032230461423
5.861386138613861,1.6117500431435
5.881188118811881,1.580193803712363
5.900990099009901,1.5562978219683923
5.920792079207921,1.5405186215499969
5.9405940594059405,1.5331738756501458
5.96039603960396,1.5344180053892251
5.98019801980198,1.5442297278081356
6.0,1.5624139044043754
6.01980198019802,1.5886173285701382
6.03960396039604,1.6223554995857652
6.0594059405940595,1.6630457916203172
6.079207920792079,1.7100421119531939
6.099009900990099,1.762666972717758
6.118811881188119,1.8202383475819692
6.138613861386139,1.8820901893603577
6.158415841584159,1.947586672846376
6.178217821782178,2.0161309635013698
6.198019801980198,2.0871696364402
6.217821782178218,2.1601939009812936
6.237623762376237,2.2347386509487004
6.257425742574258,2.310380158438175
6.2772277227722775,2.3867330207962896
6.297029702970296,2.4634467885727886
6.316831683168317,2.5402025573367535
6.336633663366337,2.616709698287421
6.356435643564356,2.6927028261957093
6.376237623762377,2.767939051567854
6.396039603960396,2.842195530579819
6.415841584158415,2.91526730593574
6.435643564356436,2.9869654202358142
6.455445544554456,3.057115277683246
6.475247524752475,3.1255552278931655
6.495049504950495,3.192135345736294
6.514851485148515,3.2567163825926007
6.534653465346534,3.319168866479774
6.554455445544554,3.37937233086756
6.574257425742575,3.4372146543550324
6.594059405940594,3.4925914956399096
6.6138613861386135,3.545405810277917
6.633663366336634,3.5955674375869284
6.653465346534653,3.642992747691311
6.673267326732673,3.687604340135635
6.693069306930694,3.7293307867410155
6.712871287128713,3.7681064124508272
6.732673267326732,3.8038711088368196
6.752475247524753,3.8365701757306514
6.772277227722772,3.8661541871284246
6.792079207920792,3.8925788781029373
6.811881188118813,3.915805049964759
6.8316831683168315,3.93579849135205
6.851485148514851,3.9525299133104905
6.871287128712871,3.9659748967598483
6.891089108910891,3.97611385103937
6.910891089108911,3.982931982489391
6.930693069306931,3.9864192722665543
6.9504950495049505,3.9865704628113123
6.97029702970297,3.983385052594089
6.99009900990099,3.9768672989654053
7.00990099009901,3.967026229130179
7.02970297029703,3.9538756594617994
7.0495049504950495,3.937434223571833
7.069306930693069,3.9177254097613594
7.089108910891089,3.8947776087045427
7.108910891089109,3.868624172459641
7.128712871287128,3.8393034861733235
7.148514851485149,3.8068590541472895
7.1683168316831685,3.7713396022794456
7.188118811881187,3.732799199284088
7.207920792079208,3.691297399546121
7.227722772277228,3.646899410985417
7.247524752475247,3.5996762919111345
7.267326732673268,3.5497051815479
7.287128712871287,3.4970695697319716
7.306930693069306,3.4418596122251155
7.326732673267327,3.384172499195857
7.346534653465347,3.324112885692821
7.366336633663366,3.261793394401913
7.3861386138613865,3.1973352026535617
7.405940594059406,3.1308687275352893
7.425742574257425,3.0625344250600004
7.445544554455446,2.992483721606426
7.465346534653466,2.920880098205928
7.485148514851485,2.8479003505491964
7.504950495049505,2.773736049568776
7.524752475247524,2.6985952286925174
7.544554455445544,2.6227043236872443
7.564356435643565,2.5463103883867593
7.584158415841584,2.469683602981562
7.603960396039604,2.3931200786948494
7.623762376237624,2.316944940421126
7.643564356435643,2.2415156329800703
7.663366336633663,2.167225341549947
7.683168316831684,2.094506336103323
7.702970297029703,2.0238329366582044
7.7227722772277225,1.9557236461957754
7.742574257425743,1.8907418124138893
7.762376237623762,1.8294939717917893
7.782178217821782,1.7726248350582379
7.801980198019803,1.7208077587256034
7.821782178217822,1.6747296153731583
7.841584158415841,1.6350693527630518
7.861386138613862,1.60247032926573
7.881188118811881,1.5775077485769415
7.900990099009901,1.5606540236214135
7.92079207920792,1.5522462766017946
7.9405940594059405,1.5524608676645693
7.96039603960396,1.5612993509650182
7.980198019801979,1.5785884763989146
8.0,1.603994229572937
8.01980198019802,1.637047280303989
8.03960396039604,1.6771754377074637
8.05940594059406,1.723738224969731
8.07920792079208,1.7760593776788098
8.099009900990099,1.8334544471416583
8.118811881188119,1.8952521939330083
8.138613861386139,1.9608096879689765
8.158415841584159,2.029521824837392
8.178217821782178,2.100826342964225
8.198019801980198,2.174205493121909
8.217821782178218,2.24918539733755
8.237623762376238,2.3253339404553826
8.257425742574258,2.4022578307131517
8.277227722772277,2.4795992807902167
8.297029702970297,2.557032611473735
8.316831683168317,2.6342609675674304
8.336633663366337,2.71101325526447
8.356435643564357,2.787041355334112
8.376237623762377,2.862117630675798
8.396039603960396,2.936032724611311
8.415841584158416,3.0085936334582977
8.435643564356436,3.079622030311995
8.455445544554456,3.1489528143239376
8.475247524752476,3.216432859570058
8.495049504950495,3.2819199388173907
8.514851485148515,3.3452817994583324
8.534653465346535,3.4063953711596144
8.554455445544555,3.465146087112159
8.574257425742575,3.5214273030173455
8.594059405940595,3.5751398000261876
8.613861386138613,3.626191359725082
8.633663366336634,3.6744964009259924
8.653465346534654,3.7199756694777335
8.673267326732672,3.762555973583116
8.693069306930694,3.8021699582030606
8.712871287128714,3.8387559130736686
8.732673267326732,3.8722576096749726
8.752475247524753,3.90262416318899
8.772277227722773,3.9298099160864144
8.792079207920791,3.953774340500505
8.811881188118813,3.974481956996003
8.831683168316832,3.991902267732581
8.85148514851485,4.006009702364875
8.871287128712872,4.016783575324612
8.891089108910892,4.024208053400804
8.91089108910891,4.028272132779882
8.930693069306932,4.0289696249325
8.950495049504951,4.0262991509458415
8.97029702970297,4.020264144101568
8.990099009900991,4.010872860697535
9.00990099009901,3.9981383993081954
9.029702970297029,3.9820787288809067
9.04950495049505,3.962716726275945
9.06930693069307,3.940080224083537
9.089108910891088,3.9142020697955866
9.10891089108911,3.8851201976800396
9.12871287128713,3.852877715007459
9.148514851485148,3.817523004621132
9.16831683168317,3.779109846231173
9.188118811881187,3.7376975592600603
9.207920792079207,3.6933511705831528
9.227722772277229,3.6461416111052367
9.247524752475247,3.596145945807933
9.267326732673267,3.543447642709121
9.287128712871288,3.488136887112426
9.306930693069306,3.4303109486111976
9.326732673267326,3.3700746095675083
9.346534653465348,3.3075406652308375
9.366336633663366,3.242830507308354
9.386138613861386,3.17607480465587
9.405940594059407,3.1074142968178116
9.425742574257425,3.037000718371195
9.445544554455445,2.964997874346471
9.465346534653467,2.891582889261919
9.485148514851485,2.8169476542680183
9.504950495049505,2.7413004981435147
9.524752475247526,2.6648681077670076
9.544554455445544,2.587897721213058
9.564356435643564,2.5106596103044603
9.584158415841586,2.433449857136101
9.603960396039604,2.3565934077318302
9.623762376237623,2.2804473514864005
9.643564356435645,2.2054043220844237
9.663366336633663,2.1318958378907014
9.683168316831683,2.0603952908810994
9.702970297029704,1.9914201482470901
9.722772277227723,1.9255327504875523
9.742574257425742,1.8633388863058924
9.762376237623764,1.805483130436583
9.782178217821782,1.752639807880337
9.801980198019802,1.705498494078532
9.821782178217823,1.6647432981431738
9.841584158415841,1.6310259174727446
9.861386138613861,1.6049336274586303
9.881188118811881,1.5869548387092807
9.900990099009901,1.5774462481161002
9.92079207920792,1.5766063895033289
9.94059405940594,1.5844600551014796
9.96039603960396,1.6008564488805292
9.98019801980198,1.6254814136783005
10.0,1.6578814431346525
10.01980198019802,1.697495298828894
10.03960396039604,1.7436883975894093
10.05940594059406,1.7957856737554079
10.07920792079208,1.853099913312552
10.099009900990099,1.9149540470885853
10.118811881188119,1.9806971576035401
10.138613861386139,2.049714804191723
10.158415841584159,2.1214346999083213
10.178217821782178,2.195328880883597
10.198019801980198,2.270913418680148
10.217821782178218,2.3477465437375207
10.237623762376238,2.425425843740761
10.257425742574258,2.5035850136705124
10.277227722772277,2.5818904807235517
10.297029702970297,2.660038110088099
10.316831683168317,2.7377501128895805
10.336633663366337,2.814772219232481
10.356435643564357,2.8908711407432697
10.376237623762377,2.9658323228190646
10.396039603960396,3.0394579725175337
10.415841584158416,3.111565340407247
10.435643564356436,3.1819852313857844
10.455445544554454,3.2505607188367356
10.475247524752476,3.317146037436684
10.495049504950495,3.3816056317172003
10.514851485148514,3.4438133396750152
10.534653465346535,3.5036516930194956
10.554455445544555,3.5610113178849225
10.574257425742573,3.615790421923021
10.594059405940595,3.667894355586015
10.613861386138614,3.717235237098366
10.633663366336632,3.7637316320989997
10.653465346534654,3.8073082802297225
10.673267326732674,3.847895862065882
10.693069306930692,3.8854308007528253
10.712871287128714,3.9198550935446344
10.732673267326733,3.9511161691589622
