Frequency (Hz),Amplitude
0.0,0.9798554713783707
0.019823788546255508,0.9793845196846706
0.039647577092511016,0.9779721868988025
0.059471365638766524,0.975620039918333
0.07929515418502203,0.9723306902898441
0.09911894273127755,0.9681077943238552
0.11894273127753305,0.9629560533345802
0.13876651982378857,0.9568812140868782
0.15859030837004406,0.9498900695604292
0.17841409691629956,0.9419904601730826
0.1982378854625551,0.9331912756422189
0.2180616740088106,0.9235024577058056
0.2378854625550661,0.9129350039766313
0.25770925110132165,0.9015009732650296
0.27753303964757714,0.8892134927804838
0.29735682819383263,0.8760867677155265
0.31718061674008813,0.8621360938295797
0.3370044052863437,0.8473778737928687
0.3568281938325991,0.8318296382297778
0.37665198237885467,0.8155100726269947
0.3964757709251102,0.7984390515593212
0.41629955947136565,0.7806376820539117
0.4361233480176212,0.7621283583880853
0.4559471365638767,0.7429348312305563
0.4757709251101322,0.7230822948401909
0.49559471365638774,0.7025974970927622
0.5154185022026433,0.6815088785076591
0.5352422907488987,0.6598467483162727
0.5550660792951543,0.63764350812943
0.5748898678414097,0.6149339371699042
0.5947136563876653,0.591755557691287
0.6145374449339208,0.568149105607122
0.6343612334801763,0.5441591402240844
0.6541850220264318,0.5198348393349678
0.6740088105726874,0.4952310432445279
0.6938325991189428,0.4704096356305177
0.7136563876651982,0.44544138330896405
0.7334801762114539,0.4204084046689972
0.7533039647577093,0.39540750209626613
0.7731277533039648,0.37055468085294657
0.7929515418502204,0.34599128490416575
0.8127753303964759,0.3218922935705599
0.8325991189427313,0.2984773863670146
0.8524229074889869,0.27602524679696977
0.8722466960352424,0.2548908880438044
0.8920704845814978,0.23552384013122438
0.9118942731277534,0.21848074946488077
0.931718061674009,0.20441859336803866
0.9515418502202644,0.19404693264061235
0.9713656387665199,0.18802048286421646
0.9911894273127755,0.18678390897702277
1.0110132158590308,0.19043434877871662
1.0308370044052866,0.19868778342545082
1.0506607929515421,0.210973405120968
1.0704845814977975,0.2265911736261708
1.090308370044053,0.24484787422621163
1.1101321585903086,0.2651334776794622
1.1299559471365639,0.28694542389601696
1.1497797356828194,0.30988341712861817
1.1696035242290752,0.33363281471332706
1.1894273127753305,0.35794638374599924
1.209251101321586,0.38262836487843627
1.2290748898678416,0.4075218131367161
1.248898678414097,0.432498985159391
1.2687224669603525,0.45745419237902907
1.288546255506608,0.4822985314306592
1.3083700440528636,0.5069560027418517
1.3281938325991192,0.5313606426895991
1.3480176211453747,0.5554543930520576
1.36784140969163,0.5791855075754477
1.3876651982378856,0.6025073515961974
1.4074889867841411,0.6253774911074466
1.4273127753303965,0.6477569965208415
1.4471365638766522,0.6696099069103343
1.4669603524229078,0.6909028151580963
1.4867841409691631,0.711604544892451
1.5066079295154187,0.7316858976422106
1.5264317180616742,0.7511194540889498
1.5462555066079295,0.7698794172808757
1.5660792951541853,0.7879414885988175
1.5859030837004409,0.8052827694327159
1.6057268722466962,0.8218816831448519
1.6255506607929517,0.837717913112339
1.6453744493392073,0.8527723535625629
1.6651982378854626,0.8670270706180213
1.6850220264317182,0.8804652715066591
1.7048458149779737,0.8930712803113039
1.7246696035242293,0.9048305189567634
1.7444933920704848,0.9157294923878767
1.7643171806167404,0.9257557770927096
1.7841409691629957,0.9348980122846445
1.8039647577092512,0.9431458931846076
1.8237885462555068,0.9504901659472644
1.8436123348017623,0.9569226238583424
1.863436123348018,0.96243610449799
1.8832599118942732,0.9670244876213625
1.9030837004405288,0.9706826935540463
1.9229074889867843,0.973406681939434
1.9427312775330399,0.9751934507085216
1.9625550660792954,0.976041035171848
1.982378854625551,0.9759485071592117
2.002202643171806,0.9749159741557245
2.0220264317180616,0.9729445784052386
2.041850220264317,0.9700364959722753
2.061674008810573,0.9661949357747501
2.0814977973568287,0.9614241386204115
2.1013215859030843,0.9557293763026805
2.1211453744493394,0.9491169508348503
2.140969162995595,0.9415941939290086
2.1607929515418505,0.9331694668564046
2.180616740088106,0.9238521608612535
2.2004405286343616,0.9136526983418707
2.220264317180617,0.9025825350630758
2.2400881057268722,0.8906541637243225
2.2599118942731278,0.8778811192817246
2.2797356828193833,0.8642779865137917
2.299559471365639,0.8498604104336795
2.319383259911895,0.8346451102929582
2.3392070484581504,0.8186498981010726
2.3590308370044055,0.8018937028122272
2.378854625550661,0.7843966016226325
2.3986784140969166,0.7661798601961672
2.418502202643172,0.7472659841233479
2.4383259911894277,0.7276787845544385
2.4581497797356833,0.7074434617854068
2.4779735682819384,0.6865867116869538
2.497797356828194,0.6651368613535921
2.5176211453744495,0.6431240423552492
2.537444933920705,0.6205804127006072
2.5572687224669606,0.5975404423629664
2.577092511013216,0.5740412823961382
2.5969162995594717,0.5501232448954878
2.6167400881057272,0.5258304312357582
2.6365638766519828,0.5012115604633652
2.6563876651982383,0.4763210703785931
2.676211453744494,0.4512205935519344
2.6960352422907494,0.42598095337655595
2.715859030837005,0.4006848869941472
2.73568281938326,0.3754307900304192
2.7555066079295156,0.35033790083416283
2.775330396475771,0.3255535041480234
2.7951541850220267,0.30126292368376234
2.8149779735682823,0.2777032241126336
2.834801762114538,0.25518144644613305
2.854625550660793,0.23409731334725853
2.874449339207049,0.21496747496333887
2.8942731277533045,0.1984415531946025
2.91409691629956,0.18528819856265208
2.9339207048458156,0.17631773549056637
2.953744493392071,0.17221921235968152
2.9735682819383262,0.1733514734926057
2.993392070484582,0.17960786880403776
3.0132158590308373,0.1904578203028207
3.033039647577093,0.20513185030012204
3.0528634361233484,0.2228212157155662
3.072687224669604,0.24280326336586086
3.092511013215859,0.26448657802346814
3.1123348017621146,0.28740807475816876
3.1321585903083706,0.3112114110252042
3.151982378854626,0.33562266957002385
3.1718061674008817,0.36042944030516616
3.1916299559471373,0.38546461391901515
3.2114537444933924,0.41059440230559485
3.231277533039648,0.43570966154807794
3.2511013215859035,0.46071964751189814
3.270925110132159,0.48554751715647515
3.2907488986784146,0.510127070477132
3.31057268722467,0.5344003732924839
3.3303964757709252,0.5583160079263207
3.350220264317181,0.5818277745046184
3.3700440528634363,0.6048937183202794
3.389867841409692,0.6274753952708917
3.4096916299559474,0.6495373127333507
3.4295154185022034,0.6710465009099169
3.4493392070484585,0.691972182074695
3.469162995594714,0.7122855139104203
3.4889867841409696,0.7319593893702818
3.508810572687225,0.7509682799897842
3.5286343612334807,0.7692881128305785
3.5484581497797363,0.7868961736214463
3.5682819383259914,0.8037710304201526
3.588105726872247,0.8198924734288077
3.6079295154185025,0.835241467576817
3.627753303964758,0.8498001152281026
3.6475770925110136,0.8635516269344587
3.667400881057269,0.8764802985910375
3.6872246696035247,0.8885714936853066
3.7070484581497802,0.8998116295917212
3.726872246696036,0.9101881670692271
3.7466960352422913,0.9196896022795634
3.7665198237885464,0.9283054607729619
3.7863436123348024,0.9360262929898737
3.8061674008810575,0.9428436709100991
3.8259911894273135,0.9487501855474774
3.8458149779735686,0.9537394450429194
3.8656387665198246,0.957806073153755
3.8854625550660797,0.9609457079749802
3.905286343612335,0.9631550007593095
3.925110132158591,0.9644316147304874
3.9449339207048464,0.9647742238072575
3.964757709251102,0.9641825111765255
3.9845814977973575,0.9626571676728038
4.004405286343612,0.9601998899386459
4.024229074889869,0.9568133783575217
4.044052863436123,0.9525013347668899
4.06387665198238,0.9472684599761898
4.083700440528634,0.941120451132353
4.103524229074891,0.9340639989942239
4.123348017621146,0.9261067851990904
4.143171806167401,0.9172574796286215
4.162995594713657,0.9075257380100263
4.182819383259912,0.8969221999217385
4.2026431718061685,0.8854584874130905
4.222466960352423,0.8731472044966246
4.242290748898679,0.8600019378313289
4.262114537444934,0.8460372589899732
4.28193832599119,0.8312687287963649
4.301762114537445,0.8157129043358822
4.321585903083701,0.7993873493915153
4.3414096916299565,0.7823106492484211
4.361233480176212,0.7645024310558143
4.381057268722468,0.7459833912548748
4.400881057268723,0.7267753320000852
4.420704845814979,0.7069012090547921
4.440528634361234,0.6863851943788405
4.46035242290749,0.6652527576169037
4.4801762114537445,0.6435307720400573
4.500000000000001,0.621247652334228
4.5198237885462555,0.598433534176851
4.539647577092512,0.5751205091059947
4.559471365638767,0.5513429332256065
4.579295154185023,0.5271378355000504
4.599118942731278,0.5025454618305123
4.618942731277533,0.47761000640853213
4.63876651982379,0.45238060455352463
4.658590308370044,0.4269126953616696
4.678414096916301,0.40126991434379855
4.6982378854625555,0.3755267557928371
4.718061674008811,0.34977236749638246
4.737885462555067,0.3241160301974426
4.757709251101322,0.2986951638522106
4.777533039647578,0.2736871287834712
4.797356828193833,0.24932665927563102
4.817180616740089,0.2259313356533056
4.837004405286344,0.2039374001716537
4.856828193832599,0.18394530896834696
4.876651982378855,0.16676338937484367
4.896475770925111,0.1534106776730785
4.9162995594713665,0.14500081635805656
4.936123348017622,0.14243991380104967
4.955947136563877,0.1460388581440939
4.975770925110133,0.15535014353784857
4.995594713656388,0.16939547579786524
5.015418502202644,0.18705773284622004
5.035242290748899,0.20734958424108976
5.055066079295155,0.2295009674803838
5.07488986784141,0.2529438566585287
5.094713656387666,0.27726620711653216
5.114537444933921,0.302167634737259
5.134361233480177,0.32742547859043875
5.154185022026432,0.35287091568745504
5.174008810572688,0.3783726741605929
5.193832599118943,0.4038260139722989
5.213656387665199,0.429145242850755
5.2334801762114544,0.4542585844488215
5.25330396475771,0.47910461624706113
5.2731277533039655,0.5036297643011042
5.292951541850221,0.5277865178992055
5.312775330396477,0.55153214102056
5.332599118942731,0.5748277312330182
5.352422907488988,0.5976375247978357
5.372246696035242,0.6199283784791523
5.392070484581499,0.641669379719699
5.4118942731277535,0.662831551134918
5.43171806167401,0.6833876250468788
5.451541850220265,0.7033118705413482
5.47136563876652,0.7225799602666603
5.491189427312777,0.741168867548125
5.511013215859031,0.7590567867952407
5.530837004405288,0.7762230719187208
5.550660792951542,0.7926481887468153
5.570484581497798,0.8083136783697278
5.5903083700440535,0.8232021290407835
5.610132158590309,0.8372971547892039
5.6299559471365646,0.8505833792980114
5.64977973568282,0.8630464239053145
5.669603524229076,0.8746728988215896
5.689427312775331,0.8854503968377305
5.709251101321586,0.8953674889405958
5.729074889867842,0.9044137213647643
5.748898678414098,0.9125796136975498
5.768722466960353,0.9198566577253874
5.788546255506609,0.9262373167661668
5.808370044052864,0.9317150252782611
5.82819383259912,0.9362841885743726
5.848017621145375,0.9399401824993604
5.867841409691631,0.942679352956493
5.887665198237886,0.9444990151885306
5.907488986784142,0.9453974527377578
5.927312775330397,0.9453739160253087
5.9471365638766525,0.9444286205036079
5.966960352422908,0.9425627443481567
5.986784140969164,0.9397784256663001
6.00660792951542,0.936078759210966
6.026431718061675,0.9314677925979734
6.04625550660793,0.9259505220354155
6.066079295154186,0.9195328875844999
6.085903083700441,0.9122217679822339
6.105726872246697,0.9040249750688404
6.125550660792952,0.8949512478765174
6.145374449339208,0.8850102464521603
6.1651982378854635,0.8742125455053
6.185022026431718,0.862569627994836
6.204845814977975,0.8500938787953201
6.224669603524229,0.8367985786165416
6.244493392070486,0.8226978983914862
6.264317180616741,0.8078068943994708
6.284140969162996,0.7921415044563089
6.303964757709252,0.775718545587326
6.323788546255507,0.7585557137061428
6.3436123348017635,0.7406715859621981
6.363436123348018,0.7220856266031902
6.3832599118942746,0.7028181974410208
6.403083700440529,0.6828905743336843
6.422907488986785,0.6623249715322717
6.44273127753304,0.6411445763370774
6.462555066079296,0.6193735973265374
6.482378854625551,0.5970373305644557
6.502202643171807,0.5741622498019298
6.5220264317180625,0.5507761289924253
6.541850220264318,0.5269082087753875
6.561674008810574,0.5025894234934746
6.581497797356829,0.47785271265113444
6.601321585903085,0.45273345189480035
6.62114537444934,0.427270055918008
6.640969162995596,0.4015048331003708
6.6607929515418505,0.37548521599131335
6.680616740088107,0.3492655650382672
6.700440528634362,0.322909867184487
6.720264317180618,0.29649586690081864
6.740088105726873,0.2701215521002862
6.759911894273129,0.2439156191910172
6.779735682819384,0.2180548415895612
6.799559471365639,0.1927936693133805
6.819383259911895,0.1685156169896495
6.83920704845815,0.14582207679990328
6.859030837004407,0.12567572881200495
6.8788546255506615,0.10957701190654115
6.898678414096917,0.09957041311066174
6.918502202643173,0.0975760813787809
6.938325991189428,0.10404865733480154
6.958149779735684,0.11756345318704825
6.977973568281939,0.1359828646886212
6.997797356828195,0.15752824827801337
7.01762114537445,0.18100987477157734
7.037444933920705,0.20568226244352333
7.0572687224669615,0.2310764378646907
7.077092511013216,0.2568874867407255
7.096916299559473,0.28290829208265944
7.116740088105728,0.30899146739946165
7.136563876651983,0.33502724734326156
7.156387665198239,0.36093033377636285
7.176211453744494,0.38663184793937244
7.19603524229075,0.41207426689255616
7.215859030837005,0.4372081524426849
7.235682819383261,0.46198998637989164
7.255506607929516,0.486380706410547
7.275330396475772,0.510344696701269
7.295154185022027,0.5338490799875748
7.314977973568283,0.5568632138229029
7.334801762114538,0.5793583275967125
7.354625550660794,0.6013072582653025
7.374449339207049,0.6226842563637804
7.394273127753305,0.6434648427457388
7.4140969162995605,0.6636257023875229
7.433920704845816,0.6831446055688515
7.453744493392072,0.7020003494645305
7.473568281938327,0.7201727150759825
7.493392070484583,0.7376424357656449
7.513215859030838,0.7543911746093398
7.533039647577093,0.7704015084702597
7.552863436123348,0.7856569171996746
7.572687224669605,0.8001417767406374
7.59251101321586,0.8138413551868529
7.612334801762115,0.8267418110568585
7.6321585903083715,0.838830193201356
7.651982378854627,0.8500944418819756
7.671806167400882,0.8605233906533176
7.691629955947137,0.8701067687522286
7.711453744493394,0.8788352037552986
7.731277533039649,0.8867002243102231
7.751101321585904,0.8936942627825003
7.7709251101321595,0.8998106576874613
7.790748898678416,0.9050436558006866
7.81057268722467,0.909388413858716
7.830396475770926,0.9128409997772134
7.850220264317182,0.9153983933266947
7.870044052863436,0.9170584862162269
7.889867841409693,0.9178200815446691
7.909691629955948,0.9176828925864388
7.929515418502204,0.9166475408853997
7.9493392070484585,0.9147155536360446
7.969162995594715,0.9118893603360279
7.9889867841409705,0.9081722886988052
8.008810572687224,0.9035685598189332
8.02863436123348,0.8980832825863743
8.048458149779737,0.8917224473498898
8.068281938325994,0.8844929188327769
8.088105726872246,0.8764024283077559
8.107929515418503,0.8674595650415301
8.12775330396476,0.8576737670227617
8.147577092511014,0.8470553109916313
8.167400881057269,0.8356153017932682
8.187224669603525,0.8233656610827902
8.207048458149782,0.8103191154148768
8.226872246696036,0.7964891837585335
8.246696035242293,0.7818901644857126
8.266519823788547,0.7665371218932246
8.286343612334802,0.7504458723301402
8.306167400881058,0.7336329700201318
8.325991189427315,0.7161156926894282
8.345814977973568,0.6979120271390297
8.365638766519824,0.679040654937589
8.38546255506608,0.6595209384604552
8.405286343612337,0.6393729075678919
8.42511013215859,0.6186172473077131
8.444933920704846,0.5972752871550827
8.464757709251103,0.5753689924818556
8.484581497797357,0.5529209592043574
8.504405286343614,0.5299544129286016
8.524229074889869,0.5064932144578009
8.544052863436125,0.48256187434366027
8.56387665198238,0.458185580409692
8.583700440528636,0.43339024411874216
8.60352422907489,0.4082025747586677
8.623348017621145,0.3826501955000708
8.643171806167402,0.35676182394079675
8.662995594713658,0.33056755465768634
8.682819383259913,0.30409930820605396
8.702643171806168,0.27739156171459856
8.722466960352424,0.25048257646857014
8.74229074889868,0.22341654756864432
8.762114537444935,0.1962475696204507
8.78193832599119,0.1690474478306783
8.801762114537446,0.14192241317581847
8.821585903083701,0.1150529056050524
8.841409691629957,0.08880227887043232
8.861233480176212,0.06407071801838918
8.881057268722468,0.04365404099830196
8.900881057268723,0.035949124985578146
8.92070484581498,0.04757578200694806
8.940528634361234,0.06936289057676974
8.960352422907489,0.09445433564578233
8.980176211453745,0.12072529259261328
9.000000000000002,0.14745856107407662
9.019823788546258,0.17434995002794146
9.039647577092511,0.20124228197938324
9.059471365638768,0.22804013198550016
9.079295154185024,0.25467752309865166
9.099118942731279,0.2811039857627816
9.118942731277533,0.3072779063389315
9.13876651982379,0.3331630939057218
9.158590308370046,0.3587268941437817
9.1784140969163,0.3839391002102118
9.198237885462555,0.4087712983621158
9.218061674008812,0.4331964623831142
9.237885462555067,0.45718869630530506
9.257709251101323,0.480723068642754
9.27753303964758,0.5037755048010047
9.297356828193834,0.526322717424627
9.317180616740089,0.5483421620261776
9.337004405286345,0.5698120097691127
9.356828193832602,0.5907111320602141
9.376651982378855,0.6110190933604478
9.396475770925111,0.6307161497539889
9.416299559471367,0.6497832515585832
9.436123348017622,0.6682020487597227
9.455947136563877,0.6859548983912176
9.475770925110133,0.7030248732208573
9.49559471365639,0.7193957712660595
9.515418502202644,0.7350521257825264
9.5352422907489,0.7499792154551034
9.555066079295155,0.7641630745823167
9.57488986784141,0.77759050309281
9.594713656387666,0.7902490762664655
9.614537444933923,0.8021271540596635
9.634361233480178,0.8132138899540756
9.654185022026432,0.8234992392642798
9.674008810572689,0.832973966851692
9.693832599118945,0.8416296542019883
9.713656387665198,0.8494587058312593
9.733480176211454,0.8564543549922671
9.75330396475771,0.8626106686575596
9.773127753303967,0.867922551760629
9.792951541850222,0.8723857506800065
9.812775330396477,0.8759968559543148
9.832599118942733,0.8787533042194168
9.852422907488988,0.8806533793609819
9.872246696035244,0.8816962128783784
9.892070484581499,0.8818817834577954
9.911894273127754,0.8812109157545722
9.93171806167401,0.8796852783866427
9.951541850220266,0.8773073811428574
9.971365638766521,0.8740805714119729
9.991189427312776,0.8700090298399821
10.011013215859032,0.8650977652253815
10.030837004405289,0.8593526086643265
10.050660792951543,0.852780206959795
10.070484581497798,0.8453880153114284
10.090308370044054,0.8371842893055957
10.11013215859031,0.8281780762286387
10.129955947136565,0.8183792057295111
10.14977973568282,0.8077982798630436
10.169603524229077,0.7964466625498343
10.189427312775331,0.7843364684952516
10.209251101321588,0.7714805516177099
10.229074889867842,0.7578924930459087
10.248898678414099,0.7435865887564936
10.268722466960353,0.7285778369389226
10.28854625550661,0.7128819251929669
10.308370044052865,0.6965152176895095
10.32819383259912,0.6794947424571695
10.348017621145376,0.6618381789995595
10.367841409691632,0.643563846504553
10.387665198237887,0.6246906929820378
10.407488986784141,0.6052382857697639
10.427312775330398,0.5852268039875772
10.447136563876654,0.5646770337167234
10.466960352422909,0.5436103669572465
10.486784140969164,0.5220488058118291
10.50660792951542,0.500014973917167
10.526431718061675,0.47753213798895794
10.546255506607931,0.45462424361411263
10.566079295154186,0.43131597136231076
