Frequency (Hz),Amplitude
0.0,3.0335378614365385
0.020066889632107024,3.047711141186521
0.04013377926421405,3.0897858868000867
0.060200668896321065,3.158486008399933
0.0802675585284281,3.2518641577755436
0.10033444816053512,3.3675175947892058
0.12040133779264213,3.5028096991893984
0.14046822742474915,3.6550589399314037
0.1605351170568562,3.821676952263224
0.1806020066889632,4.000254578042468
0.20066889632107024,4.188604769393877
0.22073578595317725,4.384774591051649
0.24080267558528426,4.587037720320398
0.2608695652173913,4.7938762707234455
0.2809364548494983,5.003957986295673
0.3010033444816054,5.2161125540970446
0.3210702341137124,5.42930912802005
0.34113712374581934,5.64263607370329
0.3612040133779264,5.855283288012858
0.3812709030100334,6.066527079116267
0.4013377926421405,6.275717407983707
0.42140468227424743,6.482267215285899
0.4414715719063545,6.685643541335416
0.4615384615384615,6.885360161624681
0.4816053511705685,7.080971489470071
0.5016722408026756,7.272067530692084
0.5217391304347826,7.458269708127666
0.5418060200668896,7.639227403714003
0.5618729096989966,7.8146150920140744
0.5819397993311036,7.984129961264949
0.6020066889632107,8.147489936595086
0.6220735785953176,8.304432035408375
0.6421404682274248,8.454710997539555
0.6622073578595318,8.598098143096527
0.6822742474916387,8.734380419319372
0.7023411371237458,8.863359604646826
0.7224080267558528,8.984851643778027
0.7424749163879598,9.098686092087407
0.7625418060200668,9.20470565149013
0.7826086956521738,9.302765782921801
0.802675585284281,9.392734383119109
0.8227424749163879,9.474491515469902
0.8428093645484949,9.547929186427625
0.862876254180602,9.612951160422366
0.882943143812709,9.669472807404997
0.903010033444816,9.717420978176435
0.923076923076923,9.756733903517413
0.9431438127090299,9.787361113875065
0.963210702341137,9.809263377006832
0.983277591973244,9.822412651549191
1.0033444816053512,9.826792054987513
1.0234113712374582,9.822395844968353
1.0434782608695652,9.809229413330854
1.0635451505016722,9.787309292651516
1.0836120401337792,9.756663175509075
1.1036789297658862,9.717329947093777
1.1237458193979932,9.669359732221308
1.1438127090301002,9.612813958276687
1.1638795986622072,9.54776543612297
1.1839464882943145,9.474298461577586
1.2040133779264215,9.392508940704014
1.2240802675585283,9.302504542909181
1.2441471571906353,9.204404886701978
1.2642140468227423,9.098341763986122
1.2842809364548495,8.984459409968014
1.3043478260869565,8.862914827201484
1.3244147157190636,8.733878174022687
1.3444816053511706,8.597533229717278
1.3645484949832773,8.454077951293133
1.3846153846153846,8.303725139810131
1.4046822742474916,8.146703237972257
1.4247491638795986,7.983257285277495
1.4448160535117056,7.813650062643308
1.4648829431438126,7.638163465320486
1.4849498327759196,7.457100151367394
1.5050167224080266,7.270785523326607
1.5250836120401337,7.079570113431564
1.5451505016722407,6.883832458126241
1.5652173913043477,6.683982566383484
1.5852842809364547,6.480466108699071
1.605351170568562,6.273769480006011
1.625418060200669,6.064425920001954
1.6454849498327757,5.853022907637269
1.6655518394648827,5.640211080411415
1.6856187290969897,5.42671495864844
1.705685618729097,5.213345770445669
1.725752508361204,5.00101665723348
1.745819397993311,4.790760463307384
1.765886287625418,4.583750127071179
1.7859531772575248,4.38132132233208
1.806020066889632,4.184996336810217
1.826086956521739,3.996507082068161
1.846153846153846,3.8178134575082363
1.866220735785953,3.6511109652714406
1.8862876254180598,3.4988186590351584
1.9063545150501673,3.3635359029995637
1.926421404682274,3.2479555714740416
1.9464882943143813,3.1547247086197565
1.966555183946488,3.0862538674756133
1.9866220735785953,3.0444937998413466
2.0066889632107023,3.030718240017832
2.026755852842809,3.0453638512492036
2.0468227424749164,3.0879720371506325
2.0668896321070234,3.1572502074266238
2.0869565217391304,3.25123398220043
2.1070234113712374,3.3675051711180517
2.1270903010033444,3.503414589058552
2.1471571906354514,3.6562714645650947
2.1672240802675584,3.8234813100717813
2.1872909698996654,4.002631409187432
2.2073578595317724,4.191533068324497
2.2274247491638794,4.388233017878262
2.2474916387959865,4.591005426711633
2.267558528428094,4.79833336671047
2.2876254180602005,5.008885758606969
2.3076923076923075,5.221493522311908
2.3277591973244145,5.435127001102885
2.3478260869565215,5.648875649951998
2.367892976588629,5.861930326780416
2.3879598662207355,6.07356816225615
2.408026755852843,6.283139801882867
2.4280936454849495,6.490058739676369
2.4481605351170566,6.69379244808282
2.468227424749164,6.893855024830803
2.4882943143812706,7.089801107110923
2.508361204013378,7.281220837376849
2.5284280936454846,7.467735698230596
2.548494983277592,7.648995063984759
2.568561872909699,7.8246733427363315
2.5886287625418056,7.99446760506127
2.608695652173913,8.158095614037597
2.6287625418060196,8.315294186671357
2.648829431438127,8.465817829411199
2.668896321070234,8.60943760074579
2.688963210702341,8.745940162287233
2.709030100334448,8.875126986597904
2.7290969899665547,8.996813695607264
2.749163879598662,9.110829508028477
2.769230769230769,9.217016777916816
2.789297658862876,9.315230609572387
2.809364548494983,9.405338536506815
2.82943143812709,9.487220254270547
2.849498327759197,9.560767398659582
2.869565217391304,9.625883362253958
2.8896321070234112,9.682483143441555
2.9096989966555182,9.730493223093239
2.9297658862876252,9.76985146491643
2.9498327759197323,9.800507036253292
2.9698996655518393,9.822420346731567
2.9899665551839463,9.835563002742148
3.0100334448160533,9.839917776224407
3.0301003344481603,9.835478586704586
3.0501672240802673,9.822250495966559
3.0702341137123748,9.80024971515126
3.0903010033444813,9.769503624492751
3.1103678929765888,9.730050806316003
3.1304347826086953,9.6819410923568
3.1505016722408024,9.625235626929388
3.1705685618729094,9.5600069479768
3.1906354515050164,9.486339088606899
3.210702341137124,9.404327702363195
3.2307692307692304,9.314080216222772
3.250836120401338,9.215716016180496
3.270903010033445,9.109366671299266
3.2909698996655514,8.995176203316786
3.311036789297659,8.87330141034586
3.3311036789297654,8.74391225494376
3.351170568561873,8.607192328924732
3.3712374581939795,8.463339409834939
3.391304347826087,8.312566127105525
3.411371237458194,8.155100759679769
3.4314381270903005,7.991188191535232
3.451505016722408,7.821091057193084
3.471571906354515,7.645091116268448
3.491638795986622,7.4634909046663
3.511705685618729,7.276615720523451
3.531772575250836,7.084816015855767
3.551839464882943,6.888470280562904
3.5719063545150496,6.6879885244720825
3.591973244147157,6.483816485941353
3.612040133779264,6.276440722520776
3.632107023411371,6.0663947702476015
3.652173913043478,5.8542665925192985
3.672240802675585,5.640707574861681
3.692307692307692,5.426443353336108
3.712374581939799,5.2122867822187215
3.732441471571906,4.999153333582913
3.752508361204013,4.788079147664716
3.7725752508361197,4.580241769351448
3.7926421404682276,4.376983236354726
3.8127090301003346,4.179834517345733
3.832775919732441,3.9905391880229244
3.852842809364548,3.8110725247489756
3.872909698996655,3.643649803780593
3.8929765886287626,3.4907146798223696
3.9130434782608696,3.3548957870735805
3.933110367892976,3.238918761888857
3.953177257525083,3.145464306644624
3.9732441471571907,3.0769734107806466
3.9933110367892977,3.035418920974061
4.013377926421405,3.022083489855279
4.033444816053511,3.037396680087296
4.053511705685618,3.0808772113140117
4.073578595317726,3.151197977300003
4.093645484949833,3.2463540035678355
4.113712374581939,3.3638862692937104
4.133779264214047,3.5011089407604956
4.153846153846153,3.6553011808897713
4.173913043478261,3.8238456239794605
4.193979933110368,4.004313277720028
4.214046822742475,4.194504617000009
4.234113712374581,4.392459699145306
4.254180602006689,4.5964490115636325
4.274247491638796,4.80495398761362
4.294314381270903,5.016643233680473
4.314381270903009,5.230348161720537
4.334448160535117,5.44504005491902
4.354515050167224,5.659809516292517
4.374581939799331,5.873848605268553
4.394648829431437,6.086435611862417
4.414715719063545,6.296922243141423
4.434782608695651,6.504722927755849
4.454849498327759,6.70930593382777
4.474916387959866,6.910186014523515
4.494983277591973,7.1069183274425844
4.5150501672240795,7.29909340930838
4.535117056856188,7.486333021603612
4.555183946488294,7.668286713587611
4.575250836120401,7.844628975817395
4.595317725752508,8.015056879860142
4.615384615384615,8.179288118672957
4.635451505016722,8.337059377613596
4.655518394648829,8.48812497873311
4.6755852842809364,8.63225575135588
4.695652173913043,8.769238090387878
4.71571906354515,8.89887317066196
4.735785953177258,9.0209762912241
4.7558528428093645,9.135376328028299
4.775919732441471,9.241915277238203
4.795986622073578,9.340447874390122
4.816053511705686,9.430841277184465
4.8361204013377925,9.512974801745079
4.856187290969899,9.586739703903024
4.8762541806020065,9.652038998490179
4.896321070234113,9.708787310825073
4.916387959866221,9.756910755581796
4.936454849498328,9.796346839090186
4.956521739130435,9.827044381851346
4.976588628762541,9.848963458691632
4.996655518394649,9.862075354541249
5.016722408026756,9.866362534328792
5.036789297658863,9.861818625944526
5.056856187290969,9.848448415657861
5.076923076923077,9.826267855789638
5.096989966555184,9.795304084849926
5.117056856187291,9.755595460768031
5.137123745819398,9.707191608275721
5.157190635451505,9.65015348196897
5.177257525083611,9.584553447082529
5.197324414715719,9.510475380579551
5.217391304347826,9.428014795804955
5.237458193979933,9.337278994695412
5.257525083612039,9.238387252408037
5.277591973244148,9.131471040252963
5.297658862876254,9.016674294031203
5.317725752508361,8.894153736332202
5.337792642140468,8.7640792630945
5.357859531772575,8.626634406845918
5.377926421404682,8.482016891604856
5.397993311036789,8.330439297549455
5.418060200668896,8.172129857380712
5.438127090301003,8.00733341098596
5.458193979933109,7.836312550756181
5.478260869565218,7.659348996978143
5.498327759197324,7.476745251419576
5.518394648829431,7.288826587924656
5.538461538461538,7.0959434519775355
5.558528428093646,6.898474357275105
5.578595317725752,6.696829386919943
5.598662207357859,6.491454430430665
5.618729096989966,6.282836315773873
5.638795986622073,6.071509028108746
5.65886287625418,5.858061243216744
5.678929765886288,5.643145441523779
5.698996655518394,5.427488903405513
5.719063545150501,5.211906908606118
5.739130434782608,4.997318454681281
5.759197324414716,4.784764741088648
5.7792642140468224,4.5754304865874715
5.799331103678929,4.370667778701163
5.8193979933110365,4.172021478369695
5.839464882943144,3.981254065441872
5.8595317725752505,3.800366041640169
5.879598662207358,3.6316055037036477
5.8996655518394645,3.477457408485663
5.919732441471571,3.3406000955617063
5.9397993311036785,3.223815495938769
5.959866220735786,3.1298428986352906
5.9799331103678925,3.061177132900344
5.999999999999999,3.019831189126021
6.020066889632107,3.007105525733933
6.040133779264214,3.023419874673944
6.060200668896321,3.0682558903731176
6.080267558528428,3.1402284408703833
6.100334448160535,3.237263460058547
6.120401337792642,3.3568319288443016
6.1404682274247495,3.49618484917911
6.160535117056856,3.6525493103802535
6.180602006688963,3.8232681011220424
6.200668896321069,4.00588367568836
6.2207357859531776,4.198177307023428
6.240802675585284,4.398177025613184
6.260869565217391,4.604146483672132
6.280936454849498,4.814563853334673
6.301003344481605,5.028096824325433
6.321070234113712,5.243577347543254
6.341137123745819,5.459978082199492
6.361204013377926,5.67639142813195
6.381270903010033,5.892011391273993
6.40133779264214,6.10611818787656
6.421404682274248,6.318065329835171
6.441471571906354,6.527268873910685
6.461538461538461,6.733198514164637
6.481605351170568,6.9353702210370445
6.501672240802676,7.133340165873037
6.521739130434782,7.326699707527306
6.54180602006689,7.5150712535184905
6.561872909698996,7.6981048401376775
6.581939799331103,7.875475303361048
6.60200668896321,8.046879935486194
6.622073578595318,8.212036541529898
6.642140468227424,8.370681825126368
6.662207357859531,8.522570046487035
6.682274247491639,8.667471905421223
6.702341137123746,8.805173610901763
6.722408026755852,8.935476105554436
6.742474916387959,9.05819441905856
6.762541806020066,9.173157129013557
6.782608695652174,9.280205911555417
6.80267558528428,9.379195167058564
6.822742474916388,9.469991708765257
6.842809364548494,9.552474504249245
6.862876254180601,9.626534461330884
6.882943143812709,9.692074251482353
6.903010033444816,9.749008164951942
6.9230769230769225,9.797261992838836
6.94314381270903,9.836772932201384
6.963210702341137,9.86748951101255
6.983277591973244,9.889371530410795
7.0033444816053505,9.902390022253432
7.023411371237458,9.906527220480752
7.0434782608695645,9.901776545257691
7.063545150501672,9.888142599289106
7.083612040133779,9.865641176117402
7.103678929765886,9.834299280618787
7.123745819397993,9.794155162328696
7.143812709030099,9.745258362658989
7.1638795986622075,9.687669777532976
7.183946488294314,9.62146173747191
7.204013377926421,9.546718107734595
7.224080267558528,9.463534411757907
7.2441471571906355,9.3720179818921
7.264214046822742,9.272288142295853
7.2842809364548495,9.164476429883704
7.304347826086956,9.048726860440802
7.324414715719063,8.9251962484831
7.34448160535117,8.794054591203784
7.364548494983278,8.655485528979973
7.384615384615384,8.509686897507518
7.404682274247491,8.356871389796922
7.424749163879598,8.19726735013887
7.444816053511706,8.031119726906427
7.464882943143812,7.858691216917067
7.48494983277592,7.680263641297278
7.505016722408026,7.496139601700791
7.525083612040134,7.306644476724488
7.545150501672239,7.112128831915409
7.565217391304348,6.912971333414579
7.585284280936455,6.709582275643372
7.605351170568561,6.502407858120514
7.625418060200669,6.291935376021249
7.645484949832775,6.078699523662594
7.665551839464882,5.863290049225444
7.685618729096991,5.646361040790521
7.705685618729096,5.428642163602973
7.725752508361204,5.210952197074937
7.74581939799331,4.994215219924838
7.765886287625418,4.779479732117665
7.785953177257525,4.567940830788661
7.806020066889631,4.360965190668972
7.826086956521739,4.160117912635653
7.846153846153847,3.9671891270489175
7.866220735785952,3.7842163789573195
7.88628762541806,3.613496147760482
7.906354515050166,3.4575744907484247
7.926421404682274,3.319203490605357
7.946488294314381,3.201248741195232
7.966555183946488,3.106536572595653
7.986622073578595,3.037641461255281
8.006688963210701,2.9966349499306144
8.02675585284281,2.9848418126086855
8.046822742474916,3.0026640277804604
8.066889632107022,3.04952451333139
8.08695652173913,3.1239485168100796
8.107023411371236,3.223756889608181
8.127090301003344,3.346315534324552
8.147157190635452,3.488781834511442
8.167224080267557,3.6483067164446163
8.187290969899665,3.822175532158831
8.207357859531772,4.007890270708747
8.227424749163879,4.203205577161915
8.247491638795987,4.406133320354227
8.267558528428093,4.6149284570474105
8.2876254180602,4.828065525829058
8.307692307692307,5.044211844194442
8.327759197324415,5.262200967544389
8.347826086956522,5.481008254334109
8.367892976588628,5.699729313134591
8.387959866220736,5.917561493189565
8.408026755852843,6.133788258545291
8.42809364548495,6.347766140632997
8.448160535117056,6.558913918738702
8.468227424749163,6.766703684762375
8.488294314381271,6.970653480218926
8.508361204013378,7.1703212339950335
8.528428093645484,7.365299770748797
8.548494983277592,7.555212698081072
8.568561872909697,7.739711014144449
8.588628762541806,7.918470305863916
8.608695652173914,8.091188431708684
8.628762541806019,8.257583602523265
8.648829431438127,8.417392789913231
8.668896321070234,8.570370404681595
8.68896321070234,8.716287198356609
8.709030100334449,8.854929349397176
8.729096989966555,8.986097702588056
8.749163879598662,9.109607135757127
8.769230769230768,9.22528603251575
8.789297658862875,9.332975843445746
8.809364548494983,9.432530721198503
8.82943143812709,9.523817217466696
8.849498327759196,9.606714031841493
8.869565217391303,9.681111804266651
8.889632107023411,9.746912944210921
8.909698996655518,9.804031490860092
8.929765886287624,9.852392999622422
8.949832775919733,9.891934451084563
8.96989966555184,9.922604179277437
8.989966555183946,9.944361816739146
9.010033444816054,9.957178254414705
9.030100334448159,9.96103561492766
9.050167224080267,9.95592723821231
9.070234113712376,9.941857678919979
9.09030100334448,9.918842715421377
9.110367892976589,9.886909370631349
9.130434782608695,9.846095945293081
9.150501672240802,9.796452064788776
9.17056856187291,9.738038741004674
9.190635451505017,9.670928451284894
9.210702341137123,9.595205237075266
9.23076923076923,9.510964825505331
9.250836120401337,9.41831477790342
9.270903010033445,9.317374670114754
9.290969899665551,9.208276310525052
9.311036789297658,9.091164002923104
9.331103678929765,8.966194862812017
9.351170568561873,8.833539197560142
9.37123745819398,8.693380962942964
9.391304347826086,8.54591831125973
9.411371237458194,8.391364249427397
9.4314381270903,8.229947429406545
9.451505016722408,8.061913098178035
9.471571906354516,7.887524240494446
9.49163879598662,7.707062955056124
9.511705685618729,7.520832113959271
9.531772575250837,7.329157366658849
9.551839464882942,7.132389563800312
9.57190635451505,6.930907693709631
9.591973244147155,6.7251224457830885
9.612040133779264,6.51548054122069
9.632107023411372,6.302470003179823
9.652173913043477,6.086626575913082
9.672240802675585,5.868541545575759
9.692307692307692,5.648871262563926
9.712374581939798,5.4283487122651835
9.732441471571907,5.207797518946632
9.752508361204013,4.988148778705299
9.77257525083612,4.770461070266819
9.792642140468226,4.5559438323370935
9.812709030100335,4.345983933905425
9.832775919732441,4.142174562436054
9.852842809364548,3.946344322952608
9.872909698996656,3.760582451975449
9.89297658862876,3.587253127650456
9.91304347826087,3.4289880923497265
9.933110367892976,3.2886429662854373
9.953177257525082,3.169200715998416
9.97324414715719,3.0736092386717724
9.993311036789297,3.0045529229213233
10.013377926421404,2.964181544207996
10.033444816053512,2.9538475764456584
10.053511705685617,2.9739196307245197
10.073578595317725,3.0237291420237193
10.093645484949834,3.1016678328574274
10.113712374581938,3.2054041766759944
10.133779264214047,3.332155153028504
10.153846153846153,3.478948385403321
10.17391304347826,3.642831672247166
10.193979933110368,3.821014603111884
10.214046822742475,4.01094745644734
10.234113712374581,4.210352272109793
10.254180602006688,4.4172224118335714
10.274247491638796,4.629804128298139
10.294314381270903,4.846569711971137
10.31438127090301,5.066188241608524
10.334448160535118,5.287497337521749
10.354515050167223,5.509477583075411
10.37458193979933,5.73123023286346
10.394648829431437,5.951958245308198
10.414715719063544,6.170950388302174
10.434782608695652,6.38756804793701
10.454849498327757,6.601234345074062
10.474916387959865,6.811425186018355
10.494983277591974,7.017661915269872
10.515050167224079,7.219505285842154
10.535117056856187,7.416550508692697
10.555183946488295,7.608423184165792
10.5752508361204,7.794775953932557
10.595317725752508,7.97528574175129
10.615384615384615,8.149651475990394
10.635451505016722,8.317592206962495
10.65551839464883,8.478845548436935
10.675585284280936,8.633166385895299
10.695652173913043,8.780325804749596
10.71571906354515,8.920110200343368
10.735785953177256,9.052320538503194
10.755852842809364,9.176771741028652
10.775919732441471,9.293292175065469
10.795986622073578,9.401723229011811
10.816053511705684,9.501918960628258
10.836120401337793,9.59374580549542
10.856187290969899,9.677082335994855
10.876254180602006,9.751819062667028
10.896321070234114,9.817858271192339
10.916387959866219,9.875113889404235
10.936454849498327,9.923511379721186
10.956521739130435,9.962987653214213
10.97658862876254,9.99349100223737
10.996655518394649,10.014981049165588
