Time (s),Filtered Signal
0.0,0.01479296449126332
0.03337028824833703,0.014323450970914971
0.06674057649667406,-0.029020259007525324
0.10011086474501109,-0.13020767220504195
0.13348115299334812,-0.2640230401091429
0.16685144124168516,-0.3733262070669262
0.20022172949002218,-0.3944465138703081
0.2335920177383592,-0.28707185048468603
0.26696230598669624,-0.05407604996178709
0.3003325942350333,0.2577814253021475
0.3337028824833703,0.575628570541178
0.3670731707317073,0.8273764533707176
0.40044345898004435,0.9651468319144387
0.4338137472283814,0.9760438950271002
0.4671840354767184,0.878540895872651
0.5005543237250555,0.7096502771298298
0.5339246119733925,0.5106929325291963
0.5672949002217295,0.31730525899917295
0.6006651884700666,0.15482177329569222
0.6340354767184035,0.03682472306121367
0.6674057649667406,-0.03558841733533259
0.7007760532150776,-0.07410127951475556
0.7341463414634146,-0.10118740549110755
0.7675166297117517,-0.14399705835752338
0.8008869179600887,-0.2246324763648121
0.8342572062084257,-0.350233650765187
0.8676274944567628,-0.5075293435332995
0.9009977827050998,-0.6650152341100253
0.9343680709534368,-0.7825150725022216
0.9677383592017739,-0.8245345600255218
1.001108647450111,-0.7722937323165426
1.0344789356984478,-0.630155927902764
1.067849223946785,-0.4245955067437677
1.101219512195122,-0.1965238150741904
1.134589800443459,0.010316764018733243
1.167960088691796,0.1614017992248697
1.2013303769401331,0.24055153730977427
1.23470066518847,0.25351812175269545
1.268070953436807,0.2247288952344194
1.3014412416851442,0.18779528110727645
1.3348115299334813,0.17264995621066195
1.3681818181818182,0.19395261327623242
1.4015521064301553,0.24559439021914156
1.4349223946784924,0.3040653241429188
1.4682926829268292,0.339621089876677
1.5016629711751663,0.3303101143685664
1.5350332594235034,0.2721339859853215
1.5684035476718403,0.1802128882157322
1.6017738359201774,0.08033902091973452
1.6351441241685145,-0.0045208986346584245
1.6685144124168514,-0.06529421380660608
1.7018847006651885,-0.10921261716944114
1.7352549889135256,-0.1523096999196816
1.7686252771618625,-0.20664398052631144
1.8019955654101996,-0.2701127327799708
1.8353658536585367,-0.3252162598940295
1.8687361419068735,-0.3477580609434519
1.9021064301552106,-0.3204928349213166
1.9354767184035477,-0.2437439323966592
1.9688470066518848,-0.13672143137732742
2.002217294900222,-0.02861718535881619
2.035587583148559,0.055594227672061736
2.0689578713968957,0.10673704490538617
2.102328159645233,0.13406577803864808
2.13569844789357,0.15776429961841135
2.1690687361419068,0.1957865398473179
2.202439024390244,0.25244264909217246
2.235809312638581,0.3148783049076136
2.269179600886918,0.3591460665704788
2.302549889135255,0.3625139026585189
2.335920177383592,0.3155882749958039
2.369290465631929,0.2280789479022536
2.4026607538802662,0.12526664132815998
2.436031042128603,0.03681547032409759
2.46940133037694,-0.01665830737936747
2.5027716186252773,-0.03266869081703168
2.536141906873614,-0.027034046940566995
2.569512195121951,-0.024946109976210495
2.6028824833702884,-0.04733920730690978
2.6362527716186253,-0.09946701160772356
2.6696230598669626,-0.16760187635616355
2.7029933481152995,-0.22564907288895253
2.7363636363636363,-0.24828864699820613
2.7697339246119737,-0.22381589010092265
2.8031042128603105,-0.16012529063944198
2.8364745011086474,-0.08116062970617595
2.8698447893569847,-0.016330941990729396
2.9032150776053216,0.011254871950631556
2.9365853658536585,-0.007771962248610406
2.969955654101996,-0.06803043490419211
3.0033259423503327,-0.15307654688937858
3.0366962305986696,-0.2403842853274226
3.070066518847007,-0.30541146124772156
3.1034368070953438,-0.3250148902406344
3.1368070953436806,-0.28180945697471027
3.170177383592018,-0.1700082069243148
3.203547671840355,-0.0007651578782362244
3.2369179600886917,0.1966268130006986
3.270288248337029,0.3803740836273545
3.303658536585366,0.5079808423660332
3.337028824833703,0.5498747614505013
3.37039911308204,0.499049811203956
3.403769401330377,0.3726501413328408
3.437139689578714,0.20526170508200386
3.470509977827051,0.0372725052828197
3.503880266075388,-0.09691732919215505
3.537250554323725,-0.17710357922521391
3.5706208425720622,-0.2004560443309475
3.603991130820399,-0.1801202892529962
3.637361419068736,-0.14041758706427424
3.6707317073170733,-0.1097296705132172
3.70410199556541,-0.11215739766980783
3.737472283813747,-0.15959096877802792
3.7708425720620844,-0.24650783120164144
3.8042128603104213,-0.3497685453811431
3.8375831485587586,-0.4344271285973758
3.8709534368070955,-0.4644317633240589
3.9043237250554323,-0.41497676327048766
3.9376940133037697,-0.2821530361562534
3.9710643015521065,-0.08604397070759355
4.004434589800444,0.1344495601777329
4.037804878048781,0.33365279616838134
4.071175166297118,0.4737545953660883
4.1045454545454545,0.5364885199195931
4.137915742793791,0.5273910957231757
4.171286031042128,0.47124757293740327
4.204656319290466,0.4009930125140699
4.238026607538803,0.3448621799367591
4.27139689578714,0.31689016306022144
4.304767184035477,0.3140105394759031
4.3381374722838135,0.32001354883770855
4.371507760532151,0.3139049179050637
4.404878048780488,0.2788292465002387
4.438248337028825,0.20807024500345644
4.471618625277162,0.10634923222958631
4.504988913525499,-0.013168752081072209
4.538359201773836,-0.13409270313602417
4.571729490022173,-0.24173334761105625
4.60509977827051,-0.3260302151243983
4.638470066518847,-0.382202817807665
4.671840354767184,-0.41002538167103236
4.705210643015521,-0.4129140510615859
4.738580931263858,-0.39741971905462015
4.771951219512196,-0.37280397577321484
4.8053215077605325,-0.34986377615077235
4.838691796008869,-0.33847518261730875
4.872062084257206,-0.3442929166452862
4.905432372505543,-0.36602306114818783
4.93880266075388,-0.3949220817141884
4.972172949002218,-0.41731245116363935
5.005543237250555,-0.4193267935815597
5.0389135254988915,-0.39175844997786036
5.072283813747228,-0.332711560084101
5.105654101995565,-0.2469011519306584
5.139024390243902,-0.14227418359138608
5.17239467849224,-0.026015595238908708
5.205764966740577,0.09782135063929545
5.239135254988914,0.22790138882945396
5.2725055432372505,0.36291340258629823
5.305875831485587,0.4983869469611831
5.339246119733925,0.625024335985733
5.372616407982262,0.729637645748121
5.405986696230599,0.7983297337875768
5.439356984478936,0.8204446453984325
5.472727272727273,0.7916372022635241
5.5060975609756095,0.7151484777797178
5.539467849223947,0.6014210602853549
5.572838137472284,0.46678276434918975
5.606208425720621,0.3316731503380202
5.639578713968958,0.21806905258961998
5.672949002217295,0.1452192945805908
5.706319290465632,0.12333659709355566
5.7396895787139695,0.14660854890648012
5.773059866962306,0.18884750536809625
5.806430155210643,0.20576789091652106
5.83980044345898,0.14611470782452746
5.873170731707317,-0.03013713690603752
5.906541019955654,-0.33276386250731094
5.939911308203992,-0.7300387394481306
5.9732815964523285,-1.1520480879371084
6.006651884700665,-1.509559527608262
6.040022172949002,-1.722104121518961
6.073392461197339,-1.7440122710635644
6.106762749445676,-1.577578878520283
6.140133037694014,-1.2683397578933355
6.173503325942351,-0.8855067405330788
6.2068736141906875,-0.49664581713640404
6.240243902439024,-0.1469254244731878
6.273614190687361,0.15007046680842792
6.306984478935698,0.408378465401625
6.340354767184036,0.6556968212208287
6.373725055432373,0.9152809836530224
6.40709534368071,1.190247245742921
6.4404656319290465,1.4560207391910178
6.473835920177383,1.6643943747356373
6.507206208425721,1.758865330133237
6.540576496674058,1.6962738823119015
6.573946784922395,1.4661711395206327
6.607317073170732,1.0990783220665583
6.640687361419069,0.6589342503678282
6.674057649667406,0.222160083186281
6.707427937915743,-0.14765742563724357
6.74079822616408,-0.4182085129989359
6.774168514412417,-0.5923504511438275
6.807538802660754,-0.6972640386561773
6.840909090909091,-0.7658527509915459
6.874279379157428,-0.8202556966423071
6.9076496674057655,-0.864805933464486
6.941019955654102,-0.8898440043569871
6.974390243902439,-0.8821456841735866
7.007760532150776,-0.8352270037416191
7.041130820399113,-0.7541206935904274
7.07450110864745,-0.652998937811069
7.107871396895788,-0.5480044406880377
7.1412416851441245,-0.449926994932784
7.174611973392461,-0.3610072183236845
7.207982261640798,-0.2774627517658308
7.241352549889135,-0.19572855283067153
7.274722838137472,-0.11788962731232275
7.30809312638581,-0.05198499081654866
7.341463414634147,-0.005964158504908541
7.3748337028824835,0.021552193858636878
7.40820399113082,0.04760494543092315
7.441574279379157,0.1028084078418943
7.474944567627494,0.21955983411392932
7.508314855875832,0.41497769504188226
7.541685144124169,0.6769308444143441
7.575055432372506,0.9612058967513499
7.6084257206208425,1.2030996729481735
7.641796008869179,1.3397621365973111
7.675166297117517,1.3339635811040431
7.708536585365854,1.1885614774160582
7.741906873614191,0.9446887835395024
7.775277161862528,0.6639803871960139
7.808647450110865,0.4026378121431854
7.842017738359202,0.1892003016533197
7.875388026607539,0.016398307555371295
7.908758314855876,-0.14911244877031152
7.942128603104213,-0.34394873405471277
7.97549889135255,-0.583368890538937
8.008869179600888,-0.8470790076696298
8.042239467849225,-1.082850105075513
8.075609756097561,-1.2269247191680923
8.108980044345898,-1.2322998929270053
8.142350332594235,-1.0921476456867616
8.175720620842572,-0.8474246791213573
8.209090909090909,-0.5742546224844833
8.242461197339246,-0.3552381697972645
8.275831485587583,-0.2460228883225756
8.30920177383592,-0.2512499859217051
8.342572062084257,-0.32092524205077705
8.375942350332595,-0.37016048555703773
8.409312638580932,-0.31520638005127893
8.442682926829269,-0.1110612565210127
8.476053215077606,0.22564702990844077
8.509423503325943,0.619158126733548
8.54279379157428,0.9623118909564811
8.576164079822616,1.1581223358586663
8.609534368070953,1.1573394613294614
8.64290465631929,0.9757545057881872
8.676274944567627,0.6841882711853212
8.709645232815964,0.37660470104625066
8.743015521064303,0.13158425933271423
8.77638580931264,-0.015291078298185065
8.809756097560976,-0.07676964474498076
8.843126385809313,-0.09699214159137674
8.87649667405765,-0.12298005631757175
8.909866962305987,-0.179837282589577
8.943237250554324,-0.2614566260814303
8.97660753880266,-0.33933156616972
9.009977827050998,-0.3824655152853324
9.043348115299334,-0.3764299783399815
9.076718403547671,-0.331439222314789
9.110088691796008,-0.27613589615526035
9.143458980044347,-0.24149022119682995
9.176829268292684,-0.24385139186869226
9.21019955654102,-0.2759229047101345
9.243569844789358,-0.30997436100390446
9.276940133037694,-0.31139036550804605
9.310310421286031,-0.2556296014306171
9.343680709534368,-0.140122448176911
9.377050997782705,0.014671496738815102
9.410421286031042,0.17515731880994723
9.443791574279379,0.30983348356926443
9.477161862527716,0.40162465669448966
9.510532150776053,0.4511747730401861
9.543902439024391,0.4705918511143291
9.577272727272728,0.4729030125842864
9.610643015521065,0.4647119038587469
9.644013303769402,0.4467226051715511
9.677383592017739,0.4206939552746935
9.710753880266076,0.39616896055012596
9.744124168514412,0.3898291370218769
9.77749445676275,0.41536284335421303
9.810864745011086,0.46921149109949156
9.844235033259423,0.5222617496329472
9.87760532150776,0.5256638867963102
9.910975609756099,0.43090548871833206
9.944345898004435,0.2148532102264662
9.977716186252772,-0.10410008171332376
10.01108647450111,-0.46891832124868366
10.044456762749446,-0.8057287247818586
10.077827050997783,-1.053760689935173
10.11119733924612,-1.187994020780389
10.144567627494457,-1.223268404025704
10.177937915742794,-1.1989527456577318
10.21130820399113,-1.1536177659867601
10.244678492239467,-1.1037066677389582
10.278048780487804,-1.0368958803837816
10.311419068736143,-0.9221774790743077
10.34478935698448,-0.7298616441650861
10.378159645232817,-0.45039248349580335
10.411529933481154,-0.10278131011558322
10.44490022172949,0.27027292622275
10.478270509977827,0.6167814346582826
10.511640798226164,0.8919033417946757
10.545011086474501,1.0695665519499205
10.578381374722838,1.1460673663465695
10.611751662971175,1.136512780425319
10.645121951219512,1.0672846932866589
10.67849223946785,0.9677354587306518
10.711862527716187,0.863068324241251
10.745232815964524,0.769225859264138
10.778603104212861,0.6902821997534954
10.811973392461198,0.6189369208071787
10.845343680709535,0.5404126878024952
10.878713968957872,0.43897755597937266
10.912084257206208,0.3049294979294035
10.945454545454545,0.13921509888194122
10.978824833702882,-0.04634934387861351
11.012195121951219,-0.23322412005903703
11.045565410199556,-0.40244266937928425
11.078935698447895,-0.5398955135790204
11.112305986696231,-0.638361538234698
11.145676274944568,-0.696238098078472
11.179046563192905,-0.7149386022450297
11.212416851441242,-0.6974584954012951
11.245787139689579,-0.6493313625665914
11.279157427937916,-0.5809530091965363
11.312527716186253,-0.5085536008284512
11.34589800443459,-0.4512373682186006
11.379268292682926,-0.4237346534777189
11.412638580931263,-0.42770501276081163
11.4460088691796,-0.4465853095214401
11.479379157427939,-0.4483589295174343
11.512749445676276,-0.3969891387529696
11.546119733924613,-0.2683114951458904
11.57949002217295,-0.06279877337090815
11.612860310421286,0.19181331737649066
11.646230598669623,0.45025968905314234
11.67960088691796,0.6674287567021844
11.712971175166297,0.8149763977403238
11.746341463414634,0.8882793613482497
11.77971175166297,0.9006761763657433
11.813082039911308,0.8693942615818977
11.846452328159646,0.8023222645849045
11.879822616407983,0.6938507946145578
11.91319290465632,0.5320011115177065
11.946563192904657,0.31185776210691446
11.979933481152994,0.046468380674122366
12.01330376940133,-0.2318416921178496
12.046674057649668,-0.4807448857053949
12.080044345898004,-0.662494990299977
12.113414634146341,-0.7559567677734259
12.146784922394678,-0.7606043962734141
12.180155210643015,-0.6922607590004326
12.213525498891352,-0.5747320946453707
12.24689578713969,-0.4324005829311249
12.280266075388028,-0.2864349834954951
12.313636363636364,-0.1539409035377325
12.347006651884701,-0.04763870640635061
12.380376940133038,0.025569880570242058
12.413747228381375,0.06659673535039969
12.447117516629712,0.0845898901584067
12.480487804878049,0.09406551661168132
12.513858093126386,0.10922184596621644
12.547228381374723,0.1381977471639166
12.58059866962306,0.18054371335570862
12.613968957871396,0.2292784776393963
12.647339246119735,0.27586113378601523
12.680709534368072,0.31447171066735446
12.714079822616409,0.3426924631302987
12.747450110864746,0.35858961990443927
12.780820399113082,0.3571859020145565
12.81419068736142,0.3301123428606041
12.847560975609756,0.2700705889335436
12.880931263858093,0.17797359796433548
12.91430155210643,0.06787420637323834
12.947671840354767,-0.034830055075881654
12.981042128603104,-0.10276086903922833
13.014412416851442,-0.11948024169618504
13.04778270509978,-0.08902538132678327
13.081152993348116,-0.03622109011555616
13.114523281596453,0.003293113118164573
13.14789356984479,-0.0012983051730336582
13.181263858093127,-0.0624627429662571
13.214634146341464,-0.16943647818474333
13.2480044345898,-0.29369516168886756
13.281374722838137,-0.40110957748571247
13.314745011086474,-0.4643184459578735
13.348115299334811,-0.4699395649642009
13.381485587583148,-0.41902687982628894
13.414855875831487,-0.32297970716767804
13.448226164079824,-0.1986222226618257
13.48159645232816,-0.06492163132929918
13.514966740576497,0.05874240420056362
13.548337028824834,0.15451808975649692
13.581707317073171,0.20949914947472675
13.615077605321508,0.21977707950136915
13.648447893569845,0.19248679097641355
13.681818181818182,0.14348427770673125
13.715188470066519,0.09079324226411378
13.748558758314855,0.04697251081802087
13.781929046563192,0.014794205352833245
13.815299334811531,-0.011049906555665607
13.848669623059868,-0.03716166623848233
13.882039911308205,-0.06381746485552375
13.915410199556542,-0.08151483899873291
13.948780487804878,-0.07431934182415109
13.982150776053215,-0.02857793157037281
14.015521064301552,0.05774457838532798
14.048891352549889,0.17043271789395734
14.082261640798226,0.2819903812965944
14.115631929046563,0.36115110785444937
14.1490022172949,0.38459476328194914
14.182372505543238,0.34558916958189284
14.215742793791575,0.2559069223343764
14.249113082039912,0.1405546259711657
14.282483370288249,0.027983702654515597
14.315853658536586,-0.05986517662481599
14.349223946784923,-0.11370332631131223
14.38259423503326,-0.13730252328567435
14.415964523281596,-0.14291847251000037
14.449334811529933,-0.14448439424249965
14.48270509977827,-0.1518319097669133
14.516075388026607,-0.1681213098262527
14.549445676274944,-0.190692382141686
14.582815964523283,-0.213752851623605
14.61618625277162,-0.23064610434805766
14.649556541019956,-0.23423526145068857
14.682926829268293,-0.21575538630379545
14.71629711751663,-0.16420661516700671
14.749667405764967,-0.06873436882594851
14.783037694013304,0.07516194804851334
14.81640798226164,0.25772259442887596
14.849778270509978,0.4500012830172746
14.883148558758315,0.6067099533778526
14.916518847006651,0.6784911020107046
14.949889135254988,0.6301436273137899
14.983259423503327,0.45706154706399266
15.016629711751664,0.19154291991751704
15.05,-0.10541831605781708
15.083370288248338,-0.3645057771054396
15.116740576496674,-0.5322703565645281
15.150110864745011,-0.5887670655171069
15.183481152993348,-0.551302014576046
15.216851441241685,-0.46340595636581244
15.250221729490022,-0.3747083199422568
15.283592017738359,-0.3209059192818337
15.316962305986696,-0.3121152668714236
15.350332594235034,-0.3334246608462113
15.383702882483371,-0.3558382047018151
15.417073170731708,-0.35164834503017917
15.450443458980045,-0.3071564275142742
15.483813747228382,-0.22757578879156434
15.517184035476719,-0.13266925888769174
15.550554323725056,-0.04557052685606239
15.583924611973393,0.020018383615430492
15.61729490022173,0.068302223933657
15.650665188470066,0.12114806478084066
15.684035476718403,0.20830823448952657
15.71740576496674,0.3517143748137901
15.750776053215079,0.5507658232420554
15.784146341463416,0.7759177191378055
15.817516629711752,0.9747296430627184
15.85088691796009,1.0890873867213309
15.884257206208426,1.077052151878699
15.917627494456763,0.9302108425942737
15.9509977827051,0.6787915765069349
15.984368070953437,0.3817216654606895
16.017738359201775,0.10522901040562965
16.05110864745011,-0.1012769192546886
16.08447893569845,-0.22187399418684944
16.117849223946784,-0.2762965969021167
16.151219512195123,-0.3069566878907707
16.184589800443458,-0.3569215092641494
16.217960088691797,-0.44887890558485055
16.251330376940132,-0.5743998413868434
16.28470066518847,-0.697891059228215
16.31807095343681,-0.7729584622297235
16.351441241685144,-0.7636007544377869
16.384811529933483,-0.6609793095890074
16.418181818181818,-0.4888780880126308
16.451552106430157,-0.29598681414006867
16.48492239467849,-0.1384782435377031
16.51829268292683,-0.05985247784290014
16.551662971175165,-0.07556119349663433
16.585033259423504,-0.16768072580801752
16.61840354767184,-0.29105373418884134
16.651773835920178,-0.3883922558404817
16.685144124168513,-0.4090844295333324
16.71851441241685,-0.325537791773617
16.75188470066519,-0.14189767983895324
16.785254988913525,0.10748832498303502
16.818625277161864,0.36916730757878125
16.8519955654102,0.5874165139586199
16.885365853658538,0.7210884549587103
16.918736141906873,0.7548109077440571
16.95210643015521,0.701035366985703
16.985476718403547,0.5928690296926726
17.018847006651885,0.4709428743362271
17.05221729490022,0.36939768780824905
17.08558758314856,0.30581805850702315
17.118957871396898,0.27800941923353045
17.152328159645233,0.26789062126757324
17.18569844789357,0.25044343031615734
17.219068736141907,0.20423131871304565
17.252439024390245,0.1197383221602578
17.28580931263858,0.0027279933543476577
17.31917960088692,-0.1282460266795615
