Frequency (Hz),Amplitude
0.0,5.695034129448622
0.019823788546255508,5.692219861509211
0.039647577092511016,5.68377983536724
0.059471365638766524,5.6697223813154825
0.07929515418502203,5.650061374058617
0.09911894273127755,5.624816219047604
0.11894273127753305,5.5940118333669195
0.13876651982378857,5.5576786211940785
0.15859030837004406,5.515852443855205
0.17841409691629956,5.468574584507298
0.1982378854625551,5.415891707482258
0.2180616740088106,5.357855812333362
0.2378854625550661,5.294524182630532
0.25770925110132165,5.225959329555868
0.27753303964757714,5.1522289303564275
0.29735682819383263,5.0734057617164945
0.31718061674008813,4.989567628117276
0.3370044052863437,4.900797285257314
0.3568281938325991,4.807182358612165
0.37665198237885467,4.70881525721819
0.3964757709251102,4.605793082770703
0.41629955947136565,4.498217534132882
0.4361233480176212,4.386194807358687
0.4559471365638767,4.269835491339789
0.4757709251101322,4.149254459194612
0.49559471365638774,4.0245707555266215
0.5154185022026433,3.895907479689834
0.5352422907488987,3.7633916652127466
0.5550660792951543,3.6271541555489852
0.5748898678414097,3.487329476345122
0.5947136563876653,3.3440557044474253
0.6145374449339208,3.197474333911955
0.6343612334801763,3.0477301393466116
0.6541850220264318,2.894971037007767
0.6740088105726874,2.7393479442215485
0.6938325991189428,2.581014637931695
0.7136563876651982,2.4201276135567538
0.7334801762114539,2.256845945982229
0.7533039647577093,2.091331155636975
0.7731277533039648,1.9237470846488494
0.7929515418502204,1.7542597919658676
0.8127753303964759,1.5830374841279231
0.8325991189427313,1.4102505149903257
0.8524229074889869,1.2360715258044987
0.8722466960352424,1.0606758927128506
0.8920704845814978,0.8842429179375627
0.9118942731277534,0.7069590819672134
0.931718061674009,0.5290282323671259
0.9515418502202644,0.3507134522528355
0.9713656387665199,0.17263992828534694
0.9911894273127755,0.025680831811927738
1.0110132158590308,0.1889090426534899
1.0308370044052866,0.3670889172838993
1.0506607929515421,0.5454153064496517
1.0704845814977975,0.7233404000197752
1.090308370044053,0.9006107398458384
1.1101321585903086,1.077024829050672
1.1299559471365639,1.2523969594121473
1.1497797356828194,1.426548115396079
1.1696035242290752,1.599303020370237
1.1894273127753305,1.7704890469925636
1.209251101321586,1.9399358100667874
1.2290748898678416,2.107475044477526
1.248898678414097,2.2729406143100808
1.2687224669603525,2.436168586793495
1.288546255506608,2.5969973398962742
1.3083700440528636,2.755267687863126
1.3281938325991192,2.910823016281155
1.3480176211453747,3.0635094219248127
1.36784140969163,3.2131758545618028
1.3876651982378856,3.359674258968154
1.4074889867841411,3.502859716012641
1.4273127753303965,3.6425905820335522
1.4471365638766522,3.7787286259538626
1.4669603524229078,3.9111391637210797
1.4867841409691631,4.039691189749754
1.5066079295154187,4.16425750510534
1.5264317180616742,4.284714842210322
1.5462555066079295,4.400943985883318
1.5660792951541853,4.512829890543473
1.5859030837004409,4.620261793429296
1.6057268722466962,4.723133323693884
1.6255506607929517,4.821342607249095
1.6453744493392073,4.914792367240198
1.6651982378854626,5.003390020040485
1.6850220264317182,5.087047766661881
1.7048458149779737,5.165682679484705
1.7246696035242293,5.239216784215219
1.7444933920704848,5.3075771369858415
1.7643171806167404,5.370695896518351
1.7841409691629957,5.42851039127599
1.8039647577092512,5.480963181535904
1.8237885462555068,5.528002116318612
1.8436123348017623,5.569580385116811
1.863436123348018,5.605656564371019
1.8832599118942732,5.636194658645015
1.9030837004405288,5.66116413645949
1.9229074889867843,5.680539960747586
1.9427312775330399,5.694302613901521
1.9625550660792954,5.702438117384893
1.982378854625551,5.70493804589076
2.002202643171806,5.701799536030806
2.0220264317180616,5.693025289546736
2.041850220264317,5.678623571040143
2.061674008810573,5.658608200222749
2.0814977973568287,5.632998538694388
2.1013215859030843,5.601819471261403
2.1211453744493394,5.5651013818137995
2.140969162995595,5.522880123784766
2.1607929515418505,5.475196985221588
2.180616740088106,5.422098648502647
2.2004405286343616,5.36363714474029
2.220264317180617,5.299869802914904
2.2400881057268722,5.230859193791014
2.2599118942731278,5.156673068671331
2.2797356828193833,5.077384293050408
2.299559471365639,4.993070775234623
2.319383259911895,4.903815390001007
2.3392070484581504,4.809705897372554
2.3590308370044055,4.710834856593689
2.378854625550661,4.60729953539493
2.3986784140969166,4.499201814642078
2.418502202643172,4.386648088471439
2.4383259911894277,4.269749160019558
2.4581497797356833,4.148620132863259
2.4779735682819384,4.023380298294835
2.497797356828194,3.894153018566758
2.5176211453744495,3.761065606253162
2.537444933920705,3.6242491998907953
2.5572687224669606,3.4838386360825715
2.577092511013216,3.3399723182750956
2.5969162995594717,3.1927920824608482
2.6167400881057272,3.0424430601133667
2.6365638766519828,2.889073538749538
2.6563876651982383,2.732834820646368
2.676211453744494,2.573881080450685
2.6960352422907494,2.4123692227666425
2.715859030837005,2.248458741392497
2.73568281938326,2.0823115829069687
2.7555066079295156,1.9140920191851611
2.775330396475771,1.7439665370149822
2.7951541850220267,1.5721037602205932
2.8149779735682823,1.3986744352104479
2.834801762114538,1.2238515467104303
2.854625550660793,1.0478107212756609
2.874449339207049,0.8707313349899815
2.8942731277533045,0.6927996029074786
2.91409691629956,0.5142184910019125
2.9339207048458156,0.33525000288505147
2.953744493392071,0.1565492944398213
2.9735682819383262,0.03366651034746273
2.993392070484582,0.20587010783946783
3.0132158590308373,0.3848536330312445
3.033039647577093,0.5638489033996592
3.0528634361233484,0.7424094426159683
3.072687224669604,0.9202986876654793
3.092511013215859,1.0973198432967297
3.1123348017621146,1.2732887038922043
3.1321585903083706,1.4480266233842445
3.151982378854626,1.6213582106922184
3.1718061674008817,1.7931104888606293
3.1916299559471373,1.9631125974974746
3.2114537444933924,2.1311957243649156
3.231277533039648,2.29719314309857
3.2511013215859035,2.460940303532995
3.270925110132159,2.6222749493040842
3.2907488986784146,2.7810372498748643
3.31057268722467,2.937069940057124
3.3303964757709252,3.090218463089326
3.350220264317181,3.2403311149149006
3.3700440528634363,3.3872591881827065
3.389867841409692,3.530857114996344
3.4096916299559474,3.670982607740349
3.4295154185022034,3.8074967974962255
3.4493392070484585,3.9402643696787476
3.469162995594714,4.06915369659991
3.4889867841409696,4.194036966718909
3.508810572687225,4.314790310372644
3.5286343612334807,4.4312939218066445
3.5484581497797363,4.5434321773451645
3.5682819383259914,4.651093749553742
3.588105726872247,4.754171717259119
3.6079295154185025,4.852563671301025
3.627753303964758,4.946171815898235
3.6475770925110136,5.034903065519115
3.667400881057269,5.118669137152852
3.6872246696035247,5.197386637884338
3.7070484581497802,5.270977147680912
3.726872246696036,5.339367297305579
3.7466960352422913,5.402488841276048
3.7665198237885464,5.460278725795061
3.7863436123348024,5.51267915158251
3.8061674008810575,5.559637631545058
3.8259911894273135,5.601107043225006
3.8458149779735686,5.6370456759746
3.8656387665198246,5.667417272808175
3.8854625550660797,5.692191066889226
3.905286343612335,5.711341812615466
3.925110132158591,5.72484981126997
3.9449339207048464,5.732700931212045
3.964757709251102,5.734886622586971
3.9845814977973575,5.731403926539188
4.004405286343612,5.722255478918825
4.024229074889869,5.707449508477263
4.044052863436123,5.686999829552578
4.06387665198238,5.660925829251285
4.083700440528634,5.629252449138457
4.103524229074891,5.592010161453491
4.123348017621146,5.549234939874367
4.143171806167401,5.500968224858782
4.162995594713657,5.4472568835957444
4.182819383259912,5.38815316460692
4.2026431718061685,5.323714647042083
4.222466960352423,5.254004184718663
4.242290748898679,5.179089844960683
4.262114537444934,5.099044842297563
4.28193832599119,5.013947467088973
4.301762114537445,4.923881009146764
4.321585903083701,4.828933676431093
4.3414096916299565,4.729198508902597
4.361233480176212,4.624773287618503
4.381057268722468,4.515760439166142
4.400881057268723,4.402266935533178
4.420704845814979,4.284404189520366
4.440528634361234,4.162287945809122
4.46035242290749,4.036038167804252
4.4801762114537445,3.9057789203803797
4.500000000000001,3.7716382486713074
4.5198237885462555,3.633748053054201
4.539647577092512,3.4922439604970075
4.559471365638767,3.3472651924597625
4.579295154185023,3.198954429570852
4.599118942731278,3.047457673344457
4.618942731277533,2.8929241052706405
4.63876651982379,2.7355059437123943
4.658590308370044,2.5753582992055053
4.678414096916301,2.4126390290226385
4.6982378854625555,2.247508592314296
4.718061674008811,2.0801299079315605
4.737885462555067,1.9106682184897983
4.757709251101322,1.7392909670217878
4.777533039647578,1.5661676982199908
4.797356828193833,1.3914700084616867
4.817180616740089,1.215371597213787
4.837004405286344,1.0380485451184374
4.856828193832599,0.8596801539325841
4.876651982378855,0.6804513942775213
4.896475770925111,0.5005610259938995
4.9162995594713665,0.3202577987875213
4.936123348017622,0.14015808893653492
4.955947136563877,0.0464888446712613
4.975770925110133,0.22409733656712466
4.995594713656388,0.4045545749683415
5.015418502202644,0.5848778619886077
5.035242290748899,0.7647237773795614
5.055066079295155,0.9438754536261127
5.07488986784141,1.1221417437694325
5.094713656387666,1.2993400983261973
5.114537444933921,1.4752920402408969
5.134361233480177,1.6498216912354244
5.154185022026432,1.8227552622189587
5.174008810572688,1.993920906290581
5.193832599118943,2.1631487259775124
5.213656387665199,2.3302708521821964
5.2334801762114544,2.4951215585958644
5.25330396475771,2.657537394281692
5.2731277533039655,2.8173573255748092
5.292951541850221,2.9744228824828047
5.312775330396477,3.1285783068157103
5.332599118942731,3.2796707003638543
5.352422907488988,3.4275501720482757
5.372246696035242,3.5720699833187433
5.392070484581499,3.7130866912844427
5.4118942731277535,3.850460289192034
5.43171806167401,3.984054343948813
5.451541850220265,4.113736130443113
5.47136563876652,4.239376762451383
5.491189427312777,4.360851319947222
5.511013215859031,4.478038972646968
5.530837004405288,4.590823099640679
5.550660792951542,4.699091404968809
5.570484581497798,4.802736029014168
5.5903083700440535,4.901653655586852
5.610132158590309,4.995745614586805
5.6299559471365646,5.084917980135104
5.64977973568282,5.169081664071032
5.669603524229076,5.248152504717837
5.689427312775331,5.322051350825363
5.709251101321586,5.390704140603588
5.729074889867842,5.454041975765821
5.748898678414098,5.51200119050624
5.768722466960353,5.564523415341285
5.788546255506609,5.611555635750075
5.808370044052864,5.653050245553916
5.82819383259912,5.688965094980727
5.848017621145375,5.719263533365244
5.867841409691631,5.743914446441442
5.887665198237886,5.7628922881887785
5.907488986784142,5.776177107199591
5.927312775330397,5.783754567540208
5.9471365638766525,5.785615964083842
5.966960352422908,5.781758232298812
5.986784140969164,5.772183952481278
6.00660792951542,5.756901348426889
6.026431718061675,5.735924280541553
6.04625550660793,5.709272233396825
6.066079295154186,5.6769702977410255
6.085903083700441,5.639049146982657
6.105726872246697,5.595545008168203
6.125550660792952,5.546499627481819
6.145374449339208,5.4919602302998225
6.1651982378854635,5.431979475838548
6.185022026431718,5.366615406439194
6.204845814977975,5.295931391538893
6.224669603524229,5.219996066382616
6.244493392070486,5.138883265535567
6.264317180616741,5.052671951261328
6.284140969162996,4.961446136836169
6.303964757709252,4.86529480487506
6.323788546255507,4.764311820750483
6.3436123348017635,4.6585958411901025
6.363436123348018,4.54825021814504
6.3832599118942746,4.433382898025611
6.403083700440529,4.314106316407183
6.422907488986785,4.190537288314739
6.44273127753304,4.0627968942006785
6.462555066079296,3.9310103617376724
6.482378854625551,3.795306943555758
6.502202643171807,3.6558197910623824
6.5220264317180625,3.512685824494903
6.541850220264318,3.366045599369957
6.561674008810574,3.21604316951327
6.581497797356829,3.0628259468806753
6.601321585903085,2.9065445584216456
6.62114537444934,2.7473527002966818
6.640969162995596,2.585406989856661
6.6607929515418505,2.4208668159487496
6.680616740088107,2.2538941883799084
6.700440528634362,2.084653587838034
6.720264317180618,1.9133118184332212
6.740088105726873,1.7400378666844707
6.759911894273129,1.5650027741628925
6.779735682819384,1.3883795383599087
6.799559471365639,1.2103430736311522
6.819383259911895,1.0310703087823831
6.83920704845815,0.850740628759254
6.859030837004407,0.6695373198098186
6.8788546255506615,0.487652652509076
6.898678414096917,0.30531184887149165
6.918502202643173,0.12301236758450272
6.938325991189428,0.06256178963983108
6.958149779735684,0.24424544740774037
6.977973568281939,0.42683465229134815
6.997797356828195,0.6091601928859903
7.01762114537445,0.7909643604220299
7.037444933920705,0.9720479908734556
7.0572687224669615,1.152224836829646
7.077092511013216,1.331313402823969
7.096916299559473,1.50913478460722
7.116740088105728,1.685512009482327
7.136563876651983,1.86026986014205
7.156387665198239,2.0332348825200115
7.176211453744494,2.204235472303037
7.19603524229075,2.3731019978593677
7.215859030837005,2.539666940822523
7.235682819383261,2.703765045272927
7.255506607929516,2.8652334708161797
7.275330396475772,3.023911946953827
7.295154185022027,3.1796429272097124
7.314977973568283,3.3322717420482064
7.334801762114538,3.4816467499399737
7.354625550660794,3.627619486117704
7.374449339207049,3.7700448086765217
7.394273127753305,3.908781041744155
7.4140969162995605,4.043690115491442
7.433920704845816,4.174637702784584
7.453744493392072,4.301493352301735
7.473568281938327,4.424130617952466
7.493392070484583,4.542427184450044
7.513215859030838,4.656264988896745
7.533039647577093,4.765530338249584
7.552863436123348,4.8701140225413875
7.572687224669605,4.9699114237380275
7.59251101321586,5.064822620118548
7.612334801762115,5.154752486070263
7.6321585903083715,5.239610787196803
7.651982378854627,5.319312270641199
7.671806167400882,5.39377675053265
7.691629955947137,5.462929188469447
7.711453744493394,5.526699768956765
7.731277533039649,5.585023969722316
7.751101321585904,5.637842626838687
7.7709251101321595,5.685101994586052
7.790748898678416,5.726753799994461
7.81057268722467,5.762755292009887
7.830396475770926,5.793069285233961
7.850220264317182,5.817664198192365
7.870044052863436,5.836514086092458
7.889867841409693,5.849598668036172
7.909691629955948,5.856903348659458
7.929515418502204,5.858419234175492
7.9493392070484585,5.854143142803924
7.969162995594715,5.8440776095741915
7.9889867841409705,5.828230885496683
8.008810572687224,5.806616931100612
8.02863436123348,5.779255404343453
8.048458149779737,5.746171642902135
8.068281938325994,5.707396640861805
8.088105726872246,5.662967019823406
8.107929515418503,5.612924994457003
8.12775330396476,5.557318332533126
8.147577092511014,5.496200309469941
8.167400881057269,5.429629657439403
8.187224669603525,5.357670509081158
8.207048458149782,5.280392335878002
8.226872246696036,5.197869881252247
8.246696035242293,5.110183088447628
8.266519823788547,5.017417023266346
8.286343612334802,4.919661791736271
8.306167400881058,4.817012452788465
8.325991189427315,4.70956892602991
8.345814977973568,4.597435894701885
8.365638766519824,4.480722703918951
8.38546255506608,4.359543254288874
8.405286343612337,4.234015891018645
8.42511013215859,4.104263288616831
8.444933920704846,3.9704123313078457
8.464757709251103,3.832593989279009
8.484581497797357,3.6909431908870567
8.504405286343614,3.545598690957324
8.524229074889869,3.396702935316016
8.544052863436125,3.2444019217048155
8.56387665198238,3.0888450572388733
8.583700440528636,2.9301850125841327
8.60352422907489,2.7685775730526307
8.623348017621145,2.604181486847846
8.643171806167402,2.437158310746185
8.662995594713658,2.2676722535906055
8.682819383259913,2.0958900181298534
8.702643171806168,1.9219806420263024
8.722466960352424,1.7461153394141709
8.74229074889868,1.5684673455335603
8.762114537444935,1.3892117694673758
8.78193832599119,1.2085254659376958
8.801762114537446,1.02658695263724
8.821585903083701,0.843576445699555
8.841409691629957,0.6596762485590174
8.861233480176212,0.4750724632512511
8.881057268722468,0.2899639518155804
8.900881057268723,0.10466855946280225
8.92070484581498,0.08173040009434543
8.940528634361234,0.26709004081261856
8.960352422907489,0.4524818261930601
8.980176211453745,0.63751769825422
9.000000000000002,0.8219944014125681
9.019823788546258,1.0057240996176722
9.039647577092511,1.1885229713336023
9.059471365638768,1.370209148100322
9.079295154185024,1.550602245673891
9.099118942731279,1.729523305888568
9.118942731277533,1.9067948729934265
9.13876651982379,2.082241121297808
9.158590308370046,2.255688004338179
9.1784140969163,2.426963413409849
9.198237885462555,2.5958973399493708
9.218061674008812,2.762322039024137
9.237885462555067,2.926072192441022
9.257709251101323,3.086985070594202
9.27753303964758,3.2449006924849724
9.297356828193834,3.399661983515468
9.317180616740089,3.551114930753993
9.337004405286345,3.699108735426576
9.356828193832602,3.8434959624244946
9.376651982378855,3.9841326866406375
9.396475770925111,4.120878635963287
9.416299559471367,4.253597330767367
9.436123348017622,4.382156219751905
9.455947136563877,4.506426811979957
9.475770925110133,4.626284804982982
9.49559471365639,4.74161020879769
9.515418502202644,4.852287465808159
9.5352422907489,4.9582055662712206
9.555066079295155,5.059258159407907
9.57488986784141,5.155343659948417
9.594713656387666,5.246365350023038
9.614537444933923,5.332231476295997
9.634361233480178,5.412855342244361
9.654185022026432,5.488155395488725
9.674008810572689,5.558055310087442
9.693832599118945,5.622484063711343
9.713656387665198,5.681376009620693
9.733480176211454,5.734670943371418
9.75330396475771,5.782314164182911
9.773127753303967,5.824256530904736
9.792951541850222,5.860454512525199
9.812775330396477,5.890870233169822
9.832599118942733,5.915471511543357
9.852422907488988,5.934231894774386
9.872246696035244,5.947130686627073
9.892070484581499,5.95415297005013
9.911894273127754,5.955289624038659
9.93171806167401,5.950537334790178
9.951541850220266,5.939898601141617
9.971365638766521,5.9233817342798
9.991189427312776,5.901000851723623
10.011013215859032,5.872775865581512
10.030837004405289,5.838732465093773
10.050660792951543,5.798902093474678
10.070484581497798,5.753321919075105
10.090308370044054,5.702034800891761
10.11013215859031,5.645089248455091
10.129955947136565,5.582539376132902
10.14977973568282,5.5144448518928675
10.169603524229077,5.440870840572045
10.189427312775331,5.361887941707297
10.209251101321588,5.277572121985677
10.229074889867842,5.188004642379227
10.248898678414099,5.093271980033988
10.268722466960353,4.993465744987964
10.28854625550661,4.888682591798201
10.308370044052865,4.77902412616196
10.32819383259912,4.66459680662192
10.348017621145376,4.545511841450503
10.367841409691632,4.421885080812751
10.387665198237887,4.293836904312266
10.407488986784141,4.16149210402904
10.427312775330398,4.024979763162708
10.447136563876654,3.884433130398872
10.466960352422909,3.7399894901206614
10.486784140969164,3.5917900285916047
10.50660792951542,3.439979696240186
10.526431718061675,3.2847070661800055
10.546255506607931,3.1261241891036233
10.566079295154186,2.964386444691508
10.585903083700442,2.7996523896812886
10.605726872246697,2.6320836027458436
10.625550660792953,2.4618445263320976
10.645374449339208,2.2891023056158484
10.665198237885463,2.1140266247312627
10.685022026431719,1.9367895404374735
10.704845814977975,1.757565313389084
10.724669603524232,1.5765302371837662
10.744493392070485,1.3938624653710452
10.764317180616741,1.2097418366287842
