Frequency (Hz),Amplitude
0.0,0.3955660149093422
0.019867549668874173,0.39797735556902375
0.039735099337748346,0.40511592298121024
0.059602649006622516,0.4167116324468559
0.07947019867549669,0.4323624319920922
0.09933774834437085,0.4515887189089789
0.11920529801324503,0.47388458916040344
0.13907284768211922,0.49875674323057123
0.15894039735099338,0.5257486675665466
0.17880794701986755,0.5544522096661607
0.1986754966887417,0.584510328146837
0.2185430463576159,0.6156146115292163
0.23841059602649006,0.6475002382444172
0.2582781456953642,0.679940080175949
0.27814569536423844,0.7127389019301608
0.2980132450331126,0.7457281134794738
0.31788079470198677,0.7787612420277036
0.33774834437086093,0.8117101332668147
0.3576158940397351,0.8444618189487553
0.3774834437086093,0.8769159605247171
0.3973509933774834,0.9089827751907745
0.4172185430463576,0.9405813582419241
0.4370860927152318,0.9716383272887726
0.45695364238410596,1.0020867261640485
0.4768211920529801,1.0318651376607653
0.49668874172185434,1.0609169640152962
0.5165562913907285,1.0891898421820756
0.5364238410596026,1.1166351675715382
0.5562913907284769,1.1432077052462746
0.5761589403973509,1.1688652718156005
0.5960264900662252,1.1935684746386972
0.6158940397350993,1.21728049761643
0.6357615894039735,1.239966924967388
0.6556291390728477,1.2615955960609015
0.6754966887417219,1.2821364857118067
0.695364238410596,1.3015616054033503
0.7152317880794702,1.3198449217516695
0.7350993377483444,1.3369622892050426
0.7549668874172186,1.3528913945174696
0.7748344370860927,1.367611710977643
0.7947019867549668,1.3811044607325589
0.8145695364238411,1.3933525838372025
0.8344370860927152,1.4043407129006609
0.8543046357615894,1.414055152396455
0.8741721854304636,1.422483861868507
0.8940397350993378,1.4296164424005724
0.9139072847682119,1.4354441258325796
0.9337748344370861,1.4399597663054895
0.9536423841059603,1.4431578338008952
0.9735099337748344,1.445034409416222
0.9933774834437087,1.4455871821822774
1.0132450331125828,1.4448154472910237
1.033112582781457,1.4427201056570926
1.0529801324503312,1.4393036647916027
1.0728476821192052,1.4345702410199177
1.0927152317880795,1.4285255631298301
1.1125827814569538,1.421176977593588
1.1324503311258278,1.412533455568769
1.1523178807947019,1.4026056019506827
1.1721854304635762,1.3914056668250467
1.1920529801324504,1.3789475597569476
1.2119205298013245,1.3652468674532223
1.2317880794701985,1.3503208754548128
1.2516556291390728,1.3341885946565253
1.271523178807947,1.3168707936220065
1.2913907284768211,1.2983900378655924
1.3112582781456954,1.2787707375221413
1.3311258278145695,1.25803920512897
1.3509933774834437,1.2362237256178348
1.370860927152318,1.2133546410746112
1.390728476821192,1.1894644533949164
1.410596026490066,1.1645879486732655
1.4304635761589404,1.1387623480494176
1.4503311258278146,1.1120274908452084
1.4701986754966887,1.084426057219877
1.4900662251655628,1.0560038393285427
1.5099337748344372,1.0268100721846427
1.5298013245033113,0.9968978382257846
1.5496688741721854,0.9663245631150966
1.5695364238410596,0.935152624757996
1.5894039735099337,0.9034501030886024
1.609271523178808,0.8712917051054554
1.6291390728476822,0.8387599081154435
1.6490066225165563,0.805946374283456
1.6688741721854303,0.7729537012264204
1.6887417218543048,0.7398975858156877
1.7086092715231789,0.7069094897144622
1.728476821192053,0.6741399015046675
1.7483443708609272,0.6417622837616064
1.7682119205298013,0.6099777598047187
1.7880794701986755,0.5790205093672516
1.8079470198675496,0.5491636653763611
1.8278145695364238,0.5207251781204558
1.847682119205298,0.49407257050190895
1.8675496688741722,0.4696247041996878
1.8874172185430464,0.44784767717751556
1.9072847682119205,0.4292411138363799
1.9271523178807946,0.41431117173610166
1.9470198675496688,0.40352874479009015
1.9668874172185429,0.39727642625902504
1.9867549668874174,0.39579479092747705
2.0066225165562916,0.3991435692456282
2.0264900662251657,0.4071914204031398
2.0463576158940397,0.4196382155599221
2.066225165562914,0.43606145644011135
2.086092715231788,0.45597138859062586
2.1059602649006623,0.47886058355476974
2.1258278145695364,0.5042401466914695
2.1456953642384105,0.5316612730914594
2.165562913907285,0.56072481735389
2.185430463576159,0.5910827542614645
2.205298013245033,0.6224349938778676
2.2251655629139075,0.6545240373462506
2.2450331125827816,0.6871290149408612
2.2649006622516556,0.7200599453536755
2.2847682119205297,0.7531526034499348
2.3046357615894038,0.786264122636498
2.324503311258278,0.819269321794404
2.3443708609271523,0.8520576848433948
2.364238410596027,0.8845308999862673
2.384105960264901,0.9166008653270691
2.403973509933775,0.9481880764523747
2.423841059602649,0.9792203236391348
2.443708609271523,1.0096316386030901
2.463576158940397,1.0393614418006139
2.4834437086092715,1.0683538507912667
2.5033112582781456,1.0965571180258717
2.52317880794702,1.123923172801701
2.543046357615894,1.1504072472396492
2.562913907284768,1.1759675702095105
2.5827814569536423,1.2005651163592697
2.6026490066225163,1.2241633999619528
2.622516556291391,1.2467283053199805
2.642384105960265,1.268227947073619
2.662251655629139,1.288632555036737
2.6821192052980134,1.3079143792006094
2.7019867549668874,1.3260476113591046
2.7218543046357615,1.3430083204609196
2.741721854304636,1.3587743993190884
2.76158940397351,1.3733255207325346
2.781456953642384,1.38664310141877
2.801324503311258,1.3987102724380498
2.821192052980132,1.4095118550197407
2.8410596026490067,1.4190343408920676
2.8609271523178808,1.4272658763741053
2.8807947019867552,1.4341962496215497
2.9006622516556293,1.439816880529177
2.9205298013245033,1.444120812888627
2.9403973509933774,1.4471027084825907
2.9602649006622515,1.4487588428690785
2.9801324503311255,1.4490871026747836
3.0,1.4480869842757644
3.0198675496688745,1.4457595937999084
3.0397350993377485,1.4421076484396336
3.0596026490066226,1.4371354791169886
3.0794701986754967,1.4308490345982088
3.0993377483443707,1.423255887212827
3.119205298013245,1.4143652403950029
3.1390728476821192,1.4041879383338336
3.1589403973509933,1.392736478097951
3.1788079470198674,1.3800250246891754
3.198675496688742,1.366069429584938
3.218543046357616,1.3508872534522425
3.23841059602649,1.334497793863175
3.2582781456953644,1.3169221190179488
3.2781456953642385,1.2981831086945974
3.2980132450331126,1.278305503904095
3.3178807947019866,1.2573159670463876
3.3377483443708607,1.2352431547533596
3.3576158940397347,1.2121178060859954
3.3774834437086096,1.1879728493510404
3.3973509933774837,1.1628435315465375
3.4172185430463577,1.1367675753761008
3.437086092715232,1.1097853699385396
3.456953642384106,1.081940202667231
3.47682119205298,1.0532785419442183
3.4966887417218544,1.0238503821506106
3.5165562913907285,0.9937096658684549
3.5364238410596025,0.9629148016783308
3.556291390728477,0.9315293006952539
3.576158940397351,0.899622560871374
3.596026490066225,0.8672708354013934
3.615894039735099,0.8345584304966581
3.6357615894039736,0.8015791884319485
3.6556291390728477,0.7684383238951231
3.6754966887417218,0.735254694423121
3.695364238410596,0.7021635969404144
3.7152317880794703,0.6693201875764785
3.7350993377483444,0.6369036121800712
3.754966887417219,0.6051218941311086
3.774834437086093,0.5742175265383874
3.794701986754967,0.5444735138580103
3.814569536423841,0.5162192415251776
3.834437086092715,0.48983495189284365
3.854304635761589,0.4657527356736982
3.8741721854304636,0.444450912643061
3.8940397350993377,0.42643788989957715
3.9139072847682117,0.41222194629868814
3.9337748344370858,0.402266124919114
3.9536423841059607,0.39693315877978874
3.9735099337748347,0.39643252749836194
3.993377483443709,0.40078585955480694
4.013245033112583,0.4098232607280958
4.033112582781457,0.42321198019187667
4.052980132450331,0.44050675080498486
4.072847682119205,0.46120562163026285
4.0927152317880795,0.4847978546680889
4.112582781456953,0.5107974245622227
4.132450331125828,0.5387619461563786
4.152317880794702,0.5683002296895734
4.172185430463576,0.599072430496166
4.19205298013245,0.6307861293676758
4.211920529801325,0.6631906496022025
4.231788079470199,0.6960709965927323
4.251655629139073,0.7292421485929192
4.271523178807947,0.7625440164596987
4.291390728476821,0.7958371586194616
4.311258278145695,0.8289992202552517
4.33112582781457,0.8619220150412522
4.3509933774834435,0.8945091529344704
4.370860927152318,0.9266741203713664
4.390728476821192,0.9583387295921089
4.410596026490066,0.9894318664444512
4.43046357615894,1.0198884783557323
4.450331125827815,1.0496487551303766
4.470198675496689,1.0786574645098908
4.490066225165563,1.1068634120614758
4.509933774834438,1.1342190011237883
4.529801324503311,1.160679873465508
4.549668874172186,1.1862046152274586
4.569536423841059,1.2107545158204542
4.589403973509934,1.2342933699056555
4.6092715231788075,1.2567873145273871
4.629139072847682,1.278204695008799
4.649006622516556,1.2985159544454492
4.66887417218543,1.3176935426070522
4.688741721854305,1.3357118408375843
4.708609271523179,1.3525471001697484
4.728476821192054,1.3681773903735892
4.748344370860927,1.3825825580667366
4.768211920529802,1.3957441923449219
4.788079470198675,1.4076455966619073
4.80794701986755,1.4182717659098576
4.827814569536423,1.4276093678347532
4.847682119205298,1.4356467280738243
4.867549668874172,1.442373818229834
4.887417218543046,1.4477822465055548
4.9072847682119205,1.4518652505140373
4.927152317880794,1.454617691961225
4.947019867549669,1.456036052967824
4.966887417218543,1.4561184338618225
4.986754966887418,1.454864552331396
5.006622516556291,1.4522757438835738
5.026490066225166,1.4483549636081055
5.04635761589404,1.4431067892996858
5.066225165562914,1.4365374260471864
5.086092715231788,1.4286547124579445
5.105960264900662,1.4194681287481037
5.125827814569536,1.4089888070022663
5.14569536423841,1.3972295439852938
5.1655629139072845,1.3842048169828274
5.185430463576159,1.3699308032549662
5.205298013245033,1.3544254038165648
5.225165562913908,1.3377082724100051
5.245033112582782,1.3198008507210377
5.264900662251656,1.3007264111109793
5.28476821192053,1.2805101084104906
5.304635761589404,1.259179042653276
5.324503311258278,1.2367623350380574
5.344370860927152,1.2132912199146473
5.364238410596027,1.188799156220393
5.3841059602649,1.1633219625791051
5.403973509933775,1.1368979812597644
5.4238410596026485,1.1095682774275466
5.443708609271523,1.0813768816784661
5.463576158940397,1.0523710858146569
5.483443708609272,1.0226018043052658
5.503311258278146,0.9921240170253004
5.52317880794702,0.9609973128452175
5.543046357615895,0.9292865586627979
5.562913907284768,0.8970627247627592
5.582781456953643,0.8644039052027441
5.602649006622516,0.8313965814676203
5.622516556291391,0.7981371889728797
5.642384105960264,0.7647340588533007
5.662251655629139,0.7313098208163749
5.682119205298013,0.6980043641737991
5.701986754966887,0.6649784582256438
5.7218543046357615,0.6324181197915613
5.741721854304636,0.6005397663892988
5.7615894039735105,0.5695960769237466
5.781456953642384,0.5398822484623658
5.801324503311259,0.5117419197355509
5.821192052980132,0.4855713574359206
5.841059602649007,0.46181954765455907
5.860927152317881,0.4409807523393729
5.880794701986755,0.42357540091682744
5.900662251655629,0.4101159311565933
5.920529801324503,0.4010576556979374
5.940397350993377,0.3967412694432861
5.960264900662251,0.3973409202233452
5.980132450331126,0.4028346881751841
6.0,0.4130085538536743
6.0198675496688745,0.4274922941617895
6.039735099337749,0.44581412063218084
6.059602649006623,0.467457212896963
6.079470198675497,0.4919057229973264
6.099337748344371,0.5186753317493127
6.119205298013245,0.5473293535504823
6.139072847682119,0.5774841341283963
6.158940397350993,0.6088077882132512
6.178807947019867,0.6410154743561381
6.198675496688741,0.6738633239696219
6.218543046357616,0.7071422486981891
6.23841059602649,0.7406722400956965
6.258278145695365,0.774297406772727
6.2781456953642385,0.807881792966548
6.298013245033113,0.841305924805436
6.317880794701987,0.8744639915711759
6.337748344370861,0.9072615610298351
6.357615894039735,0.939613734212006
6.377483443708609,0.9714436570815752
6.397350993377484,1.0026813198604267
6.417218543046357,1.0332625872973025
6.437086092715232,1.0631284140730737
6.456953642384105,1.0922242086456562
6.47682119205298,1.120499316264698
6.496688741721854,1.1479065978541774
6.516556291390729,1.1744020862120206
6.5364238410596025,1.199944704742514
6.556291390728477,1.2244960369137952
6.5761589403973515,1.2480201369860466
6.596026490066225,1.2704833744173052
6.6158940397351,1.29185430582805
6.635761589403973,1.3121035695778587
6.655629139072848,1.3312037989403067
6.675496688741721,1.3491295506086582
6.695364238410596,1.3658572458638363
6.715231788079469,1.3813651222182892
6.735099337748344,1.3956331937400759
6.754966887417219,1.4086432185787585
6.774834437086093,1.4203786724739038
6.794701986754967,1.4308247272404366
6.814569536423841,1.439968233400878
6.8344370860927155,1.4477977062817708
6.854304635761589,1.4543033150142517
6.874172185430464,1.4594768739838957
6.894039735099337,1.4633118363642312
6.913907284768212,1.465803289446749
6.933774834437086,1.4669479515493755
6.95364238410596,1.4667441703477981
6.973509933774834,1.4651919225325334
6.993377483443709,1.4622928147488088
7.013245033112583,1.4580500858310195
7.033112582781457,1.4524686103972502
7.052980132450331,1.4455549039257567
7.072847682119205,1.4373171294951674
7.0927152317880795,1.4277651064360293
7.112582781456954,1.4169103212141885
7.132450331125828,1.4047659409501894
7.152317880794702,1.391346830075645
7.172185430463576,1.3766695707402659
7.19205298013245,1.360752487718089
7.211920529801324,1.3436156787215343
7.231788079470198,1.3252810512258433
7.251655629139073,1.3057723671415102
7.271523178807947,1.2851152969591562
7.291390728476822,1.2633374853440802
7.311258278145695,1.2404686305923662
7.33112582781457,1.2165405808997132
7.3509933774834435,1.1915874510652837
7.370860927152318,1.1656457640916937
7.390728476821192,1.1387546231949965
7.410596026490066,1.1109559210629765
7.430463576158941,1.0822945948733875
7.450331125827814,1.05281893770015
7.470198675496689,1.0225809796194771
7.490066225165562,0.9916369552316597
7.509933774834438,0.9600478786282148
7.52980132450331,0.9278802522861807
7.549668874172186,0.8952069432209155
7.569536423841059,0.8621082682472985
7.589403973509934,0.8286733406112391
7.6092715231788075,0.7950017426208538
7.629139072847682,0.761205602882209
7.649006622516557,0.7274121711108336
7.66887417218543,0.6937669953039994
7.6887417218543055,0.6604378091417531
7.708609271523178,0.6276192198904416
7.728476821192054,0.5955382271527123
7.748344370860927,0.5644604638134229
7.768211920529802,0.5346967753923448
7.788079470198675,0.5066092657984133
7.80794701986755,0.4806151603017479
7.827814569536423,0.4571857653108389
7.847682119205298,0.4368366584408089
7.8675496688741715,0.4201046921390429
7.887417218543046,0.4075086794021532
7.907284768211921,0.3994950894304308
7.927152317880795,0.39637763540247006
7.9470198675496695,0.39828696602243796
7.966887417218543,0.4051478488383489
7.986754966887418,0.41669271640879796
8.006622516556291,0.43250621318373667
8.026490066225167,0.452084662465394
8.046357615894038,0.47489311274596413
8.066225165562914,0.5004089342187454
8.086092715231787,0.5281488948867523
8.105960264900663,0.5576820199357545
8.125827814569536,0.588632543273487
8.14569536423841,0.6206770516988945
8.165562913907285,0.6535388465270319
8.185430463576159,0.6869814241431309
8.205298013245034,0.7208021196283085
8.225165562913906,0.7548264010946485
8.245033112582782,0.7889029799895244
8.264900662251655,0.8228997345751006
8.28476821192053,0.8567003674404425
8.304635761589404,0.8902016917342868
8.324503311258278,0.9233114398293423
8.344370860927151,0.9559464983274891
8.364238410596027,0.9880314873046178
8.3841059602649,1.0194976158673525
8.403973509933774,1.050281758883575
8.42384105960265,1.080325710633932
8.443708609271523,1.109575580094924
8.463576158940398,1.1379812998000964
8.483443708609272,1.165496225998675
8.503311258278146,1.1920768124059498
8.52317880794702,1.2176823434507282
8.543046357615895,1.2422747157736402
8.562913907284768,1.2658182589760707
8.582781456953642,1.2882795883937466
8.602649006622515,1.309627484073295
8.62251655629139,1.3298327912451042
8.642384105960264,1.3488683384733637
8.66225165562914,1.366708870374047
8.682119205298013,1.3833309923610873
8.701986754966887,1.3987131253394252
8.721854304635762,1.4128354686357205
8.741721854304636,1.4256799697590008
8.76158940397351,1.4372302998310675
8.781456953642383,1.4474718337292767
8.801324503311259,1.456391634152668
8.821192052980132,1.4639784389628026
8.841059602649008,1.470222651268545
8.86092715231788,1.4751163318244134
8.880794701986755,1.4786531933987548
8.90066225165563,1.4808285968432149
8.920529801324504,1.4816395486626464
8.940397350993377,1.4810846999452931
8.960264900662251,1.479164346570352
8.980132450331126,1.4758804306646842
9.0,1.4712365433336256
9.019867549668875,1.465237928746263
9.039735099337747,1.4578914897119604
9.059602649006623,1.4492057949465589
9.079470198675496,1.439191088294181
9.099337748344372,1.4278593002462943
9.119205298013245,1.4152240621868681
9.139072847682119,1.4013007238932904
9.158940397350994,1.3861063749418934
9.178807947019868,1.369659870808161
9.198675496688743,1.3519818646219308
9.218543046357615,1.3330948457430827
9.23841059602649,1.3130231865733042
9.258278145695364,1.2917931993259164
9.27814569536424,1.2694332048528243
9.298013245033111,1.2459736160938641
9.317880794701987,1.221447039294303
9.33774834437086,1.1958883968597083
9.357615894039736,1.1693350766253006
9.37748344370861,1.1418271134590519
9.397350993377483,1.1134074105599043
9.417218543046358,1.084122009639239
9.437086092715232,1.0540204214940299
9.456953642384107,1.0231560314308523
9.47682119205298,0.991586597757383
9.496688741721854,0.9593748663374438
9.516556291390728,0.9265893302695628
9.536423841059603,0.893305171395868
9.556291390728477,0.8596054298942486
9.57615894039735,0.8255824599128962
9.596026490066224,0.7913397431460676
9.6158940397351,0.7569941480110547
9.635761589403973,0.7226787382175981
9.655629139072847,0.6885462474910236
9.675496688741722,0.6547733395605082
9.695364238410596,0.6215657497580628
9.715231788079471,0.5891643303200047
9.735099337748345,0.5578518510106418
9.754966887417218,0.5279600709565491
9.774834437086092,0.49987600569581003
9.794701986754967,0.4740453833793994
9.814569536423841,0.45097003861404167
9.834437086092716,0.4311947601411557
9.854304635761588,0.41527879332356826
9.874172185430464,0.40374933119946826
9.894039735099337,0.3970402670461699
9.913907284768213,0.39542837967819794
9.933774834437086,0.3989861366857241
9.95364238410596,0.40756865507018203
9.973509933774835,0.4208400883182607
9.993377483443709,0.4383289042359456
10.013245033112582,0.45949264952633656
10.033112582781456,0.48377484344735455
10.052980132450331,0.5106450962896676
10.072847682119205,0.5396217256957067
10.09271523178808,0.5702806629009947
10.112582781456952,0.6022555145395676
10.132450331125828,0.6352328629440116
10.152317880794701,0.6689455869505827
10.172185430463577,0.7031658380061592
10.192052980132452,0.7376985033970321
10.211920529801324,0.77237549881727
10.2317880794702,0.8070509648650406
10.251655629139073,0.8415973120618454
10.271523178807948,0.8759020067706522
10.29139072847682,0.9098649785819133
10.311258278145695,0.9433965368737423
10.331125827814569,0.9764156987934912
10.350993377483444,1.008848847061456
10.370860927152318,1.0406286511239111
10.390728476821192,1.071693198280905
10.410596026490065,1.101985292286318
10.43046357615894,1.1314518857211675
10.450331125827816,1.160043619466119
10.470198675496688,1.1877144481563515
10.490066225165563,1.2144213348779227
10.509933774834437,1.240124001803579
10.529801324503312,1.264784726167707
10.549668874172186,1.2883681731053886
10.56953642384106,1.3108412585559306
10.589403973509933,1.3321730367547442
10.609271523178808,1.3523346078877152
10.629139072847682,1.3712990423171805
10.649006622516556,1.389041318456478
10.66887417218543,1.4055382719048874
