Time (s),Filtered Signal
0.0,0.00915234688099874
0.033370165745856356,0.11658782601790714
0.06674033149171271,0.19548810069293984
0.10011049723756907,0.22724506600792474
0.13348066298342542,0.20895875146584925
0.16685082872928178,0.15227013161944944
0.20022099447513814,0.07667162338993748
0.2335911602209945,0.001014897924802208
0.26696132596685085,-0.06272754338219476
0.30033149171270723,-0.11104776239156064
0.33370165745856356,-0.1460343454132709
0.3670718232044199,-0.1704649056023682
0.4004419889502763,-0.1840419295414571
0.43381215469613266,-0.18292071457779266
0.467182320441989,-0.1624581215825576
0.5005524861878453,-0.1210710034885512
0.5339226519337017,-0.06252152198459485
0.5672928176795581,0.0048580490030421305
0.6006629834254145,0.07144171799400452
0.6340331491712707,0.13005757716970662
0.6674033149171271,0.17815711409198529
0.7007734806629835,0.2175406242437287
0.7341436464088398,0.25214043899890876
0.7675138121546962,0.2850224212949447
0.8008839779005525,0.3156355839079482
0.8342541436464089,0.3380238757045583
0.8676243093922653,0.34072824279034386
0.9009944751381216,0.3092430949930085
0.934364640883978,0.23140560062158902
0.9677348066298344,0.10457769721489227
1.0011049723756906,-0.05845190352437794
1.0344751381215471,-0.22881271803309314
1.0678453038674034,-0.36870278144617114
1.1012154696132597,-0.4452179707249941
1.1345856353591162,-0.44545942978906367
1.1679558011049724,-0.38525078249002787
1.201325966850829,-0.3054936209028622
1.2346961325966852,-0.25571764801529356
1.2680662983425415,-0.27119276803811093
1.301436464088398,-0.35431301315951386
1.3348066298342542,-0.4700286808891495
1.3681767955801105,-0.5588216411321557
1.401546961325967,-0.5620496954173446
1.4349171270718233,-0.4479570102468792
1.4682872928176796,-0.22590433636426713
1.501657458563536,0.05790839652665643
1.5350276243093923,0.3406175605746637
1.5683977900552488,0.5681925555132383
1.601767955801105,0.7134984403722575
1.6351381215469614,0.7789986748892809
1.6685082872928179,0.7851174192597442
1.7018784530386741,0.7529800092009535
1.7352486187845306,0.692230190745418
1.768618784530387,0.6001401975111242
1.8019889502762432,0.47058082874508056
1.8353591160220997,0.30555700782574
1.868729281767956,0.12127488315327704
1.9020994475138122,-0.05509529553252949
1.9354696132596687,-0.1958086755233983
1.968839779005525,-0.28393150167049086
2.0022099447513813,-0.31956441303243244
2.0355801104972375,-0.3181123687282127
2.0689502762430942,-0.302155486965681
2.1023204419889505,-0.2913758093459908
2.135690607734807,-0.2952919419936893
2.169060773480663,-0.3115916617303635
2.2024309392265193,-0.32992641081556806
2.235801104972376,-0.33860529464407063
2.2691712707182323,-0.3307027552088241
2.3025414364640886,-0.30687684154348494
2.335911602209945,-0.27410208915067463
2.369281767955801,-0.24152965693899975
2.402651933701658,-0.2158457785268034
2.436022099447514,-0.19836813419242105
2.4693922651933704,-0.1849396864321975
2.5027624309392267,-0.16818450080784564
2.536132596685083,-0.14065822030999367
2.5695027624309392,-0.09725364346975274
2.602872928176796,-0.03580727738614914
2.636243093922652,0.04418210071973774
2.6696132596685085,0.1438299986880453
2.7029834254143648,0.26651720923915945
2.736353591160221,0.41711563415388114
2.7697237569060777,0.597707252309764
2.803093922651934,0.8004669158823694
2.8364640883977903,1.000678851291924
2.8698342541436466,1.1544629874597705
2.903204419889503,1.2052395685684851
2.936574585635359,1.0996379492013648
2.969944751381216,0.8085452703805317
3.003314917127072,0.3449139779717745
3.0366850828729284,-0.23047357954661027
3.0700552486187846,-0.8199007675347967
3.103425414364641,-1.313850394356574
3.1367955801104976,-1.6216283516403918
3.170165745856354,-1.6963312194690128
3.20353591160221,-1.5455188869136145
3.2369060773480665,-1.2248027568485718
3.2702762430939227,-0.8178920248218253
3.3036464088397794,-0.41093105893823095
3.3370165745856357,-0.06996844690926038
3.370386740331492,0.17177945728947325
3.4037569060773483,0.3144849222419204
3.4371270718232045,0.38236023437844896
3.4704972375690613,0.40983561433049165
3.5038674033149175,0.4290776959258228
3.537237569060774,0.4624337356577591
3.57060773480663,0.5201738054859367
3.6039779005524863,0.6016939500534773
3.6373480662983426,0.6980466028168743
3.6707182320441993,0.7946356778382914
3.7040883977900556,0.8738399821542626
3.737458563535912,0.9175204953658693
3.770828729281768,0.9091839572067809
3.8041988950276244,0.8357106640232358
3.837569060773481,0.6890840260887167
3.8709392265193374,0.4688001714596504
3.9043093922651937,0.18493688521346574
3.93767955801105,-0.13952967292270121
3.9710497237569062,-0.46949345581016305
4.0044198895027625,-0.7632221929876501
4.037790055248619,-0.9819372409026187
4.071160220994475,-1.1002102965960898
4.104530386740332,-1.1128210233866882
4.1379005524861885,-1.0350379414287736
4.171270718232044,-0.8963384653779946
4.204640883977901,-0.7305765580034312
4.238011049723757,-0.5668594167091467
4.271381215469614,-0.42438796697209064
4.30475138121547,-0.3120656126845252
4.338121546961326,-0.2312889382821133
4.371491712707183,-0.17925943478436515
4.404861878453039,-0.1507530081064116
4.438232044198895,-0.13793262638727358
4.471602209944752,-0.12936623180176415
4.504972375690608,-0.11001555218230456
4.538342541436465,-0.06340986546851954
4.5717127071823205,0.024001064665429565
4.605082872928177,0.157524578552895
4.638453038674034,0.32987042548495926
4.67182320441989,0.519775738088301
4.7051933701657465,0.6949932588920004
4.738563535911602,0.8197238033988317
4.771933701657459,0.8648596131434279
4.805303867403316,0.817894636211507
4.8386740331491715,0.6888357479888888
4.872044198895028,0.5094080471112142
4.905414364640884,0.3250900247569762
4.938784530386741,0.18216500106557598
4.972154696132597,0.11392065617806056
5.005524861878453,0.13057623719666234
5.03889502762431,0.21632462217150897
5.072265193370166,0.3345277999440185
5.105635359116023,0.43944150959221445
5.1390055248618784,0.49073898769464724
5.172375690607735,0.4661915264753382
5.205745856353592,0.36839761699194323
5.239116022099448,0.22327521524236058
5.272486187845304,0.07064127522458699
5.30585635359116,-0.050140668151115966
5.339226519337017,-0.11460113395094583
5.372596685082874,-0.1225020348498612
5.4059668508287295,-0.09834771357961479
5.439337016574586,-0.08229098389634457
5.472707182320442,-0.11415404910979449
5.506077348066299,-0.2161741248723332
5.5394475138121555,-0.38134078015943434
5.572817679558011,-0.5731495134810053
5.606187845303868,-0.7390744886854936
5.639558011049724,-0.8346212844648236
5.672928176795581,-0.8490753919521863
5.706298342541437,-0.8206193841214001
5.739668508287293,-0.8300110012156636
5.77303867403315,-0.9695676154883731
5.806408839779006,-1.2958569038872512
5.839779005524862,-1.7852734997183193
5.873149171270718,-2.3154641010194057
5.906519337016575,-2.688348454840492
5.939889502762432,-2.6933879450250893
5.9732596685082875,-2.189729465520478
6.006629834254144,-1.1730355005864632
6.04,0.20468856704122354
6.073370165745857,1.6751970203494528
6.1067403314917135,2.9399895966227416
6.140110497237569,3.7665667461087793
6.173480662983426,4.054850799979356
6.206850828729282,3.8488232500574266
6.240220994475139,3.294881278103882
6.273591160220995,2.5719541968567077
6.306961325966851,1.827404268102789
6.340331491712708,1.1443435583557084
6.373701657458564,0.5467146268368094
6.40707182320442,0.02940971714230784
6.440441988950277,-0.40883054277892256
6.473812154696133,-0.748821562748182
6.50718232044199,-0.9573921866910233
6.5405524861878455,-1.0096727389932973
6.573922651933702,-0.9116794105292624
6.607292817679559,-0.7086100551471569
6.640662983425415,-0.4730552225981864
6.674033149171271,-0.2786994816564275
6.707403314917127,-0.17288582739806121
6.740773480662984,-0.16175542516840596
6.774143646408841,-0.2147794213830526
6.8075138121546965,-0.2853470414816373
6.840883977900553,-0.33613751784526763
6.874254143646409,-0.3563261123978309
6.907624309392266,-0.3628105720152678
6.9409944751381225,-0.3865039637530711
6.974364640883978,-0.45238720365110063
7.007734806629835,-0.564428716187815
7.041104972375691,-0.7027440664726098
7.074475138121548,-0.8330542666784522
7.107845303867403,-0.9220157124263102
7.14121546961326,-0.9498992952807525
7.174585635359117,-0.9150249739737827
7.207955801104973,-0.8298491383808144
7.241325966850829,-0.7129423829558766
7.274696132596685,-0.5818810706803957
7.308066298342542,-0.44965282115297056
7.341436464088399,-0.32398636480521464
7.3748066298342545,-0.20752627504516769
7.408176795580111,-0.0976691348384257
7.441546961325967,0.013182052751395574
7.474917127071824,0.13528142981666144
7.5082872928176805,0.27665313038383016
7.541657458563536,0.43764174595746164
7.575027624309393,0.6084724060967139
7.608397790055249,0.7723809132535284
7.641767955801106,0.9134651703766732
7.675138121546962,1.0247967054023794
7.708508287292818,1.1112181302173885
7.741878453038675,1.1838782049594074
7.775248618784531,1.2486735402627431
7.808618784530387,1.2952903030889449
7.841988950276244,1.2944535376615465
7.8753591160221,1.2072869065037615
7.908729281767957,1.0041026324684363
7.9420994475138125,0.6840451068763327
7.975469613259669,0.28518743112551026
8.008839779005525,-0.1217464607105308
8.042209944751383,-0.45537907635420743
8.075580110497238,-0.652959542510286
8.108950276243094,-0.6943543598856223
8.14232044198895,-0.6099316638946339
8.175690607734808,-0.4684827344605666
8.209060773480664,-0.3501660314863645
8.24243093922652,-0.31592687484347237
8.275801104972377,-0.38595740151077434
8.309171270718233,-0.5352789168736236
8.342541436464089,-0.7069022014999308
8.375911602209946,-0.8359171413605153
8.409281767955802,-0.8742426743798573
8.442651933701658,-0.8066427372157954
8.476022099447514,-0.6529914432769519
8.509392265193371,-0.4574911641740629
8.542762430939227,-0.2703294824755757
8.576132596685083,-0.1294827946325713
8.60950276243094,-0.0494811182681812
8.642872928176796,-0.020537335427600948
8.676243093922652,-0.017014801484264794
8.709613259668508,-0.010591479391492383
8.742983425414366,0.017891301072860695
8.776353591160222,0.0725959675135014
8.809723756906077,0.14433267773458738
8.843093922651935,0.2175798206603873
8.87646408839779,0.2785947246975007
8.909834254143647,0.320462804636917
8.943204419889504,0.34311663236255835
8.97657458563536,0.3492955227275831
9.009944751381216,0.33954197333444525
9.043314917127072,0.30963490582583125
9.07668508287293,0.25233997282732057
9.110055248618785,0.16289311318183575
9.143425414364641,0.045459599770506016
9.176795580110499,-0.08306382738987853
9.210165745856354,-0.19470799609257267
9.24353591160221,-0.2581235996431837
9.276906077348068,-0.2501006498287204
9.310276243093924,-0.16650861482493093
9.34364640883978,-0.027651413237332736
9.377016574585635,0.12543054649216065
9.410386740331493,0.2437753019023526
9.443756906077349,0.2884042450993258
9.477127071823205,0.24630412483446984
9.510497237569062,0.13727765612781598
9.543867403314918,0.007701597483520992
9.577237569060774,-0.08710890663111347
9.610607734806631,-0.10472252938643563
9.643977900552487,-0.03198592377292299
9.677348066298343,0.11129736602969824
9.710718232044199,0.28253403203740557
9.744088397790057,0.4347058985299696
9.777458563535912,0.5336000888816815
9.810828729281768,0.5659589907809892
9.844198895027626,0.5361073866646328
9.877569060773482,0.4549989882971491
9.910939226519337,0.3293644747277396
9.944309392265193,0.15790166652158089
9.97767955801105,-0.06309594680435521
10.011049723756907,-0.328045171952608
10.044419889502763,-0.6116628776929295
10.07779005524862,-0.8673352098836241
10.111160220994476,-1.0378294179771947
10.144530386740332,-1.0755501395679583
10.17790055248619,-0.9637678205752686
10.211270718232045,-0.7282330237579644
10.244640883977901,-0.4319895294833568
10.278011049723757,-0.1538544451273663
10.311381215469615,0.04081960200388228
10.34475138121547,0.12424832321129937
10.378121546961326,0.11442189869578114
10.411491712707184,0.06401005351316721
10.44486187845304,0.03537152408568189
10.478232044198895,0.07302445258069681
10.511602209944753,0.18548813360221136
10.544972375690609,0.3437210286544798
10.578342541436465,0.4958326160502148
10.61171270718232,0.5907181816023073
10.645082872928178,0.5997702704457679
10.678453038674034,0.5272955904999751
10.71182320441989,0.4058978017307249
10.745193370165747,0.2801171109684269
10.778563535911603,0.18667147106488816
10.811933701657459,0.14043242720629143
10.845303867403315,0.1317213505752382
10.878674033149172,0.1347157367174333
10.912044198895028,0.12175123472687177
10.945414364640884,0.07641973019759532
10.978784530386742,2.5813316396099172e-05
11.012154696132598,-0.09029535942576207
11.045524861878453,-0.16989846738392003
11.078895027624311,-0.21755732483874235
11.112265193370167,-0.22503602656267124
11.145635359116023,-0.20217375715389543
11.179005524861878,-0.1754816195836738
11.212375690607736,-0.17971368016611616
11.245745856353592,-0.24406439528821533
11.279116022099448,-0.37733607150758525
11.312486187845305,-0.5583165457034942
11.345856353591161,-0.7370124945808861
11.379226519337017,-0.8485920670564022
11.412596685082875,-0.8361508038762051
11.44596685082873,-0.6735617521041098
11.479337016574586,-0.3785267415097065
11.512707182320442,-0.009539833345868571
11.5460773480663,0.35271989188010067
11.579447513812156,0.6323311493858613
11.612817679558011,0.7827765902288427
11.646187845303869,0.7999945883223163
11.679558011049725,0.7196073395055339
11.71292817679558,0.6003350673242847
11.746298342541436,0.5004383555722631
11.779668508287294,0.4560037464937465
11.81303867403315,0.46882524974955636
11.846408839779006,0.5081355690883684
11.879779005524863,0.5254794488662261
11.91314917127072,0.47696779042447374
11.946519337016575,0.34382758855518447
11.979889502762433,0.1423320816890396
12.013259668508288,-0.08155776268819112
12.046629834254144,-0.27069255283243143
12.08,-0.38009907923716907
12.113370165745858,-0.3947345511195203
12.146740331491714,-0.33404631393805684
12.18011049723757,-0.24208300499896268
12.213480662983427,-0.16832571248519196
12.246850828729283,-0.147922295606983
12.280220994475139,-0.18943107541356216
12.313591160220996,-0.2743201340656723
12.346961325966852,-0.36732573748806935
12.380331491712708,-0.4325008959183218
12.413701657458564,-0.4479123424852484
12.447071823204421,-0.41299020520142754
12.480441988950277,-0.3459505373212214
12.513812154696133,-0.27309139776009905
12.54718232044199,-0.21530502257023315
12.580552486187846,-0.17830544195567158
12.613922651933702,-0.1512338332363347
12.64729281767956,-0.11420301111937983
12.680662983425416,-0.05086594921389466
12.714033149171271,0.04053862181135487
12.747403314917127,0.1435812107986487
12.780773480662985,0.22971304218832905
12.81414364640884,0.2713245069201175
12.847513812154697,0.2554257643307481
12.880883977900554,0.19104260624878797
12.91425414364641,0.10633382397740068
12.947624309392266,0.03642818015555156
12.980994475138122,0.00764383869688154
13.01436464088398,0.025771674477162006
13.047734806629835,0.07434141987614908
13.081104972375691,0.12393096997710482
13.114475138121549,0.14795009695666214
13.147845303867404,0.13683282649288475
13.18121546961326,0.1031656409117281
13.214585635359118,0.07482764533156061
13.247955801104974,0.0794588058080372
13.28132596685083,0.12826836841771153
13.314696132596685,0.2078538670890315
13.348066298342543,0.2848686759231314
13.381436464088399,0.3218706489502948
13.414806629834255,0.2967212075153556
13.448176795580112,0.21557485546263871
13.481546961325968,0.11224288672488411
13.514917127071824,0.03343669545746074
13.548287292817681,0.016772205119013714
13.581657458563537,0.0724927470791996
13.615027624309393,0.17825176756282404
13.648397790055249,0.2896562791031545
13.681767955801106,0.3610913011714452
13.715138121546962,0.3660126713517341
13.748508287292818,0.3062818502749268
13.781878453038676,0.20605450003720166
13.815248618784532,0.09413674641708662
13.848618784530387,-0.01484794235641439
13.881988950276245,-0.1292368306887926
13.9153591160221,-0.27320979650645094
13.948729281767957,-0.4670081169121112
13.982099447513813,-0.7055655480081804
14.01546961325967,-0.9486509700694501
14.048839779005526,-1.1302634647417336
14.082209944751382,-1.1848689559183816
14.11558011049724,-1.0785445813337329
14.148950276243095,-0.8294242391794857
14.182320441988951,-0.5061563215549331
14.215690607734807,-0.20335940429263658
14.249060773480664,-0.004213001405348141
14.28243093922652,0.053178617928123374
14.315801104972376,-0.009610217725569735
14.349171270718234,-0.12239098153062199
14.38254143646409,-0.19798382724631444
14.415911602209945,-0.16999171144561573
14.449281767955803,-0.019805182044823136
14.482651933701659,0.2187085363828944
14.516022099447515,0.4777506955772972
14.54939226519337,0.6875576689569719
14.582762430939228,0.8063220767407115
14.616132596685084,0.8346033777330348
14.64950276243094,0.8090516838921976
14.682872928176797,0.7803436813435382
14.716243093922653,0.787012574564061
14.749613259668509,0.8374121658469861
14.782983425414367,0.9068984988555324
14.816353591160222,0.949687217674392
14.849723756906078,0.9186780943771512
14.883093922651934,0.7843477889691998
14.916464088397792,0.5457241883936428
14.949834254143648,0.23068177148244196
14.983204419889503,-0.11298372408192131
15.016574585635361,-0.4315925916052338
15.049944751381217,-0.6798837827167782
15.083314917127073,-0.8314503302787675
15.116685082872928,-0.8827662887934589
15.150055248618786,-0.8503528485405893
15.183425414364642,-0.7628199197302337
15.216795580110498,-0.6511256074993462
15.250165745856355,-0.5406614741038801
15.283535911602211,-0.4474663749420824
15.316906077348067,-0.37865650159977027
15.350276243093925,-0.3352552178127248
15.38364640883978,-0.3150126594841289
15.417016574585636,-0.31368109334554345
15.450386740331492,-0.32482356917831384
15.48375690607735,-0.3394473756728856
15.517127071823205,-0.34677276402216284
15.550497237569061,-0.33634597212586287
15.583867403314919,-0.30039738244327874
15.617237569060775,-0.2349397559083245
15.65060773480663,-0.13904736565710632
15.683977900552488,-0.013399603068064784
15.717348066298344,0.139865172317759
15.7507182320442,0.31470974536260243
15.784088397790056,0.4971631021903758
15.817458563535913,0.6628834409963779
15.85082872928177,0.7798133638270477
15.884198895027625,0.8171034850854166
15.917569060773483,0.757609347357641
15.950939226519338,0.6081385255406027
15.984309392265194,0.4013858826605289
16.01767955801105,0.18679708612512663
16.051049723756908,0.013055171132963991
16.084419889502765,-0.09035551706488336
16.11779005524862,-0.12378603984822466
16.151160220994477,-0.11482603732701774
16.18453038674033,-0.10340228765122852
16.21790055248619,-0.12162670888016378
16.251270718232046,-0.17807118494049057
16.2846408839779,-0.25391803036679433
16.318011049723758,-0.3125914474533271
16.351381215469615,-0.3180128787585212
16.38475138121547,-0.25264153517462484
16.418121546961327,-0.12671057881430897
16.451491712707185,0.025677019268168615
16.48486187845304,0.16164999617497006
16.518232044198896,0.2485185856850847
16.551602209944754,0.27729977915947657
16.584972375690608,0.26418174635446795
16.618342541436466,0.23933305857967271
16.651712707182323,0.22891601429282152
16.685082872928177,0.2396825942373297
16.718453038674035,0.2542376562661157
16.751823204419892,0.2395974103764186
16.785193370165747,0.16487736622232854
16.818563535911604,0.01927782697842668
16.851933701657458,-0.17869407299723555
16.885303867403316,-0.38556424143881274
16.918674033149173,-0.5489856038163152
16.952044198895027,-0.6281054722416054
16.985414364640885,-0.6087998561623222
17.018784530386743,-0.5071190775373845
17.052154696132597,-0.36022854590247555
17.085524861878454,-0.21009935280515885
17.118895027624312,-0.08809753155892684
17.152265193370166,-0.007114639383002985
17.185635359116024,0.03684554719402255
17.21900552486188,0.056736873509028445
17.252375690607735,0.06578543693076261
17.285745856353593,0.07252274898287805
17.31911602209945,0.08059176775605495
