Frequency (Hz),Amplitude
0.0,5.216339359878722
0.019867549668874173,5.214766764827343
0.039735099337748346,5.2100523508784065
0.059602649006622516,5.202206237600008
0.07947019867549669,5.191245310825447
0.09933774834437085,5.177193252637734
0.11920529801324503,5.160080583655047
0.13907284768211922,5.139944717916691
0.15894039735099338,5.11683003074422
0.17880794701986755,5.090787940017715
0.1986754966887417,5.061877001360048
0.2185430463576159,5.030163017757521
0.23841059602649006,4.9957191641588405
0.2582781456953642,4.958626127578289
0.27814569536423844,4.918972263175685
0.2980132450331126,4.876853766683249
0.31788079470198677,4.8323748633867805
0.33774834437086093,4.785648013627223
0.3576158940397351,4.736794134451562
0.3774834437086093,4.685942836583829
0.3973509933774834,4.633232675281699
0.4172185430463576,4.57881141285902
0.4370860927152318,4.5228362896520995
0.45695364238410596,4.465474298948226
0.4768211920529801,4.406902459832499
0.49668874172185434,4.347308079998995
0.5165562913907285,4.286888998268783
0.5364238410596026,4.225853793824196
0.5562913907284769,4.1644219459795995
0.5761589403973509,4.10282392466534
0.5960264900662252,4.0413011877381155
0.6158940397350993,3.9801060568397104
0.6357615894039735,3.919501438972197
0.6556291390728477,3.8597603565042164
0.6754966887417219,3.8011652443566293
0.695364238410596,3.744006970161804
0.7152317880794702,3.6885835319286
0.7350993377483444,3.635198388994767
0.7549668874172186,3.5841583867355227
0.7748344370860927,3.5357712445711886
0.7947019867549668,3.4903425911237833
0.8145695364238411,3.4481725504709275
0.8344370860927152,3.409551909382728
0.8543046357615894,3.3747579264999414
0.8741721854304636,3.3440498789630486
0.8940397350993378,3.3176644773233934
0.9139072847682119,3.295811311979568
0.9337748344370861,3.2786685195568115
0.9536423841059603,3.266378871181146
0.9735099337748344,3.2590464827863017
0.9933774834437087,3.256734328249724
1.0132450331125828,3.2594626993142986
1.033112582781457,3.267208704487706
1.0529801324503312,3.279906837367302
1.0728476821192052,3.297450579730864
1.0927152317880795,3.3196949434581025
1.1125827814569538,3.3464598044398555
1.1324503311258278,3.37753384589596
1.1523178807947019,3.4126789103614654
1.1721854304635762,3.4516345588834363
1.1920529801324504,3.4941226503915206
1.2119205298013245,3.539851779985745
1.2317880794701985,3.588521447606683
1.2516556291390728,3.639825863915343
1.271523178807947,3.693457334592853
1.2913907284768211,3.7491091950342263
1.3112582781456954,3.8064782929676007
1.3311258278145695,3.8652670362339516
1.3509933774834437,3.925185036900479
1.370860927152318,3.9859503916374646
1.390728476821192,4.047290642721143
1.410596026490066,4.108943465084119
1.4304635761589404,4.170657123440748
1.4503311258278146,4.232190740479379
1.4701986754966887,4.293314413103578
1.4900662251655628,4.353809209238374
1.5099337748344372,4.413467073170632
1.5298013245033113,4.472090663021687
1.5496688741721854,4.529493139915714
1.5695364238410596,4.585497924794464
1.5894039735099337,4.639938435672452
1.609271523178808,4.692657815424111
1.6291390728476822,4.743508657918988
1.6490066225165563,4.792352738436379
1.6688741721854303,4.839060752750377
1.6887417218543048,4.883512068035122
1.7086092715231789,4.92559448775429
1.728476821192053,4.9652040319258095
1.7483443708609272,5.002244733559133
1.7682119205298013,5.036628451612396
1.7880794701986755,5.0682747004870965
1.8079470198675496,5.097110495842287
1.8278145695364238,5.12307021635187
1.847682119205298,5.146095480929844
1.8675496688741722,5.166135040898005
1.8874172185430464,5.183144686556682
1.9072847682119205,5.1970871676343355
1.9271523178807946,5.207932127128972
1.9470198675496688,5.215656048108281
1.9668874172185429,5.220242213101943
1.9867549668874174,5.221680675794703
2.0066225165562916,5.219968244811587
2.0264900662251657,5.215108479472286
2.0463576158940397,5.20711169748118
2.066225165562914,5.195994994608708
2.086092715231788,5.181782276508713
2.1059602649006623,5.164504302902783
2.1258278145695364,5.144198744444336
2.1456953642384105,5.120910252650617
2.165562913907285,5.094690543356659
2.185430463576159,5.06559849419821
2.205298013245033,5.033700256666686
2.2251655629139075,4.99906938329204
2.2450331125827816,4.9617869704936215
2.2649006622516556,4.92194181758343
2.2847682119205297,4.8796306023034965
2.3046357615894038,4.8349580731119906
2.324503311258278,4.7880372581883694
2.3443708609271523,4.73898969078405
2.364238410596027,4.687945650079778
2.384105960264901,4.635044416094336
2.403973509933775,4.580434536390537
2.423841059602649,4.524274101303802
2.443708609271523,4.466731023136468
2.463576158940397,4.407983313170059
2.4834437086092715,4.348219348402307
2.5033112582781456,4.287638117569907
2.52317880794702,4.226449433234358
2.543046357615894,4.164874093460702
2.562913907284768,4.103143972909869
2.5827814569536423,4.041502019030841
2.6026490066225163,3.9802021245745047
2.622516556291391,3.9195088430275375
2.642384105960265,3.859696909053395
2.662251655629139,3.801050522026194
2.6821192052980134,3.743862347792141
2.7019867549668874,3.6884321925891963
2.7218543046357615,3.635065304438791
2.741721854304636,3.5840702622385843
2.76158940397351,3.535756422197344
2.781456953642384,3.4904309060155505
2.801324503311258,3.4483951358772758
2.821192052980132,3.4099409478996963
2.8410596026490067,3.3753463474264915
2.8609271523178808,3.3448710047130468
2.8807947019867552,3.3187516253226184
2.9006622516556293,3.2971973621441184
2.9205298013245033,3.280385460927641
2.9403973509933774,3.2684573441515683
2.9602649006622515,3.2615153351807162
2.9801324503311255,3.2596202039492472
3.0,3.2627896769899443
3.0198675496688745,3.27099800131537
3.0397350993377485,3.284176588605256
3.0596026490066226,3.3022157001760193
3.0794701986754967,3.324967071615207
3.0993377483443707,3.352247325313833
3.119205298013245,3.3838419841487877
3.1390728476821192,3.4195098825111803
3.1589403973509933,3.458987771424759
3.1788079470198674,3.5019949301652185
3.198675496688742,3.5482376236504938
3.218543046357616,3.5974132784132355
3.23841059602649,3.649214285856024
3.2582781456953644,3.703331376118434
3.2781456953642385,3.759456536661371
3.2980132450331126,3.817285475071434
3.3178807947019866,3.8765196450237567
3.3377483443708607,3.9368678679605247
3.3576158940397347,3.998047591473211
3.3774834437086096,4.059785829505011
3.3973509933774837,4.1218198302866895
3.4172185430463577,4.183897516309939
3.437086092715232,4.245777737440853
3.456953642384106,4.307230374144354
3.47682119205298,4.368036323241533
3.4966887417218544,4.4279873940213825
3.5165562913907285,4.486886138129558
3.5364238410596025,4.544545632609902
3.556291390728477,4.6007892318633505
3.576158940397351,4.655450301141086
3.596026490066225,4.7083719414999
3.615894039735099,4.759406713889468
3.6357615894039736,4.808416368173064
3.6556291390728477,4.855271581360484
3.6754966887417218,4.8998517081069375
3.695364238410596,4.942044545560052
3.7152317880794703,4.981746113878551
3.7350993377483444,5.018860453162849
3.754966887417219,5.053299437099596
3.774834437086093,5.084982603299781
3.794701986754967,5.113837000083407
3.814569536423841,5.139797049310751
3.834437086092715,5.162804424767716
3.854304635761589,5.18280794556675
3.8741721854304636,5.199763484015221
3.8940397350993377,5.2136338874217
3.9139072847682117,5.224388913350797
3.9337748344370858,5.232005177893998
3.9536423841059607,5.236466116592406
3.9735099337748347,5.237761957725434
3.993377483443709,5.235889707763259
4.013245033112583,5.230853148869555
4.033112582781457,5.222662848431253
4.052980132450331,5.211336180684072
4.072847682119205,5.196897360592553
4.0927152317880795,5.179377490232176
4.112582781456953,5.158814618004297
4.132450331125828,5.13525381109206
4.152317880794702,5.108747241633296
4.172185430463576,5.079354287140835
4.19205298013245,5.047141645738526
4.211920529801325,5.012183466795802
4.231788079470199,4.974561497528116
4.251655629139073,4.934365246076339
4.271523178807947,4.891692161474504
4.291390728476821,4.846647830747235
4.311258278145695,4.799346193130985
4.33112582781457,4.7499097710641065
4.3509933774834435,4.698469917118331
4.370860927152318,4.645167075416373
4.390728476821192,4.590151055265534
4.410596026490066,4.533581313696207
4.43046357615894,4.475627242282329
4.450331125827815,4.416468451993739
4.470198675496689,4.356295047836664
4.490066225165563,4.295307882633634
4.509933774834438,4.233718776436065
4.529801324503311,4.171750684728075
4.549668874172186,4.109637794765138
4.569536423841059,4.047625525139308
4.589403973509934,3.9859703990676754
4.6092715231788075,3.924939757140103
4.629139072847682,3.8648112706193345
4.649006622516556,3.8058722122714546
4.66887417218543,3.7484184386782204
4.688741721854305,3.6927530367711876
4.708609271523179,3.6391845887994325
4.728476821192054,3.5880250150804
4.748344370860927,3.5395869636844717
4.768211920529802,3.4941807315478126
4.788079470198675,3.452110722950455
4.80794701986755,3.413671478836798
4.827814569536423,3.379143343274757
4.847682119205298,3.348787869606458
4.867549668874172,3.3228431055803953
4.887417218543046,3.301518930010353
4.9072847682119205,3.284992638678482
4.927152317880794,3.2734049896900363
4.947019867549669,3.26685691453032
4.966887417218543,3.265407078618674
4.986754966887418,3.269070434553779
5.006622516556291,3.2778178555537405
5.026490066225166,3.2915768713087323
5.04635761589404,3.3102334607098554
5.066225165562914,3.333634793249669
5.086092715231788,3.3615927599796316
5.105960264900662,3.39388810045891
5.125827814569536,3.4302749162379866
5.14569536423841,3.4704853635394683
5.1655629139072845,3.514234335181391
5.185430463576159,3.561223970278551
5.205298013245033,3.61114786517375
5.225165562913908,3.6636948959614934
5.245033112582782,3.718552598241961
5.264900662251656,3.7754100808185784
5.28476821192053,3.8339604754681877
5.304635761589404,3.8939029441635373
5.324503311258278,3.954944278436435
5.344370860927152,4.016800133630048
5.364238410596027,4.079195944537421
5.3841059602649,4.141867569364308
5.403973509933775,4.204561707033991
5.4238410596026485,4.267036129391553
5.443708609271523,4.32905976552923
5.463576158940397,4.39041267075002
5.483443708609272,4.450885907976053
5.503311258278146,4.510281364932171
5.52317880794702,4.5684115263418255
5.543046357615895,4.6250992167344025
5.562913907284768,4.680177326304581
5.582781456953643,4.733488529576411
5.602649006622516,4.784885004372885
5.622516556291391,4.8342281567368275
5.642384105960264,4.8813883559394
5.662251655629139,4.926244682503448
5.682119205298013,4.96868469121242
5.701986754966887,5.008604190331526
5.7218543046357615,5.045907037698547
5.741721854304636,5.080504953915251
5.7615894039735105,5.112317352560135
5.781456953642384,5.141271187125751
5.801324503311259,5.167300814240035
5.821192052980132,5.190347872646611
5.841059602649007,5.210361177379249
5.860927152317881,5.227296628562767
5.880794701986755,5.24111713429593
5.900662251655629,5.25179254711733
5.920529801324503,5.259299613615996
5.940397350993377,5.263621936821081
5.960264900662251,5.26474995108633
5.980132450331126,5.262680909272761
6.0,5.257418882124162
6.0198675496688745,5.248974769824293
6.039735099337749,5.237366325818792
6.059602649006623,5.222618193078838
6.079470198675497,5.2047619530747475
6.099337748344371,5.183836187814671
6.119205298013245,5.1598865553840465
6.139072847682119,5.13296587949205
6.158940397350993,5.103134253590043
6.178807947019867,5.070459160166867
6.198675496688741,5.035015605844516
6.218543046357616,4.996886272883677
6.23841059602649,4.956161687657789
6.258278145695365,4.91294040655059
6.2781456953642385,4.8673292195648035
6.298013245033113,4.819443371679805
6.317880794701987,4.769406801643646
6.337748344370861,4.717352397402688
6.357615894039735,4.663422266733852
6.377483443708609,4.607768020809098
6.397350993377484,4.550551067356238
6.417218543046357,4.491942908731159
6.437086092715232,4.432125438541681
6.456953642384105,4.371291228406693
6.47682119205298,4.3096437939481
6.496688741721854,4.247397826154364
6.516556291390729,4.184779370794654
6.5364238410596025,4.122025934599698
6.556291390728477,4.059386492499346
6.5761589403973515,3.9971213654163127
6.596026490066225,3.93550193314506
6.6158940397351,3.8748101419874104
6.635761589403973,3.815337762504014
6.655629139072848,3.757385349562189
6.675496688741721,3.7012608555782682
6.695364238410596,3.6472778493825238
6.715231788079469,3.595753298513988
6.735099337748344,3.5470048830307106
6.754966887417219,3.5013478250231476
6.774834437086093,3.459091240523963
6.794701986754967,3.420534049398621
6.814569536423841,3.3859605131891537
6.8344370860927155,3.35563550879097
6.854304635761589,3.3297996841104647
6.874172185430464,3.3086646762660195
6.894039735099337,3.2924085985921114
6.913907284768212,3.2811720148615557
6.933774834437086,3.2750546138693166
6.95364238410596,3.274112772798547
6.973509933774834,3.278358154179578
6.993377483443709,3.287757422172796
7.013245033112583,3.3022330953182983
7.033112582781457,3.3216654823920795
7.052980132450331,3.3458955835213087
7.072847682119205,3.3747287871162674
7.0927152317880795,3.4079391591790427
7.112582781456954,3.4452741070669495
7.132450331125828,3.486459203964121
7.152317880794702,3.5312029800423703
7.172185430463576,3.579201517082824
7.19205298013245,3.630142720244757
7.211920529801324,3.68371017912276
7.231788079470198,3.73958656654143
7.251655629139073,3.7974565551632753
7.271523178807947,3.8570092575455157
7.291390728476822,3.9179402143756388
7.311258278145695,3.979952968568093
7.33112582781457,4.042760270504691
7.3509933774834435,4.106084962954698
7.370860927152318,4.169660594175861
7.390728476821192,4.233231805348409
7.410596026490066,4.2965545346712695
7.430463576158941,4.359396075818892
7.450331125827814,4.4215350235248785
7.470198675496689,4.482761134177258
7.490066225165562,4.542875124714398
7.509933774834438,4.601688428936243
7.52980132450331,4.659022926657528
7.549668874172186,4.714710657945615
7.569536423841059,4.76859353198687
7.589403973509934,4.820523037876437
7.6092715231788075,4.870359962780359
7.629139072847682,4.917974121423867
7.649006622516557,4.963244099667178
7.66887417218543,5.006057013991492
7.6887417218543055,5.046308287991264
7.708609271523178,5.0839014464160925
7.728476821192054,5.118747926895633
7.748344370860927,5.150766909184198
7.768211920529802,5.179885161557824
7.788079470198675,5.206036903864511
7.80794701986755,5.2291636866539015
7.827814569536423,5.249214285782431
7.847682119205298,5.266144611895461
7.8675496688741715,5.27991763421806
7.887417218543046,5.290503318139044
7.907284768211921,5.297878576138356
7.927152317880795,5.302027231687317
7.9470198675496695,5.302939995836821
7.966887417218543,5.300614456301408
7.986754966887418,5.295055078943054
8.006622516556291,5.286273221656994
8.026490066225167,5.274287160760768
8.046357615894038,5.259122130086074
8.066225165562914,5.240810373068567
8.086092715231787,5.219391208222489
8.105960264900663,5.1949111084720005
8.125827814569536,5.167423794886899
8.14569536423841,5.136990345433257
8.165562913907285,5.103679319395245
8.185430463576159,5.067566898146252
8.205298013245034,5.028737042939329
8.225165562913906,4.987281670338336
8.245033112582782,4.943300845810795
8.264900662251655,4.8969029958372765
8.28476821192053,4.848205138640263
8.304635761589404,4.797333133279265
8.324503311258278,4.74442194636768
8.344370860927151,4.689615935012928
8.364238410596027,4.633069143724857
8.3841059602649,4.5749456119366245
8.403973509933774,4.515419687389063
8.42384105960265,4.454676338890624
8.443708609271523,4.392911459826089
8.463576158940398,4.3303321511937645
8.483443708609272,4.267156969856105
8.503311258278146,4.203616124060739
8.52317880794702,4.139951594122321
8.543046357615895,4.07641715149038
8.562913907284768,4.013278244365035
8.582781456953642,3.950811712754832
8.602649006622515,3.889305290707387
8.62251655629139,3.8290568488412253
8.642384105960264,3.7703733268945934
8.66225165562914,3.713569304596314
8.682119205298013,3.658965160739633
8.701986754966887,3.6068847760116562
8.721854304635762,3.5576527460285496
8.741721854304636,3.5115910881413877
8.76158940397351,3.469015449526329
8.781456953642383,3.4302308548218647
8.801324503311259,3.39552706814525
8.821192052980132,3.3651736845461184
8.841059602649008,3.339415106400247
8.86092715231788,3.3184655963421523
8.880794701986755,3.3025046248441816
8.90066225165563,3.2916727423257157
8.920529801324504,3.286068198653357
8.940397350993377,3.285744505080898
8.960264900662251,3.290709085924443
8.980132450331126,3.300923103498963
9.0,3.3163024666681764
9.019867549668875,3.3367199590290575
9.039735099337747,3.3620083557218714
9.059602649006623,3.3919643452884554
9.079470198675496,3.4263530396052926
9.099337748344372,3.4649128423557154
9.119205298013245,3.507360453491231
9.139072847682119,3.5533958100638667
9.158940397350994,3.602706797741161
9.178807947019868,3.6549736069533725
9.198675496688743,3.7098726481768236
9.218543046357615,3.7670799785682925
9.23841059602649,3.8262742245390715
9.258278145695364,3.887139010614633
9.27814569536424,3.9493649238099593
9.298013245033111,4.012651055227152
9.317880794701987,4.076706167564433
9.33774834437086,4.141249539817808
9.357615894039736,4.2060115397834785
9.37748344370861,4.2707339720487845
9.397350993377483,4.3351702448498
9.417218543046358,4.399085394150326
9.437086092715232,4.462255998057947
9.456953642384107,4.524470009584677
9.47682119205298,4.585526531000882
9.496688741721854,4.645235548747966
9.516556291390728,4.703417644120347
9.536423841059603,4.759903691704716
9.556291390728477,4.81453455485273
9.57615894039735,4.867160785215138
9.596026490066224,4.917642331529813
9.6158940397351,4.965848261380154
9.635761589403973,5.0116564984680085
9.655629139072847,5.054953577029666
9.675496688741722,5.095634414319156
9.695364238410596,5.133602101552444
9.715231788079471,5.168767713316228
9.735099337748345,5.201050135167395
9.754966887417218,5.23037590896198
9.774834437086092,5.256679095335857
9.794701986754967,5.279901152698641
9.814569536423841,5.299990832084197
9.834437086092716,5.316904087217201
9.854304635761588,5.330603999195788
9.874172185430464,5.3410607152510865
9.894039735099337,5.348251401118671
9.913907284768213,5.352160206643232
9.933774834437086,5.352778244329954
9.95364238410596,5.350103580656123
9.973509933774835,5.344141240057424
9.993377483443709,5.334903221608979
10.013245033112582,5.32240852852503
10.033112582781456,5.306683210706298
10.052980132450331,5.287760420665223
10.072847682119205,5.265680483257353
10.09271523178808,5.240490979738431
10.112582781456952,5.212246846749186
10.132450331125828,5.181010490899073
10.152317880794701,5.14685191967249
10.172185430463577,5.109848889409586
10.192052980132452,5.070087071111011
10.211920529801324,5.027660234773345
10.2317880794702,4.982670452864655
10.251655629139073,4.9352283233854735
10.271523178807948,4.8854532127083266
10.29139072847682,4.833473518025986
10.311258278145695,4.779426948737712
10.331125827814569,4.723460825428964
10.350993377483444,4.665732394214391
10.370860927152318,4.606409153070171
10.390728476821192,4.545669185327951
10.410596026490065,4.483701493681173
10.43046357615894,4.420706325805846
10.450331125827816,4.356895479961565
10.470198675496688,4.292492575662244
10.490066225165563,4.227733270651992
10.509933774834437,4.162865400981374
10.529801324503312,4.098149015990098
10.549668874172186,4.03385627456921
10.56953642384106,3.970271163404306
10.589403973509933,3.9076889923179965
10.609271523178808,3.8464156168315933
10.629139072847682,3.7867663343292546
10.649006622516556,3.7290643986192102
10.66887417218543,3.6736390993206545
10.688741721854305,3.620823358575137
10.70860927152318,3.5709508093268916
10.728476821192054,3.5243523379216253
10.748344370860927,3.4813520997058456
10.7682119205298,3.442263049611805
10.788079470198676,3.4073820692746306
10.80794701986755,3.3769848156235414
10.827814569536423,3.351320459284683
10.847682119205297,3.3306065194695984
10.867549668874172,3.3150240295415676
