Time (s),Filtered Signal
0.0,0.031338962799786284
0.033370165745856356,-0.3662355949015504
0.06674033149171271,-0.6859192384301136
0.10011049723756907,-0.8733862885983074
0.13348066298342542,-0.9137671978431064
0.16685082872928178,-0.8344959459460762
0.20022099447513814,-0.6931670071132676
0.2335911602209945,-0.5540849812756691
0.26696132596685085,-0.46250050577778457
0.30033149171270723,-0.4275668684641765
0.33370165745856356,-0.4218485028205317
0.3670718232044199,-0.3976731576474404
0.4004419889502763,-0.31246062420645626
0.43381215469613266,-0.15078781820638323
0.467182320441989,0.06723116940724758
0.5005524861878453,0.2946747828804547
0.5339226519337017,0.47866236593824313
0.5672928176795581,0.5828118025704404
0.6006629834254145,0.6007449662812178
0.6340331491712707,0.5551334214761912
0.6674033149171271,0.4840692106102905
0.7007734806629835,0.42234313454677286
0.7341436464088398,0.38684148704369914
0.7675138121546962,0.3723377580218238
0.8008839779005525,0.358322025458774
0.8342541436464089,0.3221732366782199
0.8676243093922653,0.251501449077084
0.9009944751381216,0.14978620182768926
0.934364640883978,0.03347168094025614
0.9677348066298344,-0.07687169254516237
1.0011049723756906,-0.16615268840511885
1.0344751381215471,-0.2303808315291606
1.0678453038674034,-0.27632296757562586
1.1012154696132597,-0.3165226414915223
1.1345856353591162,-0.36298780252072754
1.1679558011049724,-0.422643367636326
1.201325966850829,-0.49578530984043157
1.2346961325966852,-0.5767109009121374
1.2680662983425415,-0.6548173950921778
1.301436464088398,-0.7151977095992514
1.3348066298342542,-0.7393547970905353
1.3681767955801105,-0.7076761564733914
1.401546961325967,-0.6046885889498083
1.4349171270718233,-0.42601153651590945
1.4682872928176796,-0.18377597539737922
1.501657458563536,0.09315556335408215
1.5350276243093923,0.3657619592227182
1.5683977900552488,0.596210227358685
1.601767955801105,0.7590257112314925
1.6351381215469614,0.8468983205864729
1.6685082872928179,0.8687335301041633
1.7018784530386741,0.8417228095536792
1.7352486187845306,0.7821780152776738
1.768618784530387,0.6999179826073052
1.8019889502762432,0.5983211255013015
1.8353591160220997,0.47863327920072796
1.868729281767956,0.3449270043912419
1.9020994475138122,0.20634895010344292
1.9354696132596687,0.07546069384703386
1.968839779005525,-0.035990304421961515
2.0022099447513813,-0.12116628428791036
2.0355801104972375,-0.1798028196574993
2.0689502762430942,-0.21682119148555293
2.1023204419889505,-0.23908299899534818
2.135690607734807,-0.2523602315841258
2.169060773480663,-0.2601207617446912
2.2024309392265193,-0.26431431807949063
2.235801104972376,-0.2669552912643886
2.2691712707182323,-0.2708558493735607
2.3025414364640886,-0.2786437993821628
2.335911602209945,-0.29065084607431413
2.369281767955801,-0.3033558745902448
2.402651933701658,-0.3100013818907454
2.436022099447514,-0.30370755330602384
2.4693922651933704,-0.2816424484109738
2.5027624309392267,-0.24770070448954964
2.536132596685083,-0.21153238767395457
2.5695027624309392,-0.1836544852310246
2.602872928176796,-0.16884934010636393
2.636243093922652,-0.16167696860309214
2.6696132596685085,-0.14752762723365404
2.7029834254143648,-0.11003483978324911
2.736353591160221,-0.041949772982007194
2.7697237569060777,0.046284027141768304
2.803093922651934,0.12613256116745059
2.8364640883977903,0.16129289017261134
2.8698342541436466,0.1256469137915916
2.903204419889503,0.020608124319161935
2.936574585635359,-0.11791598978426451
2.969944751381216,-0.2289548347185048
3.003314917127072,-0.2503625609667868
3.0366850828729284,-0.1470062100668618
3.0700552486187846,0.0705810589645147
3.103425414364641,0.3472331968720935
3.1367955801104976,0.6043348196585935
3.170165745856354,0.7711522909567011
3.20353591160221,0.8111236526150122
3.2369060773480665,0.7310548432826227
3.2702762430939227,0.5706846752125051
3.3036464088397794,0.3803192526739284
3.3370165745856357,0.19937593903122225
3.370386740331492,0.04620616416741053
3.4037569060773483,-0.07838951009660343
3.4371270718232045,-0.1797353014525169
3.4704972375690613,-0.25917081899689537
3.5038674033149175,-0.31158558554579713
3.537237569060774,-0.3303146797628392
3.57060773480663,-0.31366980434231123
3.6039779005524863,-0.26679153390926086
3.6373480662983426,-0.1968391980043131
3.6707182320441993,-0.105409089752017
3.7040883977900556,0.014856461120813128
3.737458563535912,0.1746142636240756
3.770828729281768,0.37443831762959123
3.8041988950276244,0.5913651081246756
3.837569060773481,0.7752167139797577
3.8709392265193374,0.8605756035459208
3.9043093922651937,0.7917908762353282
3.93767955801105,0.5500445778716375
3.9710497237569062,0.1684208893565324
4.0044198895027625,-0.27441087321024843
4.037790055248619,-0.6808373006841937
4.071160220994475,-0.9696074369571078
4.104530386740332,-1.103471491206118
4.1379005524861885,-1.0968119285435662
4.171270718232044,-1.0012767677758203
4.204640883977901,-0.8782388051112638
4.238011049723757,-0.7723514646864706
4.271381215469614,-0.6981316620583236
4.30475138121547,-0.6434126058669921
4.338121546961326,-0.5845820083899256
4.371491712707183,-0.5035295543753798
4.404861878453039,-0.3972461262459449
4.438232044198895,-0.27662117789391844
4.471602209944752,-0.15745631028135665
4.504972375690608,-0.05038576260575032
4.538342541436465,0.04429596806961517
4.5717127071823205,0.13481491713819702
4.605082872928177,0.2313830277487578
4.638453038674034,0.33948400813470364
4.67182320441989,0.45679237448229615
4.7051933701657465,0.5748012649712574
4.738563535911602,0.6833862066662839
4.771933701657459,0.7751731728495779
4.805303867403316,0.847219159415322
4.8386740331491715,0.8995133425812379
4.872044198895028,0.9318879667937222
4.905414364640884,0.9418868748755167
4.938784530386741,0.925441731147112
4.972154696132597,0.8802443201822313
5.005524861878453,0.8096253503991767
5.03889502762431,0.7238894856129005
5.072265193370166,0.6371701604850882
5.105635359116023,0.5605666190917167
5.1390055248618784,0.49510999849378856
5.172375690607735,0.4291402324019871
5.205745856353592,0.34293379367113686
5.239116022099448,0.21948342356787742
5.272486187845304,0.05625882052127865
5.30585635359116,-0.1289472897187129
5.339226519337017,-0.30290307341525285
5.372596685082874,-0.4320416851364811
5.4059668508287295,-0.5012232072883196
5.439337016574586,-0.5261263599928385
5.472707182320442,-0.5507604576271666
5.506077348066299,-0.62817268135105
5.5394475138121555,-0.7914744488056742
5.572817679558011,-1.0294346165151795
5.606187845303868,-1.2817885026916547
5.639558011049724,-1.462084028309262
5.672928176795581,-1.5022365807166933
5.706298342541437,-1.3988906088705846
5.739668508287293,-1.2350132032381087
5.77303867403315,-1.1567766902920826
5.806408839779006,-1.3056891540134823
5.839779005524862,-1.7313382442119798
5.873149171270718,-2.3278586767283738
5.906519337016575,-2.8351184849923565
5.939889502762432,-2.920038547103993
5.9732596685082875,-2.3137790658298285
6.006629834254144,-0.946482783709809
6.04,0.9867787492078784
6.073370165745857,3.0686311508582222
6.1067403314917135,4.799716444823416
6.140110497237569,5.77712431712014
6.173480662983426,5.831681096897137
6.206850828729282,5.065640877692631
6.240220994475139,3.7819497027959788
6.273591160220995,2.347234559761531
6.306961325966851,1.056480575409094
6.340331491712708,0.05727037193945482
6.373701657458564,-0.6453435433439606
6.40707182320442,-1.1240009478290671
6.440441988950277,-1.450081714111237
6.473812154696133,-1.6447725287263146
6.50718232044199,-1.6802663290757673
6.5405524861878455,-1.5203189830775787
6.573922651933702,-1.1687478754091036
6.607292817679559,-0.6937442308565863
6.640662983425415,-0.2130112915114508
6.674033149171271,0.15161497712374664
6.707403314917127,0.32467047962923135
6.740773480662984,0.30561368134718087
6.774143646408841,0.16110623751293776
6.8075138121546965,-0.013906183514483658
6.840883977900553,-0.1455295703935983
6.874254143646409,-0.21544451841925588
6.907624309392266,-0.2638111156753066
6.9409944751381225,-0.36032750879743236
6.974364640883978,-0.559414596046521
7.007734806629835,-0.8631894926786305
7.041104972375691,-1.211370036723322
7.074475138121548,-1.5031273869407797
7.107845303867403,-1.6396890648452231
7.14121546961326,-1.5665776232423243
7.174585635359117,-1.2955259860414388
7.207955801104973,-0.8970962541760237
7.241325966850829,-0.46957073419842266
7.274696132596685,-0.10017898069062198
7.308066298342542,0.16360251134891204
7.341436464088399,0.32183422946655693
7.3748066298342545,0.4091021654989399
7.408176795580111,0.47006850080641593
7.441546961325967,0.5364439121653685
7.474917127071824,0.6153863551907156
7.5082872928176805,0.6924955714309501
7.541657458563536,0.7454405821907446
7.575027624309393,0.7599621509173643
7.608397790055249,0.7399407819974433
7.641767955801106,0.7068727875704446
7.675138121546962,0.6894884850093146
7.708508287292818,0.7089034339770257
7.741878453038675,0.7666251616969679
7.775248618784531,0.8412276637394904
7.808618784530387,0.8953917697824868
7.841988950276244,0.8902715173464298
7.8753591160221,0.8009614737200034
7.908729281767957,0.6265650646302339
7.9420994475138125,0.3909516726903395
7.975469613259669,0.13438902720006848
8.008839779005525,-0.10009301040982187
8.042209944751383,-0.28007370941015736
8.075580110497238,-0.3920976858641447
8.108950276243094,-0.4427949198179388
8.14232044198895,-0.4534587627432073
8.175690607734808,-0.4508572372648084
8.209060773480664,-0.45774785652855
8.24243093922652,-0.4860285680925278
8.275801104972377,-0.5342131368131252
8.309171270718233,-0.5894804903322148
8.342541436464089,-0.6332351599070432
8.375911602209946,-0.6481312046807235
8.409281767955802,-0.6240782164032064
8.442651933701658,-0.5611015894270132
8.476022099447514,-0.4681203950643739
8.509392265193371,-0.3583952050290404
8.542762430939227,-0.24387968718156322
8.576132596685083,-0.13122736696214696
8.60950276243094,-0.021387957570866045
8.642872928176796,0.0871297083273373
8.676243093922652,0.1932649870858253
8.709613259668508,0.2897311202568508
8.742983425414366,0.36322804422437377
8.776353591160222,0.39912851897283663
8.809723756906077,0.38865484403515277
8.843093922651935,0.3347794198143718
8.87646408839779,0.25321558402052813
8.909834254143647,0.167113382804904
8.943204419889504,0.09742887473506383
8.97657458563536,0.0535938968018409
9.009944751381216,0.02945135289209212
9.043314917127072,0.006990149617914116
9.07668508287293,-0.03365067086950941
9.110055248618785,-0.1029327880290348
9.143425414364641,-0.19533028454892726
9.176795580110499,-0.290947680536113
9.210165745856354,-0.36452827432491464
9.24353591160221,-0.39709955770770583
9.276906077348068,-0.3841722860354005
9.310276243093924,-0.3363666922889982
9.34364640883978,-0.2724377791371219
9.377016574585635,-0.2086674901009083
9.410386740331493,-0.15039695282253485
9.443756906077349,-0.09020994657351843
9.477127071823205,-0.013650281285258256
9.510497237569062,0.09075672962666209
9.543867403314918,0.22286191814683104
9.577237569060774,0.3687512183732354
9.610607734806631,0.5068050335665409
9.643977900552487,0.6190401468298042
9.677348066298343,0.7014162652469176
9.710718232044199,0.7665692921936726
9.744088397790057,0.8358864838695093
9.777458563535912,0.923593564582273
9.810828729281768,1.0207743091176298
9.844198895027626,1.0889528086266738
9.877569060773482,1.0693925502906816
9.910939226519337,0.9066190590260287
9.944309392265193,0.5765205872561576
9.97767955801105,0.10534791855322245
10.011049723756907,-0.4310986492946518
10.044419889502763,-0.9297680389189459
10.07779005524862,-1.2953020115286358
10.111160220994476,-1.4724830401854259
10.144530386740332,-1.4623114843112326
10.17790055248619,-1.3157492848261796
10.211270718232045,-1.109344612685793
10.244640883977901,-0.9143104972134105
10.278011049723757,-0.7721153055730542
10.311381215469615,-0.685381045603848
10.34475138121547,-0.6255318557345327
10.378121546961326,-0.551713318041929
10.411491712707184,-0.4317695768100157
10.44486187845304,-0.2565530226079866
10.478232044198895,-0.04274904472483698
10.511602209944753,0.17532790843330243
10.544972375690609,0.36019460478023113
10.578342541436465,0.4853879844982774
10.61171270718232,0.5439621409904329
10.645082872928178,0.5489063744912963
10.678453038674034,0.5264946765249865
10.71182320441989,0.5059341123374874
10.745193370165747,0.5093204466317454
10.778563535911603,0.5450138986419513
10.811933701657459,0.6058619751471784
10.845303867403315,0.6720473665860713
10.878674033149172,0.717243013749582
10.912044198895028,0.7162943533964464
10.945414364640884,0.6526037613076119
10.978784530386742,0.5235165355941519
11.012154696132598,0.34224836308480006
11.045524861878453,0.13543296805828492
11.078895027624311,-0.06358124370144237
11.112265193370167,-0.22408091715556663
11.145635359116023,-0.32703556432392467
11.179005524861878,-0.3704927404092137
11.212375690607736,-0.36902923122982456
11.245745856353592,-0.34725614729660254
11.279116022099448,-0.3299073830246356
11.312486187845305,-0.33257044193232915
11.345856353591161,-0.3568309315120609
11.379226519337017,-0.39157289688480684
11.412596685082875,-0.4193614770798494
11.44596685082873,-0.42459695742354037
11.479337016574586,-0.3995622315087745
11.512707182320442,-0.34584989344274053
11.5460773480663,-0.2712227846040481
11.579447513812156,-0.18436084821287144
11.612817679558011,-0.09087525717309067
11.646187845303869,0.007077349408765388
11.679558011049725,0.10766181847886468
11.71292817679558,0.20515855899358124
11.746298342541436,0.28801260934418815
11.779668508287294,0.34124829036111387
11.81303867403315,0.3526631533529278
11.846408839779006,0.3196226694254424
11.879779005524863,0.2524402619092185
11.91314917127072,0.17190883884262223
11.946519337016575,0.10170995487540344
11.979889502762433,0.059288694675302005
12.013259668508288,0.04963411438304656
12.046629834254144,0.06479380080210591
12.08,0.08890353063486742
12.113370165745858,0.10579960530176856
12.146740331491714,0.10531914465841805
12.18011049723757,0.08550955190349482
12.213480662983427,0.05037192945222755
12.246850828729283,0.005101094606993572
12.280220994475139,-0.04811122390821503
12.313591160220996,-0.11120903343956685
12.346961325966852,-0.18765400762799914
12.380331491712708,-0.27745041290503053
12.413701657458564,-0.37252726456096846
12.447071823204421,-0.4551640667862977
12.480441988950277,-0.500847011093126
12.513812154696133,-0.48501817236142275
12.54718232044199,-0.39150520855298493
12.580552486187846,-0.2196806174332881
12.613922651933702,0.012192643397586429
12.64729281767956,0.2687208158470225
12.680662983425416,0.5040287264807329
12.714033149171271,0.671843735920134
12.747403314917127,0.7367882530726347
12.780773480662985,0.6842528572139301
12.81414364640884,0.5260870585261209
12.847513812154697,0.2996804388111907
12.880883977900554,0.05927052939984322
12.91425414364641,-0.1392793713322937
12.947624309392266,-0.25601367158603056
12.980994475138122,-0.2803753986866161
13.01436464088398,-0.23458012446705964
13.047734806629835,-0.16417872410565207
13.081104972375691,-0.11862242732398294
13.114475138121549,-0.12976239905566045
13.147845303867404,-0.19805998997119453
13.18121546961326,-0.2933082870849816
13.214585635359118,-0.36987346160491236
13.247955801104974,-0.38918214798845896
13.28132596685083,-0.33833077030842135
13.314696132596685,-0.23552704395581064
13.348066298342543,-0.11978821172036264
13.381436464088399,-0.03042665021875734
13.414806629834255,0.01291927671182214
13.448176795580112,0.019352690598515878
13.481546961325968,0.020341440673270764
13.514917127071824,0.05152321936145322
13.548287292817681,0.13253624121478744
13.581657458563537,0.2556834556810397
13.615027624309393,0.3894132207454589
13.648397790055249,0.49454844061180203
13.681767955801106,0.5442627030327841
13.715138121546962,0.5367922240371017
13.748508287292818,0.4939584341529624
13.781878453038676,0.4465673540630968
13.815248618784532,0.4152027462502042
13.848618784530387,0.3975727479235684
13.881988950276245,0.3697864068977373
13.9153591160221,0.3008339630050805
13.948729281767957,0.17185787726132193
13.982099447513813,-0.010898695209564055
14.01546961325967,-0.21672856009287977
14.048839779005526,-0.4039981913260266
14.082209944751382,-0.5387462748839191
14.11558011049724,-0.6082957805597581
14.148950276243095,-0.6234449362037272
14.182320441988951,-0.6095556907173926
14.215690607734807,-0.5925462524729285
14.249060773480664,-0.5874134309764706
14.28243093922652,-0.594245243354172
14.315801104972376,-0.6019472369771044
14.349171270718234,-0.5960207452759816
14.38254143646409,-0.5655649556291635
14.415911602209945,-0.5062553715330411
14.449281767955803,-0.4189689712068731
14.482651933701659,-0.30619183897097174
14.516022099447515,-0.16917349298213757
14.54939226519337,-0.00784614227038026
14.582762430939228,0.17642888910953763
14.616132596685084,0.37703932694197445
14.64950276243094,0.5797106049762585
14.682872928176797,0.7633537455188731
14.716243093922653,0.9044385102146977
14.749613259668509,0.983464689289536
14.782983425414367,0.991074776239034
14.816353591160222,0.9313648201785543
14.849723756906078,0.8209325110069082
14.883093922651934,0.6837549704853179
14.916464088397792,0.5435631368189372
14.949834254143648,0.4164161938185984
14.983204419889503,0.30625446452645577
15.016574585635361,0.20519942458355045
15.049944751381217,0.09857498507167277
15.083314917127073,-0.027275019454873102
15.116685082872928,-0.17750237509859176
15.150055248618786,-0.34468737491197293
15.183425414364642,-0.5099377476304853
15.216795580110498,-0.6487867227322641
15.250165745856355,-0.7395079928776277
15.283535911602211,-0.7704521192716554
15.316906077348067,-0.7434939214612375
15.350276243093925,-0.6724437807302871
15.38364640883978,-0.577445408613219
15.417016574585636,-0.47791785720837404
15.450386740331492,-0.38687848195569524
15.48375690607735,-0.30856780393052013
15.517127071823205,-0.23974914036725564
15.550497237569061,-0.1735606447824632
15.583867403314919,-0.10389727771883976
15.617237569060775,-0.02830072278552741
15.65060773480663,0.05175317093451414
15.683977900552488,0.13282266267491005
15.717348066298344,0.21208432466020966
15.7507182320442,0.2885283429799103
15.784088397790056,0.3616723233021514
15.817458563535913,0.42848673035150253
15.85082872928177,0.4808193491200349
15.884198895027625,0.5058559007521458
15.917569060773483,0.4905965030786656
15.950939226519338,0.42868038052118845
15.984309392265194,0.32580748366592316
16.01767955801105,0.20006896634672797
16.051049723756908,0.07604349777498165
16.084419889502765,-0.024820224894872112
16.11779005524862,-0.09253038568637252
16.151160220994477,-0.130985921896759
16.18453038674033,-0.15312885627858197
16.21790055248619,-0.17160171922084594
16.251270718232046,-0.19036101525376353
16.2846408839779,-0.20225527567674245
16.318011049723758,-0.19422058055111047
16.351381215469615,-0.15732145999185526
16.38475138121547,-0.09582647104169292
16.418121546961327,-0.029585575048696987
16.451491712707185,0.012748481292928396
16.48486187845304,0.0072542832911352715
16.518232044198896,-0.051326905514565965
16.551602209944754,-0.14257607402945816
16.584972375690608,-0.22489817712569898
16.618342541436466,-0.25089192567872054
16.651712707182323,-0.18758562538581658
16.685082872928177,-0.03267821617245624
16.718453038674035,0.1809211223233418
16.751823204419892,0.395122443020143
16.785193370165747,0.5476849570354994
16.818563535911604,0.5955791346849053
16.851933701657458,0.5306935851926949
16.885303867403316,0.3811370849913939
16.918674033149173,0.19781499564984165
16.952044198895027,0.03260251081341536
16.985414364640885,-0.08189680004600168
17.018784530386743,-0.14212106843451117
17.052154696132597,-0.16926359012202188
17.085524861878454,-0.1941725946971349
17.118895027624312,-0.2396299546395236
17.152265193370166,-0.3088810196619483
17.185635359116024,-0.3855308161102371
17.21900552486188,-0.4438264013937953
17.252375690607735,-0.4631215644727764
17.285745856353593,-0.43858420945702997
17.31911602209945,-0.382662596441266
