Time (s),Filtered Signal
0.0,0.02977808803622884
0.03337000366703337,0.2555692716728609
0.06674000733406674,0.4326814094617261
0.1001100110011001,0.5327819526775622
0.13348001466813347,0.5584341077301503
0.16685001833516683,0.539694977655714
0.2002200220022002,0.5180775589462951
0.2335900256692336,0.525526104551917
0.26696002933626695,0.5685864140317007
0.3003300330033003,0.6255120208970752
0.33370003667033366,0.6575715218348187
0.36707004033736707,0.628552440268385
0.4004400440044004,0.5223705546559431
0.4338100476714338,0.3501262312327049
0.4671800513384672,0.14399357074395247
0.5005500550055005,-0.05767674774467397
0.5339200586725339,-0.2257544034743684
0.5672900623395672,-0.3489705401254691
0.6006600660066006,-0.43321257915356803
0.634030069673634,-0.49392888372495874
0.6674000733406673,-0.5466502331366191
0.7007700770077008,-0.5999318463123141
0.7341400806747341,-0.6524663507031925
0.7675100843417675,-0.6938473117858744
0.8008800880088008,-0.707695789231183
0.8342500916758342,-0.6762880759691482
0.8676200953428675,-0.5862557246953759
0.9009900990099009,-0.43451457723361636
0.9343601026769344,-0.2325511231541404
0.9677301063439677,-0.006654911956240822
1.001100110011001,0.20735895960198114
1.0344701136780343,0.37398954990025945
1.0678401173450678,0.46893734170500917
1.1012101210121013,0.48650627331329244
1.1345801246791345,0.44038418205355023
1.167950128346168,0.3577616416108738
1.2013201320132012,0.2697118661384358
1.2346901356802347,0.2019441772475512
1.268060139347268,0.16908502751524015
1.3014301430143014,0.17345063804079183
1.3348001466813346,0.20724384720064604
1.368170150348368,0.2562183393912726
1.4015401540154016,0.30327350913185414
1.4349101576824348,0.33158406398528595
1.4682801613494683,0.32775279728556633
1.5016501650165015,0.2853300176477456
1.535020168683535,0.2079013634258703
1.5683901723505682,0.10978069325954515
1.6017601760176017,0.012436939854589874
1.6351301796846351,-0.0633340326562752
1.6685001833516684,-0.10666565604650836
1.7018701870187019,-0.12259874879506476
1.735240190685735,-0.13077918043280298
1.7686101943527686,-0.15630637681642065
1.8019801980198018,-0.2165990731517394
1.8353502016868353,-0.31090455787270127
1.8687202053538687,-0.41825249207734877
1.902090209020902,-0.5054534278218287
1.9354602126879354,-0.5414824526493474
1.9688302163549687,-0.5112614589616795
2.002200220022002,-0.42225508044902826
2.0355702236890356,-0.30101092751806463
2.0689402273560686,-0.18162342630191033
2.102310231023102,-0.09156462151507384
2.1356802346901356,-0.04093716100483475
2.169050238357169,-0.01912593957462508
2.2024202420242025,0.0005143764113657819
2.2357902456912355,0.050165327215905095
2.269160249358269,0.15484594847760774
2.3025302530253025,0.32112889363477737
2.335900256692336,0.5303928323526501
2.369270260359369,0.7392322158725451
2.4026402640264024,0.8886975122957462
2.436010267693436,0.9217278762608252
2.4693802713604693,0.8043746304703167
2.502750275027503,0.5428132278954922
2.536120278694536,0.18742243140646356
2.5694902823615693,-0.18074888511358717
2.6028602860286028,-0.47786702801748604
2.636230289695636,-0.6482987102529149
2.6696002933626692,-0.6842604650689299
2.7029702970297027,-0.6240807146306234
2.736340300696736,-0.5294405068548541
2.7697103043637696,-0.452977663183391
2.803080308030803,-0.4129514761708647
2.836450311697836,-0.38795282446811324
2.8698203153648696,-0.3337819906559445
2.903190319031903,-0.21269356554001226
2.9365603226989365,-0.018918450258750805
2.96993032636597,0.21296375113375746
3.003300330033003,0.42052921512854596
3.0366703337000365,0.539681033188907
3.07004033736707,0.5311566472230652
3.1034103410341034,0.39548611531083777
3.1367803447011364,0.1716671597745055
3.17015034836817,-0.07713808882546279
3.2035203520352034,-0.28310927105923606
3.236890355702237,-0.3912092773051731
3.2702603593692703,-0.37084155539689284
3.3036303630363033,-0.22132849880277428
3.3370003667033368,0.02807446244284261
3.3703703703703702,0.3235720770460657
3.4037403740374037,0.5980364327551662
3.4371103777044367,0.7871981064141937
3.47048038137147,0.8473209765830972
3.5038503850385037,0.7685623372196364
3.537220388705537,0.5782552028044744
3.5705903923725706,0.3314268122339548
3.6039603960396036,0.0909311342487444
3.637330399706637,-0.09564793482275286
3.6707004033736705,-0.21302236188320867
3.704070407040704,-0.28166468181440774
3.7374404107077375,-0.3456092251962165
3.7708104143747705,-0.44936633909355894
3.804180418041804,-0.6140141629513464
3.8375504217088374,-0.8234924819939704
3.870920425375871,-1.0278467072444903
3.904290429042904,-1.1623741334988626
3.9376604327099374,-1.1740599832974936
3.971030436376971,-1.043235883545316
4.004400440044004,-0.7908645868976867
4.037770443711038,-0.46891792923769904
4.071140447378071,-0.13924199913210558
4.104510451045105,0.14889997471841668
4.137880454712137,0.3728488728577898
4.171250458379171,0.5373079279751009
4.204620462046204,0.6635712833350225
4.237990465713238,0.7738498259704022
4.271360469380271,0.8784929998461136
4.304730473047305,0.9713436976552057
4.338100476714338,1.0339194031206729
4.3714704803813715,1.0450324999012321
4.404840484048405,0.9906979931974739
4.438210487715438,0.8701133842088956
4.471580491382471,0.6960647147683283
4.5049504950495045,0.4906612054641327
4.538320498716538,0.2786930271768942
4.571690502383571,0.08105608898199718
4.605060506050605,-0.08981074593484663
4.638430509717638,-0.23120272810435208
4.671800513384672,-0.3477666265308237
4.705170517051705,-0.44641941385161255
4.738540520718738,-0.5309776084364854
4.771910524385771,-0.5994792855958587
4.805280528052805,-0.6459746001141563
4.838650531719838,-0.6657960751414662
4.872020535386872,-0.6606244808859006
4.905390539053905,-0.6391248558433542
4.938760542720939,-0.6114829639805843
4.972130546387972,-0.5806004629658713
5.005500550055006,-0.5360850618501933
5.038870553722038,-0.45674920645490164
5.072240557389072,-0.3226225432529603
5.105610561056105,-0.13102180531342264
5.138980564723139,0.09283024265127972
5.172350568390172,0.2987192307901589
5.2057205720572055,0.4292444589415223
5.239090575724239,0.4453561601629671
5.272460579391272,0.34702096723881837
5.305830583058306,0.17749372538421587
5.3392005867253385,0.007289373103338257
5.372570590392372,-0.09561219341219482
5.405940594059405,-0.09516608986653059
5.439310597726439,-0.001733235849993561
5.472680601393472,0.13548000869823834
5.506050605060506,0.2537904122039257
5.539420608727539,0.30700356102445103
5.572790612394573,0.2850345999623901
5.606160616061606,0.21448034563632007
5.63953061972864,0.14179944934932798
5.672900623395672,0.10926754552428297
5.706270627062706,0.13609804955417815
5.739640630729739,0.2126593153915368
5.773010634396773,0.3080068809230901
5.806380638063806,0.3846896371165995
5.83975064173084,0.4129819710698154
5.873120645397873,0.3792058121537361
5.9064906490649065,0.28710671845088936
5.93986065273194,0.15443945401652306
5.9732306563989725,0.0075594437466535705
6.006600660066006,-0.12451242021184322
6.0399706637330395,-0.21657424049639498
6.073340667400073,-0.25437147837231117
6.106710671067106,-0.24091650515274843
6.14008067473414,-0.19871395099427883
6.173450678401173,-0.1644511692996703
6.206820682068207,-0.17538180065333558
6.24019068573524,-0.2513561134013974
6.273560689402273,-0.38062102305924017
6.306930693069306,-0.5180822925138431
6.34030069673634,-0.6002326624009252
6.373670700403373,-0.5728318349058408
6.407040704070407,-0.41962713807021407
6.44041070773744,-0.17743649955747232
6.473780711404474,0.07265849491950306
6.507150715071507,0.23753354336857202
6.540520718738541,0.25487493951031515
6.573890722405573,0.12640398622683977
6.607260726072607,-0.0765984256571585
6.64063072973964,-0.24141765835269202
6.6740007334066735,-0.2648572969185057
6.707370737073707,-0.10339402506886804
6.7407407407407405,0.20247933715714164
6.774110744407774,0.5429693940294206
6.807480748074807,0.7866285677411035
6.840850751741841,0.8380690846085667
6.8742207554088735,0.6779953404898829
6.907590759075907,0.36743064491911387
6.94096076274294,0.01656467628380608
6.974330766409974,-0.26429254716983797
7.007700770077007,-0.4074952044771298
7.041070773744041,-0.40648844497661646
7.074440777411074,-0.3057578019789029
7.107810781078108,-0.17184507966285614
7.141180784745141,-0.061718010107825606
7.174550788412174,-0.0027228349420804617
7.207920792079207,0.009773617911531097
7.241290795746241,0.00013994103398733612
7.274660799413274,-0.005435167494621204
7.308030803080308,0.006948156909551957
7.341400806747341,0.03424556574203831
7.3747708104143745,0.0614470059635916
7.408140814081408,0.07208670906846368
7.4415108177484415,0.0585907276490296
7.474880821415475,0.0277530482566921
7.5082508250825075,-0.0008777835900107079
7.541620828749541,-0.003067246335654324
7.5749908324165744,0.03863588678700447
7.608360836083608,0.12454086107093108
7.641730839750641,0.23312620043032573
7.675100843417675,0.32496108725822026
7.708470847084708,0.3551334597760045
7.741840850751742,0.2905333062630664
7.775210854418775,0.12566624727674922
7.808580858085808,-0.10982960630108643
7.841950861752841,-0.3564970199648884
7.875320865419875,-0.5430861950343165
7.908690869086908,-0.611728010028443
7.942060872753942,-0.5407299791057596
7.975430876420975,-0.35514367447577544
8.008800880088009,-0.11938835285016411
8.042170883755041,0.0864461706904105
8.075540887422076,0.19756570477331947
8.108910891089108,0.1897189492750117
8.142280894756142,0.08751445969997033
8.175650898423175,-0.04830983242171112
8.20902090209021,-0.14936700556949353
8.242390905757242,-0.17113332777164736
8.275760909424275,-0.11298540372093352
8.309130913091309,-0.01723393962931857
8.342500916758341,0.05272720550277073
8.375870920425376,0.04516989541434455
8.409240924092408,-0.051745371249405356
8.442610927759443,-0.20008335443746836
8.475980931426475,-0.3263009731741951
8.50935093509351,-0.35404609032604634
8.542720938760542,-0.24089844191353524
8.576090942427575,-0.0014326007687870315
8.60946094609461,0.29556424846498064
8.642830949761642,0.5558410823531142
8.676200953428676,0.7013758974832687
8.709570957095709,0.7046523850037983
8.742940960762743,0.5981810218297667
8.776310964429776,0.454418607504438
8.80968096809681,0.346754569839552
8.843050971763843,0.3121761081715764
8.876420975430875,0.3349452670797118
8.90979097909791,0.35888657847119
8.943160982764942,0.3204435188140745
8.976530986431976,0.18416028805486803
9.009900990099009,-0.0378707073983566
9.043270993766043,-0.2914559493405038
9.076640997433076,-0.5061129020836788
9.11001100110011,-0.6269308419346037
9.143381004767143,-0.6366518024863868
9.176751008434175,-0.5586837184447643
9.21012101210121,-0.4420099477330246
9.243491015768242,-0.3373110261882383
9.276861019435277,-0.2762547339127091
9.31023102310231,-0.2624729826111095
9.343601026769344,-0.2759325482224107
9.376971030436376,-0.286140874344231
9.41034103410341,-0.26685539913015494
9.443711037770443,-0.20626655737670835
9.477081041437476,-0.1102697559544522
9.51045104510451,0.0002231257694448045
9.543821048771543,0.0957071331906193
9.577191052438577,0.146615179130932
9.61056105610561,0.13313655917244785
9.643931059772644,0.054949189740700476
9.677301063439677,-0.06242008352550302
9.710671067106711,-0.1693404667070718
9.744041070773743,-0.20530108940200542
9.777411074440776,-0.12201187571231195
9.81078107810781,0.09177973071266622
9.844151081774843,0.39591023130274433
9.877521085441877,0.7048292859703923
9.91089108910891,0.9154148340290403
9.944261092775944,0.9469143232062208
9.977631096442977,0.7759353753214249
10.011001100110011,0.45011147667240453
10.044371103777044,0.07301810762894048
10.077741107444076,-0.23424332785015614
10.11111111111111,-0.3789652233935372
10.144481114778143,-0.33130239156076097
10.177851118445178,-0.1335841436637075
10.21122112211221,0.1183954764888019
10.244591125779245,0.31351738434827264
10.277961129446277,0.3670649343753107
10.311331133113312,0.24986620279243363
10.344701136780344,-0.00510237979982925
10.378071140447377,-0.31896328317333833
10.411441144114411,-0.597645490297385
10.444811147781444,-0.7644045927445726
10.478181151448478,-0.782766129754878
10.51155115511551,-0.6637087318398082
10.544921158782545,-0.4571036644666037
10.578291162449577,-0.2321138390163877
10.611661166116612,-0.053494709671030136
10.645031169783644,0.03905907594265754
10.678401173450677,0.042543223525809776
10.711771177117711,-0.010366831810457963
10.745141180784744,-0.06495273744172832
10.778511184451778,-0.06634285111244323
10.81188118811881,0.01824562631641038
10.845251191785845,0.18558497440881633
10.878621195452878,0.39657316071050064
10.911991199119912,0.5904642877967203
10.945361202786945,0.7073245342372098
10.978731206453979,0.7095415742589678
11.012101210121012,0.5940069897849277
11.045471213788044,0.3909151798120844
11.078841217455079,0.1508050917629184
11.112211221122111,-0.07405216147093438
11.145581224789145,-0.24628244148390235
11.178951228456178,-0.3521035821733821
11.212321232123212,-0.39996860786803196
11.245691235790245,-0.4112280712938249
11.27906123945728,-0.40773336973131324
11.312431243124312,-0.40187555833386335
11.345801246791344,-0.3929079763484026
11.379171250458379,-0.37040202161622043
11.412541254125411,-0.3225669746248124
11.445911257792446,-0.24510517034076687
11.479281261459478,-0.14608460648848506
11.512651265126513,-0.044160224511384336
11.546021268793545,0.03932260441192915
11.57939127246058,0.09067575251908808
11.612761276127612,0.11149266965046889
11.646131279794645,0.11936118495336293
11.67950128346168,0.14062513330520832
11.712871287128712,0.19803492495852829
11.746241290795746,0.29884870982252026
11.779611294462779,0.4290602914156849
11.812981298129813,0.5567232298582496
11.846351301796846,0.6430853177963746
11.87972130546388,0.6566201571001888
11.913091309130913,0.5839195515825014
11.946461312797945,0.433277080996659
11.97983131646498,0.23048815038349366
12.013201320132012,0.00984436394485336
12.046571323799046,-0.19523678767118022
12.079941327466079,-0.35849872738171484
12.113311331133113,-0.46310338920917216
12.146681334800146,-0.5012676135951191
12.18005133846718,-0.4735554260053181
12.213421342134213,-0.3892058597169796
12.246791345801245,-0.2670382247605134
12.28016134946828,-0.13505299232389162
12.313531353135312,-0.026860938029510787
12.346901356802347,0.02542394784842055
12.38027136046938,0.00013835359746376823
12.413641364136414,-0.10616199244498084
12.447011367803446,-0.27506396445373393
12.48038137147048,-0.4684304041301368
12.513751375137513,-0.6362224478516448
12.547121378804546,-0.7284404070072459
12.58049138247158,-0.7085089663994762
12.613861386138613,-0.5646144559537722
12.647231389805647,-0.3151715483649537
12.68060139347268,-0.005406462215945269
12.713971397139714,0.30544624053359787
12.747341400806746,0.5629887694712
12.78071140447378,0.7356369228566354
12.814081408140813,0.8237547793725513
12.847451411807846,0.8548392974404357
12.88082141547488,0.8658354905234589
12.914191419141913,0.8804040208779125
12.947561422808947,0.8926065581668696
12.98093142647598,0.8665199881833529
13.014301430143014,0.7539696935475578
13.047671433810047,0.5230662822598439
13.081041437477081,0.18335768743453962
13.114411441144114,-0.2067160074813221
13.147781444811146,-0.5567191650491101
13.18115144847818,-0.7798531418587229
13.214521452145213,-0.8310783804134709
13.247891455812248,-0.7285907111659711
13.28126145947928,-0.5466970190536851
13.314631463146315,-0.3822015986754538
13.348001466813347,-0.3101072557968104
13.381371470480381,-0.35032897415858993
13.414741474147414,-0.4617843218892154
13.448111477814447,-0.5662727312832871
13.481481481481481,-0.5893441619251633
13.514851485148514,-0.49700859490597216
13.548221488815548,-0.310032040573143
13.58159149248258,-0.08989812845532627
13.614961496149615,0.09460987941317003
13.648331499816647,0.20182142112207874
13.681701503483682,0.23482765338189304
13.715071507150714,0.23428177462146763
13.748441510817747,0.25141627643991926
13.781811514484781,0.31619768020529965
13.815181518151814,0.4175470699648241
13.848551521818848,0.5061993146192092
13.88192152548588,0.5193518694994875
13.915291529152915,0.41519458093724876
13.948661532819948,0.1999604503822141
13.982031536486982,-0.06689281926821318
14.015401540154015,-0.2934465770155308
14.048771543821047,-0.3932820149776473
14.082141547488082,-0.32302981188030033
14.115511551155114,-0.10174671018382628
14.148881554822148,0.19685736543287072
14.182251558489181,0.4751748053771898
14.215621562156215,0.6506098177575711
14.248991565823248,0.6848861497536217
14.282361569490282,0.5917596196279182
14.315731573157315,0.4221414802523773
14.349101576824348,0.23617949306903258
14.382471580491382,0.07692740804310094
14.415841584158414,-0.042191761348039494
14.449211587825449,-0.13219987636531558
14.482581591492481,-0.21137741835699012
14.515951595159516,-0.2877406854887021
14.549321598826548,-0.3520133302274593
14.582691602493583,-0.38496533080686673
14.616061606160615,-0.3739748816119883
14.649431609827648,-0.3278093750727434
14.682801613494682,-0.2793245914313179
14.716171617161715,-0.2726768767596935
14.749541620828749,-0.34077534340140014
14.782911624495782,-0.48479244734185944
14.816281628162816,-0.6670758506512404
14.849651631829849,-0.8220483119362723
14.883021635496883,-0.8805128793793944
14.916391639163916,-0.7962759934095271
14.94976164283095,-0.5634616563269303
14.983131646497982,-0.21808785737533504
15.016501650165015,0.1748954337412328
15.04987165383205,0.5420496467413208
15.083241657499082,0.8208545435727551
15.116611661166116,0.9722895576776538
15.149981664833149,0.9852543832274014
15.183351668500183,0.874814382264232
15.216721672167216,0.6770090334702483
15.25009167583425,0.4417323160844092
15.283461679501283,0.22375181049544035
15.316831683168315,0.07176569402708381
15.35020168683535,0.016719697164550924
15.383571690502382,0.06240707344869791
15.416941694169417,0.1822312733767245
15.45031169783645,0.3249971366445963
15.483681701503484,0.4297459698141782
15.517051705170516,0.4459102078657328
15.55042170883755,0.35196744864571516
15.583791712504583,0.1649610247982446
15.617161716171616,-0.06423272152333981
15.65053171983865,-0.2695447892708256
15.683901723505683,-0.3956259305137295
15.717271727172717,-0.42039628040293797
15.75064173083975,-0.36428057541570935
15.784011734506784,-0.28164741518146674
15.817381738173816,-0.23776557006549218
15.85075174184085,-0.28094133922948306
15.884121745507883,-0.4213800226161053
15.917491749174916,-0.6250546891157073
15.95086175284195,-0.8243999865756735
15.984231756508983,-0.9412207664883792
16.017601760176017,-0.9134204820717068
16.05097176384305,-0.7167546051697258
16.084341767510082,-0.3749451231605779
16.117711771177117,0.04506784865362928
16.15108177484415,0.45190333672577804
16.184451778511182,0.7574009037997053
16.217821782178216,0.9043396826232515
16.25119178584525,0.8840542715404076
16.284561789512285,0.736463557072793
16.317931793179316,0.531736940628211
16.35130179684635,0.3410391519409292
16.384671800513384,0.209330194958477
16.41804180418042,0.14259932371614084
16.45141180784745,0.11484382310657609
16.484781811514484,0.08997314209916911
16.51815181518152,0.04607342947969578
16.55152181884855,-0.011500953822372657
16.584891822515583,-0.05522131449487082
16.618261826182618,-0.055204364686002885
16.651631829849652,-0.0017760372944923067
16.685001833516683,0.08287062789680663
16.718371837183717,0.1513926691652458
16.75174184085075,0.15340286440254017
16.785111844517782,0.06127759955401819
16.818481848184817,-0.11407886290687609
16.85185185185185,-0.32574896792223457
16.885221855518886,-0.5101015002032551
16.918591859185916,-0.6129212214206967
16.95196186285295,-0.6096762423921849
16.985331866519985,-0.5112733948062959
17.01870187018702,-0.3547449960561416
17.05207187385405,-0.18566803877395952
17.085441877521085,-0.04176765788663392
17.11881188118812,0.05572735094353372
17.15218188485515,0.10222160699287029
17.185551888522184,0.10529054117168508
17.21892189218922,0.08032069348072367
17.252291895856253,0.048191940842443125
17.285661899523284,0.03337651359271821
