Time (s),Filtered Signal
0.0,0.07400361061188697
0.03337004405286344,0.1596628594426736
0.06674008810572687,0.2096791509644001
0.10011013215859031,0.2018257700990428
0.13348017621145375,0.13403812699543086
0.16685022026431717,0.02573416871895959
0.20022026431718062,-0.08825844721372539
0.23359030837004408,-0.1693409290578006
0.2669603524229075,-0.18846156072247286
0.3003303964757709,-0.13636067430941592
0.33370044052863435,-0.026838423916777078
0.3670704845814978,0.10836670751527831
0.40044052863436125,0.23121651078693092
0.43381057268722467,0.31097249824701406
0.46718061674008815,0.33438451059822216
0.5005506607929515,0.3085789752010442
0.533920704845815,0.25586319857524514
0.5672907488986785,0.2029840151213775
0.6006607929515418,0.16949776514972448
0.6340308370044053,0.1600181622181734
0.6674008810572687,0.16327612184011903
0.7007709251101322,0.15798127267569612
0.7341409691629956,0.12265535699841683
0.767511013215859,0.045073651185471554
0.8008810572687225,-0.07268341242413703
0.834251101321586,-0.21549554114781072
0.8676211453744493,-0.3618535036729638
0.9009911894273128,-0.4925577500345498
0.9343612334801763,-0.5972299413629729
0.9677312775330397,-0.6754750750133842
1.001101321585903,-0.7322034503333835
1.0344713656387665,-0.7697294894833218
1.06784140969163,-0.7812555740589944
1.1012114537444935,-0.7500136938413627
1.134581497797357,-0.6555611574305893
1.1679515418502202,-0.48477660114553556
1.2013215859030837,-0.2421194534692425
1.2346916299559472,0.046465789754652924
1.2680616740088106,0.33867443220208115
1.3014317180616741,0.5881636658293797
1.3348017621145374,0.7587560187799264
1.3681718061674009,0.8346862330008686
1.4015418502202643,0.8235087214462925
1.4349118942731278,0.7518863953351966
1.4682819383259913,0.6569645786993972
1.5016519823788548,0.5763315071402088
1.535022026431718,0.5384300494658203
1.5683920704845815,0.5544025748274725
1.601762114537445,0.6127474243362357
1.6351321585903085,0.6792422301141068
1.668502202643172,0.7046288416375935
1.7018722466960352,0.6402740428752202
1.7352422907488987,0.4578880542939559
1.7686123348017622,0.1656369359410204
1.8019823788546256,-0.18768483737834396
1.8353524229074891,-0.5249751966608394
1.8687224669603526,-0.7670265429874303
1.9020925110132159,-0.8627457523796107
1.9354625550660793,-0.8101742180157525
1.9688325991189428,-0.6580591961168674
2.002202643171806,-0.4861978280440698
2.0355726872246698,-0.3727215645597386
2.068942731277533,-0.3627514445024613
2.1023127753303967,-0.4521031303014566
2.13568281938326,-0.5924166698849016
2.1690528634361232,-0.7141447400721684
2.202422907488987,-0.7562666653700832
2.23579295154185,-0.6897465134420683
2.269162995594714,-0.5257986857715398
2.302533039647577,-0.30737634202699643
2.3359030837004404,-0.08931048416713792
2.369273127753304,0.08365929069002924
2.4026431718061674,0.1921167876067201
2.436013215859031,0.2453710959775808
2.4693832599118943,0.27308364096659643
2.5027533039647576,0.309626821320909
2.5361233480176213,0.37796966722884623
2.5694933920704845,0.4795062983923131
2.6028634361233483,0.5935940762859953
2.6362334801762115,0.686687839367583
2.6696035242290748,0.7271879176352803
2.7029735682819385,0.6997771329974865
2.7363436123348017,0.6130437147058171
2.7697136563876654,0.4967730306178638
2.8030837004405287,0.3896399710646586
2.8364537444933924,0.32242076871680136
2.8698237885462556,0.30422318863031794
2.903193832599119,0.31823274557531567
2.9365638766519826,0.3292536599326326
2.969933920704846,0.2997480378441755
3.0033039647577096,0.20690054106977931
3.036674008810573,0.05267053456765132
3.070044052863436,-0.13775973614601947
3.1034140969162998,-0.32799056561028256
3.136784140969163,-0.4866255289989575
3.1701541850220267,-0.5996367762930059
3.20352422907489,-0.673094453286893
3.2368942731277532,-0.7255906570186388
3.270264317180617,-0.7748908492074881
3.30363436123348,-0.8259818437912867
3.337004405286344,-0.8665657340407853
3.370374449339207,-0.8719799967136755
3.4037444933920704,-0.8167462360967916
3.437114537444934,-0.6868865014261503
3.4704845814977974,-0.4871675589890155
3.503854625550661,-0.24025886732988633
3.5372246696035243,0.021224340778635484
3.5705947136563876,0.26571380737230166
3.6039647577092513,0.4717656338066443
3.6373348017621145,0.6317315882906203
3.6707048458149782,0.7493266915516107
3.7040748898678415,0.8330954901276942
3.737444933920705,0.8892512165279494
3.7708149779735685,0.9171803817664572
3.8041850220264317,0.9093875607025608
3.8375550660792954,0.8555885547623024
3.8709251101321587,0.7489039128397326
3.9042951541850224,0.5912746392565531
3.9376651982378856,0.3955648907441811
3.971035242290749,0.18320832522814648
4.004405286343612,-0.021791890226468824
4.037775330396476,-0.19998057689733664
4.0711453744493395,-0.34152631910777914
4.104515418502203,-0.447008795742075
4.137885462555066,-0.5237920861273255
4.171255506607929,-0.580109195355366
4.2046255506607935,-0.620107106379757
4.237995594713657,-0.6424249966811156
4.27136563876652,-0.6427524935032184
4.304735682819383,-0.6184433355271796
4.3381057268722465,-0.5720132425228074
4.371475770925111,-0.5109838302458207
4.404845814977974,-0.44374993840061844
4.438215859030837,-0.3737381567675748
4.4715859030837,-0.29559998003740146
4.504955947136564,-0.19656101523490793
4.538325991189428,-0.06342273918595737
4.571696035242291,0.1076656943961802
4.605066079295154,0.3038004871850084
4.638436123348018,0.4950178699740456
4.671806167400881,0.6426139775729225
4.705176211453745,0.7131254719138295
4.738546255506608,0.6917476167618092
4.7719162995594715,0.5888894572243597
4.805286343612335,0.43679126517953365
4.838656387665198,0.27785012198091524
4.872026431718062,0.14995073129427616
4.905396475770925,0.07492991275400897
4.938766519823789,0.054265147968759024
4.972136563876652,0.0725629307353181
5.005506607929515,0.10625571214453358
5.038876651982379,0.13336379094496514
5.072246696035243,0.14052139620572102
5.105616740088106,0.12516776214747316
5.138986784140969,0.09296984109551772
5.172356828193832,0.05233973167692576
5.2057268722466965,0.008792559050443035
5.23909691629956,-0.03832387481212135
5.272466960352423,-0.09534136466607074
5.305837004405286,-0.17027086920549508
5.3392070484581495,-0.26706552613770557
5.372577092511014,-0.38078907846914894
5.405947136563877,-0.49615659915529264
5.43931718061674,-0.5906586258734248
5.4726872246696034,-0.6415363692771363
5.506057268722468,-0.6340218241617259
5.539427312775331,-0.567377236398554
5.572797356828194,-0.45591388484408923
5.606167400881057,-0.32419101859249944
5.639537444933921,-0.1981257736954372
5.672907488986785,-0.09560654978625646
5.706277533039648,-0.02051026199633993
5.739647577092511,0.037380353910498675
5.7730176211453745,0.09656664664912178
5.806387665198238,0.1746568944844446
5.839757709251102,0.27978368153638733
5.873127753303965,0.40627201440826666
5.9064977973568284,0.536267716213486
5.939867841409692,0.6463376716918405
5.973237885462555,0.7159078242163982
6.006607929515419,0.7338488909154385
6.039977973568282,0.7007312299461215
6.073348017621146,0.6264833762719517
6.106718061674009,0.5252024107463297
6.140088105726872,0.4097686507325136
6.173458149779736,0.28851763668359226
6.2068281938325995,0.16494727355486757
6.240198237885463,0.039956883092341904
6.273568281938326,-0.08497333829456913
6.306938325991189,-0.2055523876088412
6.3403083700440535,-0.3146808313999752
6.373678414096917,-0.4047165908300099
6.40704845814978,-0.4707545743288396
6.440418502202643,-0.5130576778667125
6.4737885462555065,-0.5371924528420822
6.507158590308371,-0.5516345463756595
6.540528634361234,-0.563914923372933
6.573898678414097,-0.5770507073210631
6.60726872246696,-0.5877483925275914
6.640638766519824,-0.5869644161839563
6.674008810572688,-0.5624596873346601
6.707378854625551,-0.5024585481449176
6.740748898678414,-0.39946974597355256
6.774118942731278,-0.2534716887148284
6.807488986784141,-0.07374227983714314
6.840859030837005,0.12137094622914048
6.874229074889868,0.30725685045415385
6.9075991189427315,0.4583642409680793
6.940969162995595,0.5550487117924945
6.974339207048458,0.5899651793062725
7.007709251101322,0.5714904884926401
7.041079295154185,0.5220557195151067
7.074449339207049,0.47082716932190516
7.107819383259912,0.4425929046197914
7.141189427312775,0.44702524662412774
7.174559471365639,0.47336256898135437
7.207929515418503,0.49400481720281264
7.241299559471366,0.47672312509776116
7.274669603524229,0.4007461614353179
7.308039647577092,0.26926868876834564
7.3414096916299565,0.11172332541129922
7.37477973568282,-0.02650011696301589
7.408149779735683,-0.10325165038948514
7.441519823788546,-0.09949540579978455
7.47488986784141,-0.03075103149385688
7.508259911894274,0.05562608317990237
7.541629955947137,0.09699713980552976
7.575,0.03954675632217428
7.608370044052863,-0.1395943812326397
7.641740088105728,-0.42104070858191184
7.675110132158591,-0.7471994023433866
7.708480176211454,-1.0401393162524009
7.741850220264317,-1.2263736811802823
7.775220264317181,-1.2592339523290168
7.808590308370045,-1.1310479014517563
7.841960352422908,-0.8719568821430678
7.875330396475771,-0.5375590293179912
7.9087004405286345,-0.19113831090916653
7.942070484581498,0.11316863019532578
7.975440528634362,0.3417274927208513
8.008810572687224,0.48540573846293533
8.042180616740088,0.5565821281949963
8.075550660792953,0.5809839023383276
8.108920704845815,0.5870419844510231
8.142290748898679,0.5958975209308719
8.175660792951541,0.6150258758098508
8.209030837004406,0.6374119218936031
8.24240088105727,0.6463832217562562
8.275770925110132,0.6241345258625576
8.309140969162996,0.5604921251310702
8.342511013215859,0.4582868656780964
8.375881057268723,0.33304381281440476
8.409251101321587,0.20709530388902686
8.44262114537445,0.10068703473870576
8.475991189427313,0.024045645580341748
8.509361233480176,-0.026020549840737178
8.54273127753304,-0.0635144679168844
8.576101321585904,-0.10598806751941527
8.609471365638766,-0.1661220013584447
8.64284140969163,-0.24603737785890178
8.676211453744493,-0.33673372123801687
8.709581497797357,-0.42251515945478224
8.742951541850221,-0.48802043893185465
8.776321585903084,-0.5245484768552641
8.809691629955948,-0.5330128732685441
8.84306167400881,-0.5225279727410947
8.876431718061674,-0.50545027088613
8.909801762114538,-0.4909703975949484
8.9431718061674,-0.47978581613134
8.976541850220265,-0.46202342993542295
9.009911894273127,-0.4195804596828987
9.043281938325991,-0.3325908797331433
9.076651982378856,-0.18809996529567027
9.110022026431718,0.012231419547482449
9.143392070484582,0.248804196671383
9.176762114537445,0.4873111693668351
9.210132158590309,0.6881588529834523
9.243502202643173,0.8188517724744762
9.276872246696035,0.8643212445914568
9.3102422907489,0.8306335229560332
9.343612334801762,0.7403436318148242
9.376982378854626,0.6217596101757449
9.41035242290749,0.49746241493080046
9.443722466960352,0.3777704444969774
9.477092511013216,0.2620461058092385
9.510462555066079,0.14624202701436598
9.543832599118943,0.03143261931753489
9.577202643171807,-0.07250763395471839
9.61057268722467,-0.15093521746625158
9.643942731277534,-0.19412890969584673
9.677312775330396,-0.20667157748049955
9.71068281938326,-0.210070299910415
9.744052863436124,-0.23560750260815067
9.777422907488987,-0.309946128423107
9.81079295154185,-0.4404827903171902
9.844162995594713,-0.6082221193193711
9.877533039647577,-0.7724524526218423
9.910903083700441,-0.8855756985993053
9.944273127753304,-0.9113144087314856
9.977643171806168,-0.8379661108544487
10.01101321585903,-0.6811256939654898
10.044383259911895,-0.4756444429125343
10.077753303964759,-0.2614992379745609
10.111123348017621,-0.07021780111790552
10.144493392070485,0.08298043832484985
10.177863436123348,0.199652058463308
10.211233480176212,0.2928043403589336
10.244603524229076,0.3789613259435205
10.277973568281938,0.4706156195544854
10.311343612334802,0.5709943863759117
10.344713656387665,0.6720902211673405
10.378083700440529,0.7563510739556539
10.411453744493393,0.8019426158414708
10.444823788546255,0.7905928619402883
10.47819383259912,0.7157046123949065
10.511563876651982,0.5874192308127221
10.544933920704846,0.4316759647246404
10.57830396475771,0.2824981423461659
10.611674008810573,0.17000265751920027
10.645044052863437,0.10921675191891406
10.678414096916299,0.09498224867434038
10.711784140969163,0.10556062913216034
10.745154185022027,0.11326511652883398
10.77852422907489,0.09685303731586786
10.811894273127754,0.0495452881262714
10.845264317180618,-0.02105912947640776
10.87863436123348,-0.1005227138927365
10.912004405286345,-0.17794689458343493
10.945374449339207,-0.2531869360554782
10.978744493392071,-0.33681335605331314
11.012114537444935,-0.4428113085380655
11.045484581497798,-0.5779959077657189
11.078854625550662,-0.7339088220385066
11.112224669603524,-0.8857340815816317
11.145594713656388,-0.9992987237203029
11.178964757709252,-1.0432990093351124
11.212334801762115,-1.0013720831865343
11.245704845814979,-0.8786174030945746
11.279074889867841,-0.6996136410075874
11.312444933920705,-0.49875479743875245
11.34581497797357,-0.30714180019814585
11.379185022026432,-0.141770968291823
11.412555066079296,-0.0016675970125323084
11.445925110132158,0.12760422487470308
11.479295154185023,0.26352157899957274
11.512665198237887,0.4155054332330416
11.546035242290749,0.5786429180355468
11.579405286343613,0.7352671403442739
11.612775330396476,0.8634216133721305
11.64614537444934,0.9477093822219331
11.679515418502204,0.9867969013095751
11.712885462555066,0.9935185799835791
11.74625550660793,0.9872490447057475
11.779625550660793,0.9821587129618907
11.812995594713657,0.9772563252913472
11.846365638766521,0.9536125143167322
11.879735682819383,0.8809612777186234
11.913105726872248,0.7313710545374845
11.94647577092511,0.4939822867314178
11.979845814977974,0.18381866631409519
12.013215859030838,-0.15991962899492723
12.0465859030837,-0.4858807503974555
12.079955947136565,-0.7478290598468252
12.113325991189427,-0.9195933840341615
12.146696035242291,-1.0013262937923006
12.180066079295155,-1.014940546072194
12.213436123348018,-0.9916297689117531
12.246806167400882,-0.9576584493125208
12.280176211453744,-0.9246512791786826
12.313546255506608,-0.8877769572598369
12.346916299559473,-0.831302543271587
12.380286343612335,-0.7380538238759479
12.413656387665199,-0.5984992837651973
12.447026431718061,-0.41625350601553257
12.480396475770926,-0.20865185743929607
12.51376651982379,-0.002627559540434696
12.547136563876652,0.17289226288651846
12.580506607929516,0.29612782748201205
12.613876651982379,0.3604076530306414
12.647246696035243,0.3777476945246644
12.680616740088107,0.3755315537069804
12.71398678414097,0.38619538566179074
12.747356828193833,0.4333297270473201
12.780726872246696,0.520302770319043
12.81409691629956,0.6273464558937859
12.847466960352424,0.719414660741735
12.880837004405286,0.7616146731700366
12.91420704845815,0.7347040481289372
12.947577092511013,0.6427311711021746
12.980947136563877,0.5089151942270499
13.014317180616741,0.36219700227432433
13.047687224669604,0.22197376137350552
13.081057268722468,0.08945182281751579
13.11442731277533,-0.04969468673372696
13.147797356828194,-0.2129518941310328
13.181167400881058,-0.4057949101059679
13.21453744493392,-0.6121461559690449
13.247907488986785,-0.7959093765387718
13.281277533039647,-0.9132644941143235
13.314647577092511,-0.9299524420798395
13.348017621145376,-0.8353849699074747
13.381387665198238,-0.6471196117188867
13.414757709251102,-0.40397133742616753
13.448127753303964,-0.1513245180312637
13.481497797356829,0.07446500717368222
13.514867841409693,0.2557260458825225
13.548237885462555,0.3935018766409177
13.58160792951542,0.4989654020135614
13.614977973568282,0.5812685345783486
13.648348017621146,0.6384136934952677
13.68171806167401,0.6560688716343167
13.715088105726872,0.6151508760529703
13.748458149779736,0.5044329143761004
13.781828193832599,0.3316316801080711
13.815198237885463,0.1268123179857708
13.848568281938327,-0.06460283950787434
13.88193832599119,-0.19702305325387473
13.915308370044054,-0.2418038255473103
13.948678414096916,-0.19872364062166495
13.98204845814978,-0.09645075869133982
14.015418502202644,0.018571232199494817
14.048788546255507,0.10012107421091072
14.08215859030837,0.11915455373715227
14.115528634361233,0.07228651410916798
14.148898678414097,-0.021506913915156713
14.182268722466961,-0.1335133841182631
14.215638766519824,-0.24031404060583386
14.249008810572688,-0.33342249455123524
14.28237885462555,-0.418895335543755
14.315748898678414,-0.5077869554029707
14.349118942731279,-0.6032915836581229
14.382488986784141,-0.692250498234287
14.415859030837005,-0.7464407742523269
14.449229074889868,-0.7338543547936295
14.482599118942732,-0.6346861314187285
14.515969162995596,-0.453805688236741
14.549339207048458,-0.22268203054232794
14.582709251101322,0.011361069042427117
14.616079295154185,0.2043386895484389
14.649449339207049,0.3343671193457467
14.682819383259913,0.41063265307167557
14.716189427312775,0.4674726036853304
14.74955947136564,0.5456580742592548
14.782929515418502,0.6695531468529967
14.816299559471366,0.8313533651380992
14.84966960352423,0.9905642698363438
14.883039647577093,1.089642588847009
14.916409691629957,1.0789012323643477
14.94977973568282,0.9392924452689064
14.983149779735683,0.69267148631959
15.016519823788547,0.39494669290224
15.04988986784141,0.11520900357732515
15.083259911894274,-0.0900841779954614
15.116629955947138,-0.19704027476990474
15.15,-0.220477758307469
15.183370044052865,-0.20444824283840082
15.216740088105727,-0.20177749188613361
15.250110132158591,-0.2514967097186739
15.283480176211455,-0.3634193351847649
15.316850220264318,-0.5157111672735508
15.350220264317182,-0.665690985091718
15.383590308370044,-0.7686848684789245
15.416960352422908,-0.7967326009231405
15.450330396475772,-0.7494213571642897
15.483700440528635,-0.6527498161048295
15.517070484581499,-0.5470944953866692
15.550440528634361,-0.46985873768633424
15.583810572687225,-0.44033734164824123
15.61718061674009,-0.4529434167679763
15.650550660792952,-0.4809309161450754
15.683920704845816,-0.4880349023506649
15.717290748898678,-0.44229297717103605
15.750660792951543,-0.32615408847851707
15.784030837004407,-0.13968820820750794
15.817400881057269,0.10240248592518501
15.850770925110133,0.3764932917261968
15.884140969162996,0.6548392552126053
15.91751101321586,0.9080848877011513
15.950881057268724,1.106878015825566
15.984251101321586,1.2250846898904328
16.01762114537445,1.2455585554352555
16.050991189427315,1.1663685622493176
16.084361233480177,1.0033703312876554
16.11773127753304,0.7860324647149585
16.151101321585905,0.5472532856043831
16.184471365638768,0.31196853897903065
16.21784140969163,0.0906446490194954
16.251211453744492,-0.11886641658617879
16.284581497797358,-0.32254569160793706
16.31795154185022,-0.5199656833773586
16.351321585903083,-0.698731304526534
16.38469162995595,-0.8368414221103967
16.41806167400881,-0.9116467151608075
16.451431718061674,-0.9105174105027771
16.48480176211454,-0.8375765206787448
16.518171806167402,-0.7130362419815288
16.551541850220264,-0.5654631327518139
16.584911894273127,-0.42073075179929736
16.618281938325993,-0.292875436360358
16.651651982378855,-0.18096850487712351
16.685022026431717,-0.07311101900945143
16.718392070484583,0.04472628778894237
16.751762114537446,0.17942219736779152
16.785132158590308,0.32532166703437876
16.818502202643174,0.46501367823927875
16.851872246696036,0.5755869912227566
16.8852422907489,0.6373061697357201
16.91861233480176,0.6408643166360808
16.951982378854627,0.5903328318034116
16.98535242290749,0.5010093070116454
17.01872246696035,0.3935460361741668
17.052092511013218,0.28710294261813935
17.08546255506608,0.19432325846906037
17.118832599118942,0.11976190903829084
17.152202643171808,0.06160739829388311
17.18557268722467,0.015010892387350762
17.218942731277533,-0.025159361578628355
17.2523127753304,-0.0635382538442642
17.28568281938326,-0.10526720182201425
17.319052863436124,-0.15716564267528324
17.352422907488986,-0.22713855365202065
17.385792951541852,-0.3209813173304169
