Time (s),Filtered Signal
0.0,0.005226138218785628
0.033370165745856356,0.4688569094914046
0.06674033149171271,0.8985812670279335
0.10011049723756907,1.2592156956981035
0.13348066298342542,1.5176746391761582
0.16685082872928178,1.651450012359785
0.20022099447513814,1.6586142438821176
0.2335911602209945,1.5629614138601635
0.26696132596685085,1.4092202882342897
0.30033149171270723,1.2482644019358458
0.33370165745856356,1.1181471707749664
0.3670718232044199,1.029991168762498
0.4004419889502763,0.9660426131947087
0.43381215469613266,0.8912178610184962
0.467182320441989,0.7724523534195132
0.5005524861878453,0.5960471334872676
0.5339226519337017,0.37433629142458424
0.5672928176795581,0.1387825504815948
0.6006629834254145,-0.07614037882830074
0.6340331491712707,-0.24921059434614276
0.6674033149171271,-0.38020659265477613
0.7007734806629835,-0.48566714635209796
0.7341436464088398,-0.5860659319017361
0.7675138121546962,-0.6923654913739846
0.8008839779005525,-0.7996207214541907
0.8342541436464089,-0.8905820120064658
0.8676243093922653,-0.9461536851310883
0.9009944751381216,-0.9558184390947675
0.934364640883978,-0.9218450568136637
0.9677348066298344,-0.8555239381194856
1.0011049723756906,-0.7688369940280737
1.0344751381215471,-0.6675785521724805
1.0678453038674034,-0.5505015737074328
1.1012154696132597,-0.41474015684654597
1.1345856353591162,-0.2635098560770475
1.1679558011049724,-0.11061592416762957
1.201325966850829,0.02167056018580111
1.2346961325966852,0.11078300635206527
1.2680662983425415,0.1439772960847122
1.301436464088398,0.12517949048865865
1.3348066298342542,0.07496255544088506
1.3681767955801105,0.023354958896876665
1.401546961325967,-0.0014882835308458295
1.4349171270718233,0.016166038490882273
1.4682872928176796,0.07447165840952318
1.501657458563536,0.1564878847055368
1.5350276243093923,0.2391367539287159
1.5683977900552488,0.30447499570528364
1.601767955801105,0.34799208713523105
1.6351381215469614,0.38000933925277486
1.6685082872928179,0.4195469594687008
1.7018784530386741,0.48365309674703744
1.7352486187845306,0.5773256332853383
1.768618784530387,0.6887457236049556
1.8019889502762432,0.7918839990663994
1.8353591160220997,0.8550870834663372
1.868729281767956,0.8517318579033069
1.9020994475138122,0.7685250731189442
1.9354696132596687,0.6085310614656632
1.968839779005525,0.38863801389946195
2.0022099447513813,0.1336172709862043
2.0355801104972375,-0.12999133425049886
2.0689502762430942,-0.37774457103179787
2.1023204419889505,-0.5886521563365348
2.135690607734807,-0.7458105488457449
2.169060773480663,-0.8384780961123495
2.2024309392265193,-0.8660195844775521
2.235801104972376,-0.8414834536654878
2.2691712707182323,-0.7910814827552157
2.3025414364640886,-0.7470218286726481
2.335911602209945,-0.7347375547658018
2.369281767955801,-0.7595575271836734
2.402651933701658,-0.7997475557474651
2.436022099447514,-0.8110729616683959
2.4693922651933704,-0.7430377922650132
2.5027624309392267,-0.5610396814810994
2.536132596685083,-0.2648898405826701
2.5695027624309392,0.10528945603329086
2.602872928176796,0.47971189453160207
2.636243093922652,0.78265247046038
2.6696132596685085,0.9596077237282105
2.7029834254143648,0.9963853232652341
2.736353591160221,0.9220930813780965
2.7697237569060777,0.7951685291956339
2.803093922651934,0.6789943504273233
2.8364640883977903,0.6177946365547634
2.8698342541436466,0.6226273384387112
2.903204419889503,0.6721028989625518
2.936574585635359,0.7256964814739378
2.969944751381216,0.7424531052905983
3.003314917127072,0.6966604356630726
3.0366850828729284,0.584730733706109
3.0700552486187846,0.4222660047642894
3.103425414364641,0.23457826436290016
3.1367955801104976,0.045962199305377344
3.170165745856354,-0.12768983543428752
3.20353591160221,-0.28094209037306095
3.2369060773480665,-0.41648602503964965
3.2702762430939227,-0.5411163223538638
3.3036464088397794,-0.6624818610667909
3.3370165745856357,-0.7873184435515913
3.370386740331492,-0.9199770129142694
3.4037569060773483,-1.059587685309742
3.4371270718232045,-1.1957434695320799
3.4704972375690613,-1.305183763272365
3.5038674033149175,-1.353495108013313
3.537237569060774,-1.3044590085842624
3.57060773480663,-1.1353250905995795
3.6039779005524863,-0.851338856191677
3.6373480662983426,-0.4908898116507195
3.6707182320441993,-0.1159855192395016
3.7040883977900556,0.20963860695776815
3.737458563535912,0.44490869328084987
3.770828729281768,0.5858991777826303
3.8041988950276244,0.662648917368545
3.837569060773481,0.7199567555913353
3.8709392265193374,0.7924993778340872
3.9043093922651937,0.8874738275288963
3.93767955801105,0.9834317027457983
3.9710497237569062,1.0448133253077296
4.0044198895027625,1.043197067377898
4.037790055248619,0.9731349378971574
4.071160220994475,0.8541518140954798
4.104530386740332,0.7186875675721213
4.1379005524861885,0.593700631318203
4.171270718232044,0.4868699400921355
4.204640883977901,0.38516857341710586
4.238011049723757,0.2660898755077754
4.271381215469614,0.11448443366829866
4.30475138121547,-0.06499129989804157
4.338121546961326,-0.2469819190435795
4.371491712707183,-0.3965854771824981
4.404861878453039,-0.48639896820321576
4.438232044198895,-0.5102242840389196
4.471602209944752,-0.4861062392262819
4.504972375690608,-0.4470787534285425
4.538342541436465,-0.4244617370668985
4.5717127071823205,-0.4324448728578608
4.605082872928177,-0.4620261589414723
4.638453038674034,-0.4874679051693848
4.67182320441989,-0.48178807019931996
4.7051933701657465,-0.4328975591049256
4.738563535911602,-0.3515303343605974
4.771933701657459,-0.2665088218634235
4.805303867403316,-0.20984689498745174
4.8386740331491715,-0.19983817207977878
4.872044198895028,-0.23135562419740854
4.905414364640884,-0.2784530443007959
4.938784530386741,-0.30741551696226277
4.972154696132597,-0.2926940680601498
5.005524861878453,-0.22695678836975622
5.03889502762431,-0.12039402309691963
5.072265193370166,0.00898729663493742
5.105635359116023,0.14706012258270745
5.1390055248618784,0.2894668585006283
5.172375690607735,0.43804704254052695
5.205745856353592,0.5905618240342057
5.239116022099448,0.7311201229578745
5.272486187845304,0.8287162281807021
5.30585635359116,0.8466687011172789
5.339226519337017,0.7592521025169655
5.372596685082874,0.567164670321664
5.4059668508287295,0.3032754413630285
5.439337016574586,0.02450810989413674
5.472707182320442,-0.20750291846610985
5.506077348066299,-0.34867747225914186
5.5394475138121555,-0.38773421343934833
5.572817679558011,-0.34774807203477975
5.606187845303868,-0.27385185325717043
5.639558011049724,-0.2132601874781285
5.672928176795581,-0.19677793997877696
5.706298342541437,-0.22931583449442428
5.739668508287293,-0.2919751334886644
5.77303867403315,-0.35289594951861336
5.806408839779006,-0.38098188898587926
5.839779005524862,-0.35680915676954855
5.873149171270718,-0.27757538736106185
5.906519337016575,-0.1559743609896805
5.939889502762432,-0.014892505495461932
5.9732596685082875,0.11961526335171495
6.006629834254144,0.2250296590265421
6.04,0.28741171290320855
6.073370165745857,0.30404019578869923
6.1067403314917135,0.2833484708804023
6.140110497237569,0.24229215740174717
6.173480662983426,0.20170621476113137
6.206850828729282,0.18057579524337825
6.240220994475139,0.19039363579112564
6.273591160220995,0.23092488127878816
6.306961325966851,0.28874989762356845
6.340331491712708,0.33973071667698473
6.373701657458564,0.3557093868651949
6.40707182320442,0.31415037731007617
6.440441988950277,0.20758010982269526
6.473812154696133,0.04870347150814365
6.50718232044199,-0.1319136804801561
6.5405524861878455,-0.29565859727176996
6.573922651933702,-0.4095306127007303
6.607292817679559,-0.45772076420293933
6.640662983425415,-0.4458471774930752
6.674033149171271,-0.3960287862577677
6.707403314917127,-0.3354551908493138
6.740773480662984,-0.2842287116566572
6.774143646408841,-0.24834489676575325
6.8075138121546965,-0.2207187490714224
6.840883977900553,-0.18880598849563537
6.874254143646409,-0.14400868385374935
6.907624309392266,-0.08748526911771567
6.9409944751381225,-0.029405760937008578
6.974364640883978,0.017364298705657134
7.007734806629835,0.044991279010396
7.041104972375691,0.05505795542066038
7.074475138121548,0.05713554865585335
7.107845303867403,0.06280518961276205
7.14121546961326,0.07921315378565444
7.174585635359117,0.10632325031479112
7.207955801104973,0.13929098225579853
7.241325966850829,0.1736818667774548
7.274696132596685,0.20920277503340323
7.308066298342542,0.24875596353531382
7.341436464088399,0.2932515869380228
7.3748066298342545,0.3361556907894702
7.408176795580111,0.3625602481680524
7.441546961325967,0.3548368984648132
7.474917127071824,0.30237184854013094
7.5082872928176805,0.20955809704395403
7.541657458563536,0.09651360455498148
7.575027624309393,-0.009054310306523547
7.608397790055249,-0.08513135218515379
7.641767955801106,-0.1267032747243212
7.675138121546962,-0.14853033351043635
7.708508287292818,-0.17716199789874207
7.741878453038675,-0.2357146080451526
7.775248618784531,-0.32900904896907474
7.808618784530387,-0.4369128500860533
7.841988950276244,-0.5200027612437853
7.8753591160221,-0.5357644464900965
7.908729281767957,-0.4582705919576046
7.9420994475138125,-0.2921365505855642
7.975469613259669,-0.07371409387122342
8.008839779005525,0.14178188676454578
8.042209944751383,0.30174731506914015
8.075580110497238,0.3763747276900819
8.108950276243094,0.3681202364418798
8.14232044198895,0.3063994584189279
8.175690607734808,0.2309622690548033
8.209060773480664,0.17288342051469902
8.24243093922652,0.14259984408134196
8.275801104972377,0.12991766307987151
8.309171270718233,0.11425371801451129
8.342541436464089,0.07839615283650138
8.375911602209946,0.018250195815912033
8.409281767955802,-0.05574904083541475
8.442651933701658,-0.12492986594046582
8.476022099447514,-0.17194548277908578
8.509392265193371,-0.18826919627566063
8.542762430939227,-0.176269636829174
8.576132596685083,-0.14586952109513476
8.60950276243094,-0.10856831882911304
8.642872928176796,-0.07243734792963952
8.676243093922652,-0.040412145833864835
8.709613259668508,-0.011823768636549834
8.742983425414366,0.014822310942789357
8.776353591160222,0.04014249267856149
8.809723756906077,0.06425337988170553
8.843093922651935,0.0883351992759537
8.87646408839779,0.11540422251185593
8.909834254143647,0.14884163569145753
8.943204419889504,0.18898276174787718
8.97657458563536,0.22983436896916343
9.009944751381216,0.25850838802018844
9.043314917127072,0.2587566572351644
9.07668508287293,0.21765685709473567
9.110055248618785,0.13238964542339557
9.143425414364641,0.013510867823559291
9.176795580110499,-0.11733881614122121
9.210165745856354,-0.23450099590408266
9.24353591160221,-0.3168701398291786
9.276906077348068,-0.3540596633038497
9.310276243093924,-0.34778017289913543
9.34364640883978,-0.3086679139935776
9.377016574585635,-0.2508929985153825
9.410386740331493,-0.187367009926785
9.443756906077349,-0.12730254173860997
9.477127071823205,-0.07615289350600725
9.510497237569062,-0.03665029145045848
9.543867403314918,-0.009426059861957816
9.577237569060774,0.007468603384623293
9.610607734806631,0.019523465859166998
9.643977900552487,0.0357184903271371
9.677348066298343,0.0661962798135127
9.710718232044199,0.11773901820381165
9.744088397790057,0.1888267505303714
9.777458563535912,0.26696369259203623
9.810828729281768,0.3303529059693217
9.844198895027626,0.3541058686591141
9.877569060773482,0.3190373554475113
9.910939226519337,0.21984008388367166
9.944309392265193,0.0695492122235303
9.97767955801105,-0.10157728068516687
10.011049723756907,-0.25293857615030774
10.044419889502763,-0.3447196553317098
10.07779005524862,-0.3503338627629991
10.111160220994476,-0.2663405888724548
10.144530386740332,-0.11605467300726126
10.17790055248619,0.055493636707534995
10.211270718232045,0.19482316624780524
10.244640883977901,0.2578015991835974
10.278011049723757,0.22586323313751933
10.311381215469615,0.11417028857473369
10.34475138121547,-0.03247211929466045
10.378121546961326,-0.15565053459314293
10.411491712707184,-0.20588138746644816
10.44486187845304,-0.16268108065520423
10.478232044198895,-0.04334247981623955
10.511602209944753,0.1040495909882776
10.544972375690609,0.22091770976890962
10.578342541436465,0.2631372627857388
10.61171270718232,0.2195725740860671
10.645082872928178,0.1159069369970384
10.678453038674034,0.002131200702256822
10.71182320441989,-0.07052138684387736
10.745193370165747,-0.07269530707653919
10.778563535911603,-0.009736983117053944
10.811933701657459,0.08128059553097035
10.845303867403315,0.1486220222202336
10.878674033149172,0.14909768978442428
10.912044198895028,0.06700099087901124
10.945414364640884,-0.07936623009582654
10.978784530386742,-0.24589036610589596
11.012154696132598,-0.38124963730980127
11.045524861878453,-0.44723869188713616
11.078895027624311,-0.43193420017323
11.112265193370167,-0.3506972876231144
11.145635359116023,-0.2359136017407933
11.179005524861878,-0.12139608581745268
11.212375690607736,-0.029207256265282335
11.245745856353592,0.03533715537978779
11.279116022099448,0.07932473749955744
11.312486187845305,0.11225302767150937
11.345856353591161,0.1368008722065217
11.379226519337017,0.1460568913740087
11.412596685082875,0.12905242892328678
11.44596685082873,0.08139939099956141
11.479337016574586,0.014307569814944382
11.512707182320442,-0.044584271415963724
11.5460773480663,-0.060996620763698606
11.579447513812156,-0.010757036223617615
11.612817679558011,0.1048394298996311
11.646187845303869,0.25385677277506824
11.679558011049725,0.3831329037389081
11.71292817679558,0.43946247488433815
11.746298342541436,0.3933364751291669
11.779668508287294,0.25389364400930026
11.81303867403315,0.0672774974280128
11.846408839779006,-0.10166812610710636
11.879779005524863,-0.1962912441418275
11.91314917127072,-0.1912170780158598
11.946519337016575,-0.10107139662247243
11.979889502762433,0.02860767318701467
12.013259668508288,0.14303545040680646
12.046629834254144,0.2014301231025308
12.08,0.19091400814512766
12.113370165745858,0.12576239386743265
12.146740331491714,0.03463122337221155
12.18011049723757,-0.055781764664124815
12.213480662983427,-0.1315323286392753
12.246850828729283,-0.19204422324094578
12.280220994475139,-0.24250325762068722
12.313591160220996,-0.28465360720272087
12.346961325966852,-0.31271303749345936
12.380331491712708,-0.3169578685879224
12.413701657458564,-0.2920014910754453
12.447071823204421,-0.24347886112618947
12.480441988950277,-0.1877978545485706
12.513812154696133,-0.14416610651853543
12.54718232044199,-0.12335441824038261
12.580552486187846,-0.12025613172941624
12.613922651933702,-0.11548009792892797
12.64729281767956,-0.0859421029680242
12.680662983425416,-0.01886287858032537
12.714033149171271,0.07884913696745664
12.747403314917127,0.18161666167268264
12.780773480662985,0.25673705791386625
12.81414364640884,0.2806929907656514
12.847513812154697,0.25166593386783853
12.880883977900554,0.19149735269016363
12.91425414364641,0.13576610410941872
12.947624309392266,0.11674647686791514
12.980994475138122,0.1475589180639235
13.01436464088398,0.21511609437161028
13.047734806629835,0.2851381207422789
13.081104972375691,0.31693852617797486
13.114475138121549,0.2814811379489177
13.147845303867404,0.17496274245065896
13.18121546961326,0.022087022878423308
13.214585635359118,-0.13260582774441632
13.247955801104974,-0.24204128457817076
13.28132596685083,-0.2754305132662764
13.314696132596685,-0.23056384711416802
13.348066298342543,-0.13418548422078708
13.381436464088399,-0.030325697614277974
13.414806629834255,0.03809610561760222
13.448176795580112,0.04619299374809105
13.481546961325968,-0.004571052229068786
13.514917127071824,-0.08946392629042718
13.548287292817681,-0.17255986620162325
13.581657458563537,-0.22189215768316514
13.615027624309393,-0.22133143089352628
13.648397790055249,-0.1750945603631806
13.681767955801106,-0.10421197754238348
13.715138121546962,-0.03723691932889634
13.748508287292818,0.0009654675293534964
13.781878453038676,-0.0015560539349595817
13.815248618784532,-0.03949712775181092
13.848618784530387,-0.09213841221676071
13.881988950276245,-0.13081536214025316
13.9153591160221,-0.1296553998748111
13.948729281767957,-0.07587668184980847
13.982099447513813,0.0243582093201309
14.01546961325967,0.14731826326006248
14.048839779005526,0.2603999356279515
14.082209944751382,0.33494726620295395
14.11558011049724,0.3576686405585231
14.148950276243095,0.33521828715615776
14.182320441988951,0.2894500897923566
14.215690607734807,0.24543415688145845
14.249060773480664,0.21817297453952808
14.28243093922652,0.2048416922158712
14.315801104972376,0.18664115441119342
14.349171270718234,0.13938015032164616
14.38254143646409,0.04737133838093799
14.415911602209945,-0.08644210072698578
14.449281767955803,-0.23920541424191386
14.482651933701659,-0.37629631283626686
14.516022099447515,-0.4648976179223427
14.54939226519337,-0.486620828864591
14.582762430939228,-0.44360914767917764
14.616132596685084,-0.35589379937951765
14.64950276243094,-0.251863170165565
14.682872928176797,-0.15657171340804685
14.716243093922653,-0.08309306422569084
14.749613259668509,-0.030264293993635553
14.782983425414367,0.012953237901471367
14.816353591160222,0.05919317900738381
14.849723756906078,0.11468897676008155
14.883093922651934,0.17531500447756482
14.916464088397792,0.22828062179299305
14.949834254143648,0.2583094972754093
14.983204419889503,0.2550561595738215
15.016574585635361,0.218129216751277
15.049944751381217,0.15748323740666897
15.083314917127073,0.08926489557333638
15.116685082872928,0.029247681228603908
15.150055248618786,-0.013119996275080922
15.183425414364642,-0.03751062467233834
15.216795580110498,-0.05130478676742246
15.250165745856355,-0.06475902366157034
15.283535911602211,-0.08503030174355926
15.316906077348067,-0.1118717771711226
15.350276243093925,-0.13711057644548924
15.38364640883978,-0.14827507397875353
15.417016574585636,-0.134703632384253
15.450386740331492,-0.09315055370708875
15.48375690607735,-0.03004762088038871
15.517127071823205,0.04081585494886924
15.550497237569061,0.10415041602561674
15.583867403314919,0.1497200711582339
15.617237569060775,0.17636046954897125
15.65060773480663,0.1914586930791775
15.683977900552488,0.20612770260970784
15.717348066298344,0.2284186966092493
15.7507182320442,0.2578464744310271
15.784088397790056,0.2838536776493126
15.817458563535913,0.2890286084516904
15.85082872928177,0.2558421513665285
15.884198895027625,0.1742690421770618
15.917569060773483,0.047358917312332445
15.950939226519338,-0.10742724636892409
15.984309392265194,-0.26186387386357357
16.01767955801105,-0.3846743756156565
16.051049723756908,-0.45095235641563786
16.084419889502765,-0.45014757111480663
16.11779005524862,-0.3897058042028888
16.151160220994477,-0.29279201920870096
16.18453038674033,-0.19062468721803988
16.21790055248619,-0.11203471074971189
16.251270718232046,-0.07403704233640888
16.2846408839779,-0.0768853088167471
16.318011049723758,-0.10533788261270678
16.351381215469615,-0.13542873077603906
16.38475138121547,-0.14395923661412274
16.418121546961327,-0.11706239122452325
16.451491712707185,-0.05480033917121213
16.48486187845304,0.029546939015583067
16.518232044198896,0.11483157138957335
16.551602209944754,0.17979978098048346
16.584972375690608,0.2104171431319603
16.618342541436466,0.2043015686605071
16.651712707182323,0.17096879990351413
16.685082872928177,0.12808559601743655
16.718453038674035,0.09525094501480118
16.751823204419892,0.0875501525558227
16.785193370165747,0.11101355243140841
16.818563535911604,0.16124470752566833
16.851933701657458,0.22526342875799368
16.885303867403316,0.28556714453463955
16.918674033149173,0.32493239585902217
16.952044198895027,0.3306118527671378
16.985414364640885,0.29708998684161725
17.018784530386743,0.2270948724245196
17.052154696132597,0.13089008819109518
17.085524861878454,0.0239966739144707
17.118895027624312,-0.07637612873674561
17.152265193370166,-0.15559737649766273
17.185635359116024,-0.20554091180567174
17.21900552486188,-0.22687209082414966
17.252375690607735,-0.22863406271994882
