Frequency (Hz),Amplitude
0.0,13.998525865306735
0.019867549668874173,13.999304959478255
0.039735099337748346,14.001638898787208
0.059602649006622516,14.005517671403489
0.07947019867549669,14.0109246500739
0.09933774834437085,14.017836680263235
0.11920529801324503,14.026224202453525
0.13907284768211922,14.036051407525447
0.15894039735099338,14.0472764238704
0.17880794701986755,14.059851534628276
0.1986754966887417,14.073723423219151
0.2185430463576159,14.08883344513885
0.23841059602649006,14.105117923822329
0.2582781456953642,14.122508468244602
0.27814569536423844,14.140932309829607
0.2980132450331126,14.160312656170301
0.31788079470198677,14.1805690590299
0.33774834437086093,14.201617794090932
0.3576158940397351,14.223372249946186
0.3774834437086093,14.24574332387811
0.3973509933774834,14.268639822051298
0.4172185430463576,14.291968861839868
0.4370860927152318,14.3156362741278
0.45695364238410596,14.33954700354938
0.4768211920529801,14.363605504778214
0.49668874172185434,14.387716133120366
0.5165562913907285,14.411783527821134
0.5364238410596026,14.435712986648916
0.5562913907284769,14.459410830473269
0.5761589403973509,14.482784756705561
0.5960264900662252,14.505744180615755
0.6158940397350993,14.528200563678432
0.6357615894039735,14.550067728231598
0.6556291390728477,14.571262157854267
0.6754966887417219,14.591703282980605
0.695364238410596,14.61131375137032
0.7152317880794702,14.630019683145974
0.7350993377483444,14.647750910188712
0.7549668874172186,14.664441199753332
0.7748344370860927,14.680028462223074
0.7947019867549668,14.69445494297524
0.8145695364238411,14.70766739836729
0.8344370860927152,14.719617255885858
0.8543046357615894,14.730260758523556
0.8741721854304636,14.739559093464083
0.8940397350993378,14.747478505165367
0.9139072847682119,14.753990392932732
0.9337748344370861,14.75907139307132
0.9536423841059603,14.762703445700343
0.9735099337748344,14.764873846300212
0.9933774834437087,14.765575282048891
1.0132450331125828,14.764805852987926
1.033112582781457,14.762569078039585
1.0529801324503312,14.758873885877609
1.0728476821192052,14.753734590633979
1.0927152317880795,14.747170852405441
1.1125827814569538,14.739207622505091
1.1324503311258278,14.729875073388731
1.1523178807947019,14.719208513171747
1.1721854304635762,14.707248284642434
1.1920529801324504,14.694039648671811
1.2119205298013245,14.679632651918595
1.2317880794701985,14.664081978732447
1.2516556291390728,14.647446787169757
1.271523178807947,14.629790529053546
1.2913907284768211,14.611180754035626
1.3112582781456954,14.591688897652043
1.3311258278145695,14.571390053407276
1.3509933774834437,14.550362728975065
1.370860927152318,14.528688586666707
1.390728476821192,14.506452168391242
1.410596026490066,14.483740605416763
1.4304635761589404,14.460643313336556
1.4503311258278146,14.43725167275
1.4701986754966887,14.4136586962841
1.4900662251655628,14.389958682708023
1.5099337748344372,14.366246859027054
1.5298013245033113,14.342619011585652
1.5496688741721854,14.319171107358606
1.5695364238410596,14.295998906761733
1.5894039735099337,14.273197569471332
1.609271523178808,14.25086125489617
1.6291390728476822,14.229082719101145
1.6490066225165563,14.2079529101284
1.6688741721854303,14.187560563802947
1.6887417218543048,14.167991802236324
1.7086092715231789,14.149329737355067
1.728476821192053,14.131654081874352
1.7483443708609272,14.115040770209681
1.7682119205298013,14.099561591865426
1.7880794701986755,14.085283839859395
1.8079470198675496,14.072269976731151
1.8278145695364238,14.060577320638341
1.847682119205298,14.050257753969941
1.8675496688741722,14.041357456794033
1.8874172185430464,14.033916667314042
1.9072847682119205,14.027969471330675
1.9271523178807946,14.02354362249727
1.9470198675496688,14.020660394920913
1.9668874172185429,14.019334469398053
1.9867549668874174,14.019573854289705
2.0066225165562916,14.021379841740403
2.0264900662251657,14.02474699963213
2.0463576158940397,14.029663199344444
2.066225165562914,14.036109679071355
2.086092715231788,14.044061142129216
2.1059602649006623,14.053485889382754
2.1258278145695364,14.064345984625277
2.1456953642384105,14.076597451476708
2.165562913907285,14.090190500115233
2.185430463576159,14.105069781937745
2.205298013245033,14.121174670053422
2.2251655629139075,14.138439563357304
2.2450331125827816,14.156794211805463
2.2649006622516556,14.176164060422808
2.2847682119205297,14.196470609517517
2.3046357615894038,14.21763178855161
2.324503311258278,14.239562341123339
2.3443708609271523,14.262174218552659
2.364238410596027,14.285376979622054
2.384105960264901,14.309078194109853
2.403973509933775,14.333183847857088
2.423841059602649,14.357598747230808
2.443708609271523,14.382226920980314
2.463576158940397,14.406972017627448
2.4834437086092715,14.431737696683243
2.5033112582781456,14.45642801213726
2.52317880794702,14.480947786822304
2.543046357615894,14.505202976410885
2.562913907284768,14.529101021950327
2.5827814569536423,14.55255118998773
2.6026490066225163,14.575464899474271
2.622516556291391,14.597756034766284
2.642384105960265,14.619341244161486
2.662251655629139,14.640140223516601
2.6821192052980134,14.660075984593234
2.7019867549668874,14.67907510786562
2.7218543046357615,14.697067979602076
2.741721854304636,14.713989013098502
2.76158940397351,14.729776853998835
2.781456953642384,14.744374569683657
2.801324503311258,14.757729822746091
2.821192052980132,14.769795028601962
2.8410596026490067,14.780527497302051
2.8609271523178808,14.789889559627273
2.8807947019867552,14.797848677553825
2.9006622516556293,14.804377539176082
2.9205298013245033,14.80945413817015
2.9403973509933774,14.813061837871643
2.9602649006622515,14.815189420028842
2.9801324503311255,14.815831118276162
3.0,14.81498663635495
3.0198675496688745,14.812661151089229
3.0397350993377485,14.808865300103419
3.0596026490066226,14.803615154248755
3.0794701986754967,14.796932174685807
3.0993377483443707,14.788843154551412
3.119205298013245,14.77938014512299
3.1390728476821192,14.768580366379384
3.1589403973509933,14.756486101847637
3.1788079470198674,14.74314457762052
3.198675496688742,14.728607825428526
3.218543046357616,14.712932529656603
3.23841059602649,14.696179858208067
3.2582781456953644,14.678415277138054
3.2781456953642385,14.659708349006959
3.2980132450331126,14.640132514941564
3.3178807947019866,14.619764860437591
3.3377483443708607,14.598685864994142
3.3576158940397347,14.57697913573814
3.3774834437086096,14.554731125273696
3.3973509933774837,14.53203083408201
3.4172185430463577,14.508969497896272
3.437086092715232,14.485640260588678
3.456953642384106,14.462137833227452
3.47682119205298,14.438558140094703
3.4966887417218544,14.414997952595986
3.5165562913907285,14.391554512141488
3.5364238410596025,14.368325143234205
3.556291390728477,14.345406858158567
3.576158940397351,14.3228959548252
3.596026490066225,14.300887609488353
3.615894039735099,14.279475466209595
3.6357615894039736,14.258751225093556
3.6556291390728477,14.23880423146246
3.6754966887417218,14.219721068265311
3.695364238410596,14.201585154129369
3.7152317880794703,14.184476349554036
3.7350993377483444,14.168470573815409
3.754966887417219,14.153639435192172
3.774834437086093,14.14004987713642
3.794701986754967,14.127763842993664
3.814569536423841,14.116837961824587
3.834437086092715,14.107323257793215
3.854304635761589,14.09926488546507
3.8741721854304636,14.09270189320093
3.8940397350993377,14.087667016642401
3.9139072847682117,14.084186504062554
3.9337748344370858,14.082279975104653
3.9536423841059607,14.081960314155634
3.9735099337748347,14.08323359930381
3.993377483443709,14.086099067517416
4.013245033112583,14.090549116355811
4.033112582781457,14.096569342196808
4.052980132450331,14.104138614633275
4.072847682119205,14.113229186370845
4.0927152317880795,14.123806837646313
4.112582781456953,14.135831053893188
4.132450331125828,14.149255235107754
4.152317880794702,14.164026935122742
4.172185430463576,14.180088128778578
4.19205298013245,14.197375504796089
4.211920529801325,14.215820782003535
4.231788079470199,14.235351046453143
4.251655629139073,14.25588910688096
4.271523178807947,14.277353865915913
4.291390728476821,14.299660704428883
4.311258278145695,14.322721876430586
4.33112582781457,14.346446911970776
4.3509933774834435,14.370743025564101
4.370860927152318,14.395515527761296
4.390728476821192,14.420668237597745
4.410596026490066,14.44610389378167
4.43046357615894,14.471724562624855
4.450331125827815,14.49743204087075
4.470198675496689,14.523128251730997
4.490066225165563,14.548715632600336
4.509933774834438,14.574097513080556
4.529801324503311,14.599178482099651
4.549668874172186,14.623864743065756
4.569536423841059,14.648064456140924
4.589403973509934,14.671688066857254
4.6092715231788075,14.694648620428046
4.629139072847682,14.716862061223662
4.649006622516556,14.738247516991631
4.66887417218543,14.758727567496337
4.688741721854305,14.778228497340516
4.708609271523179,14.796680532805588
4.728476821192054,14.814018062611737
4.748344370860927,14.830179842552733
4.768211920529802,14.845109184003872
4.788079470198675,14.858754126336073
4.80794701986755,14.871067593294313
4.827814569536423,14.882007533416683
4.847682119205298,14.891537044579538
4.867549668874172,14.899624482758814
4.887417218543046,14.90624355509447
4.9072847682119205,14.911373397337947
4.927152317880794,14.914998635750939
4.947019867549669,14.917109433507962
4.966887417218543,14.917701521638024
4.986754966887418,14.916776214519492
5.006622516556291,14.914340409921481
5.026490066225166,14.910406573562819
5.04635761589404,14.904992708137415
5.066225165562914,14.8981223067345
5.086092715231788,14.889824290561654
5.105960264900662,14.880132930862805
5.125827814569536,14.869087754908687
5.14569536423841,14.856733435927291
5.1655629139072845,14.843119666837294
5.185430463576159,14.828301017647084
5.205298013245033,14.81233677638929
5.225165562913908,14.79529077347401
5.245033112582782,14.777231189365983
5.264900662251656,14.75823034552158
5.28476821192053,14.738364478560948
5.304635761589404,14.717713497700757
5.324503311258278,14.696360725534003
5.344370860927152,14.67439262231464
5.364238410596027,14.651898493988725
5.3841059602649,14.62897018430846
5.403973509933775,14.605701751472948
5.4238410596026485,14.582189129857468
5.443708609271523,14.558529777523193
5.463576158940397,14.53482231033922
5.483443708609272,14.511166123697652
5.503311258278146,14.487661002961023
5.52317880794702,14.46440672394389
5.543046357615895,14.441502644899114
5.562913907284768,14.419047291649255
5.582781456953643,14.3971379376716
5.602649006622516,14.375870181111544
5.622516556291391,14.355337520855707
5.642384105960264,14.335630933943982
5.662251655629139,14.31683845673152
5.682119205298013,14.29904477232696
5.701986754966887,14.282330806924822
5.7218543046357615,14.26677333771822
5.741721854304636,14.252444615115905
5.7615894039735105,14.239412001995527
5.781456953642384,14.22773763269787
5.801324503311259,14.217478094404761
5.821192052980132,14.208684133444471
5.841059602649007,14.201400388932147
5.860927152317881,14.195665155980802
5.880794701986755,14.191510180510974
5.900662251655629,14.188960487446822
5.920529801324503,14.18803424381762
5.940397350993377,14.188742657987842
5.960264900662251,14.191089915923797
5.980132450331126,14.195073155073466
6.0,14.200682476093865
6.0198675496688745,14.20790099231667
6.039735099337749,14.216704916498554
6.059602649006623,14.22706368406851
6.079470198675497,14.238940111763757
6.099337748344371,14.252290590244066
6.119205298013245,14.267065308997756
6.139072847682119,14.28320851160337
6.158940397350993,14.30065877919405
6.178807947019867,14.31934933978956
6.198675496688741,14.339208401012725
6.218543046357616,14.360159503598677
6.23841059602649,14.382121893030293
6.258278145695365,14.405010906596708
6.2781456953642385,14.428738373167587
6.298013245033113,14.453213023005098
6.317880794701987,14.478340904992205
6.337748344370861,14.504025808741039
6.357615894039735,14.530169689150652
6.377483443708609,14.556673091109136
6.397350993377484,14.583435572176265
6.417218543046357,14.610356121234807
6.437086092715232,14.637333571259813
6.456953642384105,14.664267004520111
6.47682119205298,14.69105614869388
6.496688741721854,14.71760176254571
6.516556291390729,14.743806009975495
6.5364238410596025,14.769572821405845
6.556291390728477,14.794808241624281
6.5761589403973515,14.819420763336574
6.596026490066225,14.843321645817984
6.6158940397351,14.866425218168656
6.635761589403973,14.888649166787115
6.655629139072848,14.909914806772571
6.675496688741721,14.93014733705119
6.695364238410596,14.94927607909469
6.715231788079469,14.96723469916141
6.735099337748344,14.98396141404103
6.754966887417219,14.999399180325417
6.774834437086093,15.013495867258307
6.794701986754967,15.026204413240036
6.814569536423841,15.037482966076366
6.8344370860927155,15.047295007068655
6.854304635761589,15.055609459040827
6.874172185430464,15.06240077839507
6.894039735099337,15.067649031275138
6.913907284768212,15.071339953902736
6.933774834437086,15.073464997133406
6.95364238410596,15.07402135525676
6.973509933774834,15.073011979043262
6.993377483443709,15.070445573014903
7.013245033112583,15.06633657689319
7.033112582781457,15.060705131151995
7.052980132450331,15.053577026581298
7.072847682119205,15.044983637744792
7.0927152317880795,15.034961840196818
7.112582781456954,15.023553911307827
7.132450331125828,15.01080741453772
7.152317880794702,14.99677506698951
7.172185430463576,14.981514590076904
7.19205298013245,14.965088543145681
7.211920529801324,14.94756413990424
7.231788079470198,14.929013047541542
7.251655629139073,14.909511168443498
7.271523178807947,14.889138404461823
7.291390728476822,14.867978403743212
7.311258278145695,14.846118290191884
7.33112582781457,14.823648375716038
7.3509933774834435,14.800661855498566
7.370860927152318,14.777254486634934
7.390728476821192,14.753524250596527
7.410596026490066,14.729571000105137
7.430463576158941,14.705496091144251
7.450331125827814,14.68140200098382
7.470198675496689,14.657391933255205
7.490066225165562,14.63356941128385
7.509933774834438,14.610037861061857
7.52980132450331,14.586900185424025
7.549668874172186,14.564258331172805
7.569536423841059,14.54221285107873
7.589403973509934,14.520862462858695
7.6092715231788075,14.500303607403653
7.629139072847682,14.480630008682297
7.649006622516557,14.46193223788814
7.66887417218543,14.444297284516793
7.6887417218543055,14.42780813715679
7.708609271523178,14.412543376844686
7.728476821192054,14.398576785872699
7.748344370860927,14.385976974938872
7.768211920529802,14.374807031495996
7.788079470198675,14.365124192081657
7.80794701986755,14.356979541300149
7.827814569536423,14.350417739973551
7.847682119205298,14.345476784788522
7.8675496688741715,14.342187801536362
7.887417218543046,14.340574873781076
7.907284768211921,14.340654908496234
7.927152317880795,14.342437539890884
7.9470198675496695,14.345925072303814
7.966887417218543,14.351112462688876
7.986754966887418,14.357987342847789
8.006622516556291,14.366530081200006
8.026490066225167,14.376713883514096
8.046357615894038,14.388504931672715
8.066225165562914,14.401862559206494
8.086092715231787,14.416739462017814
8.105960264900663,14.433081942429816
8.125827814569536,14.450830184439925
8.14569536423841,14.469918557838934
8.165562913907285,14.49027594867301
8.185430463576159,14.511826113384126
8.205298013245034,14.534488053860125
8.225165562913906,14.558176410561275
8.245033112582782,14.582801870863698
8.264900662251655,14.60827158976999
8.28476821192053,14.634489620178826
8.304635761589404,14.66135734997988
8.324503311258278,14.688773943338632
8.344370860927151,14.716636783658387
8.364238410596027,14.744841915848436
8.3841059602649,14.773284485682124
8.403973509933774,14.80185917419684
8.42384105960265,14.83046062526091
8.443708609271523,14.858983864610794
8.463576158940398,14.88732470883993
8.483443708609272,14.915380162996215
8.503311258278146,14.943048805616284
8.52317880794702,14.970231160188176
8.543046357615895,14.996830052189015
8.562913907284768,15.022750950989137
8.582781456953642,15.047902296047278
8.602649006622515,15.072195806943311
8.62251655629139,15.095546776903385
8.642384105960264,15.117874349569634
8.66225165562914,15.139101778849643
8.682119205298013,15.159156671753243
8.701986754966887,15.17797121418351
8.721854304635762,15.195482379697369
8.741721854304636,15.211632121289453
8.76158940397351,15.226367546279496
8.781456953642383,15.239641074403663
8.801324503311259,15.25141057921908
8.821192052980132,15.261639512934098
8.841059602649008,15.27029701477268
8.86092715231788,15.277358002970983
8.880794701986755,15.282803250489538
8.90066225165563,15.28661944450463
8.920529801324504,15.288799229720212
8.940397350993377,15.289341235515709
8.960264900662251,15.288250086918593
8.980132450331126,15.28553639936147
9.0,15.281216757155413
9.019867549668875,15.275313675583538
9.039735099337747,15.267855546491065
9.059602649006623,15.258876567224997
9.079470198675496,15.248416652754111
9.099337748344372,15.236521330782626
9.119205298013245,15.223241619657939
9.139072847682119,15.208633888865988
9.158940397350994,15.192759701906258
9.178807947019868,15.175685641346087
9.198675496688743,15.157483115868635
9.218543046357615,15.138228149153578
9.23841059602649,15.118001150464762
9.258278145695364,15.096886666863972
9.27814569536424,15.074973117029547
9.298013245033111,15.052352506727562
9.317880794701987,15.029120126068262
9.33774834437086,15.005374228777024
9.357615894039736,14.98121569382195
9.37748344370861,14.956747669864285
9.397350993377483,14.932075203138309
9.417218543046358,14.907304849519141
9.437086092715232,14.882544271702471
9.456953642384107,14.857901822595345
9.47682119205298,14.833486116203495
9.496688741721854,14.809405587492652
9.516556291390728,14.785768042899175
9.536423841059603,14.762680203364937
9.556291390728477,14.740247241968941
9.57615894039735,14.718572318421195
9.596026490066224,14.69775611286775
9.6158940397351,14.67789636162612
9.635761589403973,14.659087397621503
9.655629139072847,14.641419698425059
9.675496688741722,14.624979444896697
9.695364238410596,14.609848093507907
9.715231788079471,14.596101965455984
9.735099337748345,14.583811855680157
9.754966887417218,14.573042664847476
9.774834437086092,14.563853057291958
9.794701986754967,14.556295147761075
9.814569536423841,14.550414219652025
9.834437086092716,14.54624847720499
9.854304635761588,14.543828833864762
9.874172185430464,14.543178738730406
9.894039735099337,14.54431404268584
9.913907284768213,14.547242905452041
9.933774834437086,14.551965744424633
9.95364238410596,14.558475225771945
9.973509933774835,14.566756297868178
9.993377483443709,14.576786266738223
10.013245033112582,14.588534912796113
10.033112582781456,14.601964647781072
10.052980132450331,14.617030710434173
10.072847682119205,14.633681399126942
10.09271523178808,14.651858339351572
10.112582781456952,14.671496783716957
10.132450331125828,14.69252594186963
10.152317880794701,14.714869337574887
10.172185430463577,14.738445190052591
10.192052980132452,14.763166816565445
10.211920529801324,14.78894305320282
10.2317880794702,14.81567869078961
10.251655629139073,14.843274922874874
10.271523178807948,14.871629802814732
10.29139072847682,14.900638707056315
10.311258278145695,14.930194801848545
10.331125827814569,14.960189510748155
10.350993377483444,14.990512980450882
10.370860927152318,15.021054542653422
10.390728476821192,15.05170316983714
10.410596026490065,15.082347923057318
10.43046357615894,15.112878390014956
10.450331125827816,15.143185111882085
10.470198675496688,15.173159997540207
10.490066225165563,15.202696724073897
10.509933774834437,15.231691122535626
10.529801324503312,15.260041548160428
10.549668874172186,15.28764923436078
10.56953642384106,15.31441862996997
10.589403973509933,15.340257719327525
10.609271523178808,15.365078324911298
10.629139072847682,15.38879639231789
10.649006622516556,15.411332257477289
10.66887417218543,15.432610896057579
10.688741721854305,15.452562155073315
