Time (s),Filtered Signal
0.0,0.06843120847707285
0.03337008452774715,0.10931563689854604
0.0667401690554943,0.1848644738035439
0.10011025358324147,0.3068188193483141
0.1334803381109886,0.4561611026608759
0.16685042263873576,0.5952710818509707
0.20022050716648293,0.6902184491525222
0.23359059169423008,0.7272897311931075
0.2669606762219772,0.7133550332023534
0.30033076074972437,0.6622910036006957
0.3337008452774715,0.5797960130792624
0.36707092980521866,0.4594122369302983
0.40044101433296586,0.2935622543382864
0.433811098860713,0.09164752342755687
0.46718118338846015,-0.10899554344459175
0.5005512679162073,-0.24995430602183077
0.5339213524439544,-0.2759925991298666
0.5672914369717016,-0.1646576270228498
0.6006615214994487,0.055609650343577705
0.6340316060271959,0.31056443438826287
0.667401690554943,0.5078890570226755
0.7007717750826902,0.5746635237647424
0.7341418596104373,0.4862889128065934
0.7675119441381845,0.273110187695442
0.8008820286659317,0.0027185834829256484
0.8342521131936789,-0.25183256306510227
0.867622197721426,-0.44157063460896373
0.9009922822491732,-0.5554829233648307
0.9343623667769203,-0.614789471685168
0.9677324513046675,-0.6538390005661393
1.0011025358324146,-0.6991813496123426
1.0344726203601617,-0.756869124108401
1.0678427048879089,-0.8119105566610308
1.101212789415656,-0.8373374549161912
1.1345828739434032,-0.8070018717120124
1.1679529584711503,-0.7066933886569233
1.2013230429988975,-0.5406983090211444
1.2346931275266446,-0.333040552476704
1.2680632120543918,-0.12322439491919171
1.301433296582139,0.04373099670993495
1.334803381109886,0.1320190537001105
1.3681734656376332,0.13068916833606206
1.4015435501653803,0.0634664423922391
1.4349136346931275,-0.013968931556891578
1.4682837192208746,-0.031479322699798744
1.5016538037486218,0.06837863263952539
1.535023888276369,0.3047919429081752
1.568393972804116,0.6467846372433221
1.6017640573318634,1.0213593590649772
1.6351341418596106,1.3386292807802918
1.6685042263873577,1.5227990164634813
1.7018743109151049,1.5355895471705692
1.735244395442852,1.3832983219284742
1.7686144799705992,1.1072195761383743
1.8019845644983463,0.7646626162171681
1.8353546490260935,0.4103944463190002
1.8687247335538406,0.08539761168567989
1.9020948180815878,-0.18592249280041173
1.935464902609335,-0.3935993961575491
1.968834987137082,-0.539538902870577
2.002205071664829,-0.636500172188475
2.0355751561925763,-0.7069779259301584
2.0689452407203235,-0.7785731917091081
2.1023153252480706,-0.8741188883523875
2.1356854097758178,-0.9990839004350953
2.169055494303565,-1.1326989579374902
2.202425578831312,-1.2296867194952457
2.235795663359059,-1.2352377089289375
2.2691657478868064,-1.1087567379923384
2.3025358324145535,-0.8458885500934222
2.3359059169423007,-0.4872867741066414
2.369276001470048,-0.10786724410266779
2.402646085997795,0.21037294226878273
2.436016170525542,0.41032295616750614
2.4693862550532892,0.48179718720752096
2.5027563395810364,0.4632223555587739
2.5361264241087835,0.4221070275058668
2.5694965086365307,0.42340029245775346
2.602866593164278,0.5002952746071835
2.636236677692025,0.6404822104241378
2.669606762219772,0.7933717794664815
2.7029768467475193,0.8941950550898221
2.7363469312752664,0.8936153819674578
2.7697170158030135,0.7795898888485245
2.8030871003307607,0.5821463131813089
2.836457184858508,0.3595112662601145
2.869827269386255,0.17225171080640664
2.903197353914002,0.057314660792103886
2.9365674384417493,0.01379685732874896
2.9699375229694964,0.006802743661422623
3.0033076074972436,-0.012842854852602502
3.0366776920249907,-0.08294411961844883
3.070047776552738,-0.211095719922638
3.103417861080485,-0.3717227438366909
3.136787945608232,-0.5197013182303216
3.1701580301359793,-0.6127650414590314
3.203528114663727,-0.6309295813242816
3.236898199191474,-0.5836761280648732
3.270268283719221,-0.5027557747025688
3.3036383682469683,-0.4258426690759111
3.3370084527747155,-0.3798407947660357
3.3703785373024626,-0.37114905992394887
3.4037486218302098,-0.38547720607322916
3.437118706357957,-0.3951918871167611
3.470488790885704,-0.370000427390241
3.503858875413451,-0.2871400362452263
3.5372289599411983,-0.13861394305101388
3.5705990444689455,0.06598301391624431
3.6039691289966926,0.30191613816635454
3.63733921352444,0.5367523440105934
3.670709298052187,0.7402942028346226
3.704079382579934,0.892390833330894
3.7374494671076812,0.9842151492115842
3.7708195516354284,1.0123067751981871
3.8041896361631755,0.9701513164529142
3.8375597206909227,0.8451528585103356
3.87092980521867,0.6261391367026533
3.904299889746417,0.31869188446581653
3.937669974274164,-0.042155582899306945
3.9710400588019112,-0.39362951688449443
4.004410143329658,-0.6655466443865815
4.0377802278574055,-0.8110521293627805
4.071150312385153,-0.8305813968765339
4.1045203969129,-0.77322288251563
4.137890481440647,-0.7116401977894764
4.171260565968394,-0.7023639255638517
4.204630650496141,-0.7528733891848531
4.238000735023888,-0.8143544347196371
4.2713708195516356,-0.8056005488431971
4.304740904079383,-0.6567424425156015
4.33811098860713,-0.350487183347042
4.371481073134877,0.06088968291382948
4.404851157662624,0.47271460929618775
4.438221242190371,0.7720209920186132
4.471591326718118,0.8875799422375238
4.504961411245866,0.821499283480829
4.538331495773613,0.6469273675502962
4.57170158030136,0.47301540482415455
4.605071664829107,0.39411435330572686
4.638441749356854,0.44727923956021864
4.671811833884601,0.5973726563822164
4.7051819184123485,0.7554060202849672
4.738552002940096,0.8203662943647365
4.771922087467843,0.7249380578275396
4.80529217199559,0.4651559050801181
4.838662256523337,0.1022836682067893
4.872032341051084,-0.26235188863974074
4.905402425578831,-0.5278335130897116
4.9387725101065785,-0.632344359740404
4.972142594634326,-0.574808922379805
5.005512679162073,-0.4118571569834773
5.03888276368982,-0.23260173048763888
5.072252848217567,-0.12231788410130946
5.105622932745314,-0.12999553040300718
5.138993017273061,-0.25256411258381883
5.1723631018008085,-0.4413240692099797
5.205733186328556,-0.626656543825559
5.239103270856303,-0.7493147319732635
5.27247335538405,-0.7839702512617576
5.305843439911797,-0.7446344307580514
5.339213524439544,-0.6705258344627442
5.372583608967291,-0.6006710712244259
5.4059536934950385,-0.5510247790075734
5.439323778022786,-0.5061634582083233
5.472693862550533,-0.42948571264183977
5.50606394707828,-0.2857476678963279
5.539434031606027,-0.06321228278162458
5.572804116133774,0.21678901284643023
5.606174200661521,0.5079408088142228
5.6395442851892685,0.7600279763410946
5.672914369717016,0.9414457320463364
5.706284454244763,1.0510734096731904
5.73965453877251,1.1134618905813582
5.773024623300257,1.1603765871764669
5.806394707828004,1.2089906033893743
5.839764792355751,1.248662169312298
5.873134876883499,1.243533857415166
5.906504961411246,1.1497761247443017
5.939875045938993,0.9386932871367702
5.97324513046674,0.6141039711208962
6.006615214994487,0.2156700387535065
6.039985299522234,-0.19290698256110855
6.073355384049981,-0.5447957693792419
6.106725468577729,-0.7907228595443554
6.140095553105476,-0.9117153212039857
6.173465637633223,-0.9208643819163482
6.20683572216097,-0.8556864140845518
6.240205806688717,-0.7650024326519969
6.273575891216464,-0.6943388666596203
6.3069459757442115,-0.6731420733831318
6.340316060271959,-0.7067553170755333
6.373686144799706,-0.7758557799624041
6.407056229327454,-0.844680313867943
6.440426313855201,-0.8762641279383847
6.473796398382948,-0.8491361671473072
6.507166482910695,-0.7677914038468916
6.540536567438442,-0.6607636660984076
6.5739066519661895,-0.5653010483727566
6.607276736493937,-0.5043444333852419
6.640646821021684,-0.4664818339039737
6.674016905549431,-0.40010259893154126
6.707386990077178,-0.22820497302632492
6.740757074604925,0.1184297877279862
6.774127159132672,0.6613810614518795
6.8074972436604195,1.3455289706579985
6.840867328188167,2.0369446526521036
6.874237412715914,2.554589073567839
6.907607497243661,2.728371165918426
6.940977581771408,2.4629169605723393
6.974347666299155,1.7809892494099437
7.007717750826902,0.8266063123436446
7.0410878353546495,-0.17617553321457202
7.074457919882397,-0.9940870112134754
7.107828004410144,-1.4576920884413058
7.141198088937891,-1.5089314415760184
7.174568173465638,-1.2074267782372794
7.207938257993385,-0.6978728122684091
7.241308342521132,-0.15596953346416342
7.27467842704888,0.2642970841041124
7.308048511576627,0.46480473456936844
7.341418596104374,0.41359910691752744
7.374788680632121,0.1371452724325935
7.408158765159868,-0.2950869189291315
7.441528849687615,-0.7861727350641629
7.4748989342153624,-1.226466904502948
7.50826901874311,-1.5111605465570344
7.541639103270857,-1.5630608758911102
7.575009187798604,-1.3566249816280058
7.608379272326351,-0.9327024440353757
7.641749356854098,-0.39255729237140813
7.675119441381845,0.13281046184841455
7.7084895259095925,0.5292527723042049
7.74185961043734,0.7424596964718666
7.775229694965087,0.796420310825357
7.808599779492834,0.7766175788439497
7.841969864020581,0.7843585574791834
7.875339948548328,0.8836199788960589
7.908710033076075,1.0663240785681345
7.9420801176038225,1.2534059587445014
7.97545020213157,1.3317163395094311
8.008820286659317,1.2094274664645135
8.042190371187063,0.863647428610312
8.075560455714811,0.35756985925177837
8.108930540242557,-0.18121038104623793
8.142300624770305,-0.6115065503474437
8.175670709298052,-0.8354684747534368
8.2090407938258,-0.8362064474724307
8.242410878353546,-0.679947262900147
8.275780962881294,-0.4828462613826439
8.30915104740904,-0.358261017865878
8.342521131936788,-0.3684028914512297
8.375891216464534,-0.5015277698460201
8.409261300992283,-0.6837478147771495
8.442631385520029,-0.8186397461064031
8.476001470047777,-0.8351923155181795
8.509371554575523,-0.7210402029516507
8.542741639103271,-0.5252482149007851
8.57611172363102,-0.32995950481065606
8.609481808158765,-0.20582418106213307
8.642851892686513,-0.17437433480266934
8.67622197721426,-0.19691786607703685
8.709592061742008,-0.19570205297626406
8.742962146269754,-0.09619702203637585
8.776332230797502,0.13169620381444114
8.809702315325248,0.4550223704169675
8.843072399852996,0.7912151053420525
8.876442484380743,1.0461920957392803
8.90981256890849,1.157007726130454
8.943182653436237,1.117264190161116
8.976552737963985,0.9734505675478701
9.009922822491731,0.796271732358938
9.04329290701948,0.6439522300785746
9.076662991547225,0.5374967999900481
9.110033076074973,0.45977477934143995
9.14340316060272,0.3761036250821778
9.176773245130468,0.261984547583217
9.210143329658214,0.12057123223572824
9.243513414185962,-0.020193515934733022
9.276883498713708,-0.12773828686396396
9.310253583241456,-0.18848990243622082
9.343623667769203,-0.21918792492573283
9.37699375229695,-0.25807947992103747
9.410363836824697,-0.341075448125411
9.443733921352445,-0.4777435785397724
9.477104005880191,-0.6425523920110319
9.51047409040794,-0.787553170071469
9.543844174935685,-0.8692880791068572
9.577214259463434,-0.8734931289433451
9.61058434399118,-0.822041020521358
9.643954428518928,-0.757236728228638
9.677324513046674,-0.712616925715019
9.710694597574422,-0.6882250552706402
9.744064682102168,-0.6464478575436488
9.777434766629916,-0.5328071533278139
9.810804851157663,-0.31129499817347206
9.84417493568541,0.005546023743700858
9.877545020213157,0.35006437148608455
9.910915104740905,0.6228600087119921
9.944285189268651,0.7365349697490582
9.9776552737964,0.6588347586294303
10.011025358324146,0.43329415479915945
10.044395442851894,0.16574810260802442
10.07776552737964,-0.01867435703459873
10.111135611907388,-0.029165760566311538
10.144505696435134,0.15091927014001127
10.177875780962882,0.456457605141305
10.211245865490628,0.7690129501716422
10.244615950018376,0.9685800890996533
10.277986034546123,0.9850388846223107
10.31135611907387,0.825909905284768
10.344726203601617,0.5681870304266508
10.378096288129365,0.3189616298678759
10.411466372657111,0.16416441842113064
10.44483645718486,0.1299927415251301
10.478206541712606,0.17488536236573357
10.511576626240354,0.21454228139063986
10.5449467107681,0.1662122915746611
10.578316795295848,-0.010355177561930176
10.611686879823594,-0.2948402362873088
10.645056964351342,-0.6178621305500711
10.678427048879088,-0.8935520847435279
10.711797133406836,-1.055386551407458
10.745167217934583,-1.0783823473436465
10.77853730246233,-0.9799901020478033
10.811907386990077,-0.8034648638958395
10.845277471517825,-0.594914692223851
10.878647556045571,-0.3857506734616464
10.91201764057332,-0.18713505328334293
10.945387725101066,0.004032036734216066
10.978757809628814,0.19329363165786348
11.01212789415656,0.37812815027752067
11.045497978684308,0.5437665243824555
11.078868063212054,0.6665102061807467
11.112238147739802,0.722343507700443
11.145608232267548,0.6969431928703869
11.178978316795297,0.5931540246558321
11.212348401323043,0.4329835550964234
11.24571848585079,0.2527867818517823
11.279088570378537,0.0925179447044698
11.312458654906285,-0.01760633507779362
11.345828739434031,-0.06797855333899662
11.37919882396178,-0.07321317642421202
11.412568908489526,-0.06634272938268614
11.445938993017274,-0.0854753325062927
11.47930907754502,-0.1582731963498894
11.512679162072768,-0.29068188281520196
11.546049246600514,-0.4643297612801849
11.579419331128262,-0.6429141713755598
11.612789415656009,-0.7838951900648978
11.646159500183757,-0.850120832804389
11.679529584711503,-0.8174232560280812
11.71289966923925,-0.67755726078643
11.746269753766997,-0.43860088595930935
11.779639838294745,-0.1250929145118523
11.813009922822491,0.22215268066952212
11.84638000735024,0.5491836022047868
11.879750091877986,0.7978126006579035
11.913120176405734,0.9201458916776007
11.94649026093348,0.8943157970575586
11.979860345461228,0.734456623175867
12.013230429988974,0.4892276232505151
12.046600514516722,0.22791221196518976
12.079970599044469,0.018810741568531127
12.113340683572217,-0.0917784373662442
12.146710768099963,-0.0920461992498844
12.180080852627711,-0.004572944533146437
12.213450937155457,0.12513759492845578
12.246821021683205,0.24611906755451501
12.280191106210951,0.3185717072716285
12.3135611907387,0.3242104966128467
12.346931275266446,0.26804349810055406
12.380301359794194,0.17265774473406667
12.41367144432194,0.0682909589082889
12.447041528849688,-0.01756232886228499
12.480411613377434,-0.06812965399341159
12.513781697905182,-0.08134699342807773
12.547151782432929,-0.06934586423065764
12.580521866960677,-0.053756658260546285
12.613891951488423,-0.058061006992180884
12.647262036016171,-0.09926670163155529
12.680632120543917,-0.18176505366025328
12.714002205071665,-0.2956619048180883
12.747372289599411,-0.4201187034810592
12.78074237412716,-0.5301774614510503
12.814112458654908,-0.6043312458721355
12.847482543182654,-0.6302653179243629
12.880852627710402,-0.6072999894016632
12.914222712238148,-0.5452528323662376
12.947592796765896,-0.46022309064818484
12.980962881293642,-0.36835944505450047
13.01433296582139,-0.2793514496052572
13.047703050349137,-0.19204213328076428
13.081073134876885,-0.09449252184180415
13.114443219404631,0.030545628046261042
13.147813303932379,0.19617658205415853
13.181183388460125,0.40153302970864424
13.214553472987873,0.625851965206338
13.24792355751562,0.8294798247656157
13.281293642043368,0.9623497164584964
13.314663726571114,0.9779120808243963
13.348033811098862,0.848676469973434
13.381403895626608,0.578707469956285
13.414773980154356,0.2086699616363715
13.448144064682102,-0.1895380953377198
13.48151414920985,-0.5288371992335027
13.514884233737597,-0.7304213673438744
13.548254318265345,-0.7479698357271993
13.581624402793091,-0.5843084561332224
13.614994487320839,-0.29356845872242404
13.648364571848585,0.03356402182000838
13.681734656376333,0.29766130227418175
13.71510474090408,0.4222831266387098
13.748474825431828,0.3785682666556288
13.781844909959574,0.19400115167912954
13.815214994487322,-0.0577437662372922
13.848585079015068,-0.28239697135795844
13.881955163542816,-0.3973899673429061
13.915325248070562,-0.35982302837579816
13.94869533259831,-0.18045326202367623
13.982065417126057,0.0812051530114335
14.015435501653805,0.3388751110893817
14.048805586181551,0.5105128169731663
14.082175670709299,0.5468642092410498
14.115545755237045,0.4472343221308948
14.148915839764793,0.25720988346465146
14.18228592429254,0.04995500194856725
14.215656008820288,-0.10140498251311444
14.249026093348034,-0.14996829683018226
14.282396177875782,-0.09046698516326401
14.315766262403528,0.04116143767338551
14.349136346931276,0.18312848845146695
14.382506431459023,0.27168358869187514
14.41587651598677,0.2642662902184759
14.449246600514517,0.15347176558366268
14.482616685042265,-0.03260515553652529
14.515986769570011,-0.24273329547485065
14.54935685409776,-0.4222022597783287
14.582726938625505,-0.532171377849271
14.616097023153253,-0.5616419579395822
14.649467107681,-0.5278964901652777
14.682837192208748,-0.465697576828898
14.716207276736494,-0.4101182286389427
14.749577361264242,-0.38069624091465054
14.782947445791988,-0.3740682976420354
14.816317530319736,-0.36819293208964443
14.849687614847483,-0.3355566826175071
14.88305769937523,-0.2583949366151841
14.916427783902977,-0.13834311413777595
14.949797868430725,0.003699091910707387
14.983167952958471,0.13642766343801713
15.01653803748622,0.23051210778730175
15.049908122013965,0.2684429314623465
15.083278206541713,0.2483277174155389
15.11664829106946,0.18208307536086685
15.150018375597208,0.09123418987044743
15.183388460124954,0.003426463816217244
15.216758544652702,-0.04981879243285628
15.250128629180448,-0.0363735289433116
15.283498713708196,0.06942445652089183
15.316868798235943,0.27580330523721197
15.35023888276369,0.5628817995087576
15.383608967291437,0.8791472342002388
15.416979051819185,1.1504256110350317
15.450349136346931,1.3010081435357506
15.48371922087468,1.2797222158839012
15.517089305402425,1.0797924219114854
15.550459389930174,0.7430128914720996
15.58382947445792,0.3455343278517105
15.617199558985668,-0.028978516304865937
15.650569643513414,-0.31730730679487473
15.683939728041162,-0.4941037196777063
15.717309812568908,-0.5725931196902776
15.750679897096656,-0.5905892280947359
15.784049981624403,-0.5905042258593661
15.81742006615215,-0.6036430733908514
15.850790150679897,-0.6449385342631048
15.884160235207645,-0.7170895343467375
15.917530319735391,-0.8173972170023084
15.95090040426314,-0.9401014847851057
15.984270488790886,-1.0719152698437913
16.017640573318634,-1.185182142312961
16.05101065784638,-1.236674947224897
16.084380742374126,-1.177593746306661
16.117750826901876,-0.9730629609173486
16.151120911429622,-0.6220456973089432
16.18449099595737,-0.16614670049081556
16.217861080485115,0.31959540313457985
16.251231165012864,0.7514014790589025
16.28460124954061,1.0656608313284979
16.317971334068357,1.2380933191241472
16.351341418596103,1.2844268381318331
16.384711503123853,1.2440239560329462
16.4180815876516,1.1569479380455598
16.451451672179346,1.0475224266157381
16.484821756707092,0.9221873098176854
16.51819184123484,0.7798954882248761
16.551561925762588,0.6255054503644157
16.584932010290334,0.47541709094306533
16.61830209481808,0.3506556240304128
16.65167217934583,0.26178129052895005
16.685042263873576,0.19643185333061447
16.718412348401323,0.11976111460175395
16.75178243292907,-0.009384504877222491
16.78515251745682,-0.21369486861290682
16.818522601984565,-0.4777773904400753
16.85189268651231,-0.7464713777292781
16.885262771040058,-0.9452457967392369
16.918632855567807,-1.0147371652994714
16.952002940095554,-0.9424493778997605
16.9853730246233,-0.7741470565190917
17.018743109151046,-0.5967364500596549
17.052113193678796,-0.4991146879350061
17.085483278206542,-0.5296643716791098
17.11885336273429,-0.671745917126307
17.15222344726204,-0.8498590384544255
17.185593531789785,-0.9637019946580094
17.21896361631753,-0.9334691698116807
17.252333700845277,-0.7346088006631171
17.285703785373027,-0.4061440729168332
17.319073869900773,-0.029983728732398462
17.35244395442852,0.30759087652541844
17.385814038956266,0.5534818495515483
