Frequency (Hz),Amplitude
0.0,5.813792086399
0.019823788546255508,5.816243159447166
0.039647577092511016,5.8235806207817635
0.059471365638766524,5.835757432204102
0.07929515418502203,5.852695972258699
0.09911894273127755,5.874289170159488
0.11894273127753305,5.900402036529922
0.13876651982378857,5.930873538691664
0.15859030837004406,5.965518759200591
0.17841409691629956,6.004131270888011
0.1982378854625551,6.046485659846132
0.2180616740088106,6.092340129343131
0.2378854625550661,6.141439122072038
0.25770925110132165,6.193515904797745
0.27753303964757714,6.2482950676548095
0.29735682819383263,6.305494899372966
0.31718061674008813,6.364829608928973
0.3370044052863437,6.426011373018301
0.3568281938325991,6.488752196907971
0.37665198237885467,6.552765583402218
0.3964757709251102,6.617768010678892
0.41629955947136565,6.68348022459065
0.4361233480176212,6.749628354705461
0.4559471365638767,6.815944865980633
0.4757709251101322,6.882169359647971
0.49559471365638774,6.94804923778509
0.5154185022026433,7.013340246304597
0.5352422907488987,7.077806910854872
0.5550660792951543,7.141222879520015
0.5748898678414097,7.203371185346127
0.5947136563876653,7.26404444069962
0.6145374449339208,7.323044974355836
0.6343612334801763,7.380184921081879
0.6541850220264318,7.435286272361024
0.6740088105726874,7.488180895836406
0.6938325991189428,7.538710530052809
0.7136563876651982,7.586726760156631
0.7334801762114539,7.632090979384612
0.7533039647577093,7.674674340430774
0.7731277533039648,7.714357700127862
0.7929515418502204,7.751031560309012
0.8127753303964759,7.784596007221908
0.8325991189427313,7.814960651445116
0.8524229074889869,7.842044569895738
0.8722466960352424,7.865776251214434
0.8920704845814978,7.88609354555905
0.9118942731277534,7.902943619625371
0.931718061674009,7.916282917538378
0.9515418502202644,7.926077128110699
0.9713656387665199,7.9323011588450365
0.9911894273127755,7.9349391169560155
1.0110132158590308,7.933984297602189
1.0308370044052866,7.929439179443822
1.0506607929515421,7.921315427575076
1.0704845814977975,7.909633903814394
1.090308370044053,7.894424684270672
1.1101321585903086,7.875727084032395
1.1299559471365639,7.853589688746108
1.1497797356828194,7.828070392757325
1.1696035242290752,7.799236443375026
1.1894273127753305,7.767164490686417
1.209251101321586,7.731940642185882
1.2290748898678416,7.693660521285652
1.248898678414097,7.652429328539377
1.2687224669603525,7.6083619041274
1.288546255506608,7.561582789816084
1.3083700440528636,7.512226288207848
1.3281938325991192,7.460436516634079
1.3480176211453747,7.406367452504729
1.36784140969163,7.350182966308531
1.3876651982378856,7.292056837752025
1.4074889867841411,7.232172749729842
1.4273127753303965,7.170724253934109
1.4471365638766522,7.107914700939347
1.4669603524229078,7.043957126552518
1.4867841409691631,6.9790740851113355
1.5066079295154187,6.913497419275118
1.5264317180616742,6.847467954719184
1.5462555066079295,6.781235107068553
1.5660792951541853,6.715056387457828
1.5859030837004409,6.649196792367937
1.6057268722466962,6.583928062971423
1.6255506607929517,6.519527799239541
1.6453744493392073,6.456278414665009
1.6651982378854626,6.394465918781274
1.6850220264317182,6.334378516864493
1.7048458149779737,6.276305019425515
1.7246696035242293,6.22053305844816
1.7444933920704848,6.167347112870234
1.7643171806167404,6.117026352527467
1.7841409691629957,6.069842317586989
1.8039647577092512,6.0260564591681876
1.8237885462555068,5.9859175760416115
1.8436123348017623,5.949659191531946
1.863436123348018,5.917496923436071
1.8832599118942732,5.889625907217486
1.9030837004405288,5.866218338240674
1.9229074889867843,5.8474212016788
1.9427312775330399,5.833354258401896
1.9625550660792954,5.824108351260222
1.982378854625551,5.819744088617329
2.002202643171806,5.820290950970585
2.0220264317180616,5.825746852554906
2.041850220264317,5.836078173781614
2.061674008810573,5.85122026325539
2.0814977973568287,5.8710783910917215
2.1013215859030843,5.895529119463796
2.1211453744493394,5.924422042756501
2.140969162995595,5.957581839175058
2.1607929515418505,5.994810568635299
2.180616740088106,6.035890148409965
2.2004405286343616,6.080584938179302
2.220264317180617,6.128644369427896
2.2400881057268722,6.179805559958324
2.2599118942731278,6.2337958619616805
2.2797356828193833,6.290335300883035
2.299559471365639,6.349138871574053
2.319383259911895,6.409918667356854
2.3392070484581504,6.472385826176949
2.3590308370044055,6.536252285670563
2.378854625550661,6.6012323455188175
2.3986784140969166,6.667044040818045
2.418502202643172,6.733410334369177
2.4383259911894277,6.800060138850907
2.4581497797356833,6.866729181906473
2.4779735682819384,6.933160728385458
2.497797356828194,6.999106174489338
2.5176211453744495,7.064325528519945
2.537444933920705,7.128587792459722
2.5572687224669606,7.191671257842027
2.577092511013216,7.253363728400438
2.5969162995594717,7.313462680901227
2.6167400881057272,7.371775374429603
2.6365638766519828,7.428118917266622
2.6563876651982383,7.482320299397382
2.676211453744494,7.534216397657028
2.6960352422907494,7.583653959563907
2.715859030837005,7.6304895710197265
2.73568281938326,7.674589612275677
2.7555066079295156,7.715830205872132
2.775330396475771,7.754097159653507
2.7951541850220267,7.7892859074335385
2.8149779735682823,7.821301449433694
2.834801762114538,7.850058294231472
2.854625550660793,7.875480403628176
2.874449339207049,7.89750114157138
2.8942731277533045,7.916063228037758
2.91409691629956,7.931118698591356
2.9339207048458156,7.942628870175171
2.953744493392071,7.950564313562952
2.9735682819383262,7.95490483279053
2.993392070484582,7.955639451794685
3.0132158590308373,7.952766408409837
3.033039647577093,7.946293155802993
3.0528634361233484,7.936236371362954
3.072687224669604,7.922621972995067
3.092511013215859,7.905485142705154
3.1123348017621146,7.88487035728063
3.1321585903083706,7.860831425790459
3.151982378854626,7.833431533521389
3.1718061674008817,7.802743291844965
3.1916299559471373,7.768848793358545
3.2114537444933924,7.7318396714629465
3.231277533039648,7.691817163319605
3.2511013215859035,7.648892174866884
3.270925110132159,7.6031853462620145
3.2907488986784146,7.554827115742236
3.31057268722467,7.503957779462374
3.3303964757709252,7.450727544355492
3.350220264317181,7.395296570474088
3.3700440528634363,7.337834998594056
3.389867841409692,7.27852295809867
3.4096916299559474,7.217550549302966
3.4295154185022034,7.155117793431902
3.4493392070484585,7.09143454243555
3.469162995594714,7.02672033972397
3.4889867841409696,6.961204221757336
3.508810572687225,6.895124449263689
3.5286343612334807,6.828728155726693
3.5484581497797363,6.762270899748
3.5682819383259914,6.6960161070246995
3.588105726872247,6.630234387088505
3.6079295154185025,6.565202709747515
3.627753303964758,6.501203426487776
3.6475770925110136,6.438523123078383
3.667400881057269,6.377451291433722
3.6872246696035247,6.318278811569674
3.7070484581497802,6.261296238375191
3.726872246696036,6.206791892997231
3.7466960352422913,6.155049764933892
3.7665198237885464,6.106347238390385
3.7863436123348024,6.060952664909795
3.8061674008810575,6.01912281345392
3.8259911894273135,5.981100238550457
3.8458149779735686,5.947110616287275
3.8656387665198246,5.917360106158856
3.8854625550660797,5.892032803332265
3.905286343612335,5.871288350078837
3.925110132158591,5.8552597762744
3.9449339207048464,5.84405163652965
3.964757709251102,5.837738505444391
3.9845814977973575,5.836363882757056
4.004405286343612,5.83993954718679
4.024229074889869,5.848445382257967
4.044052863436123,5.861829680331567
4.06387665198238,5.880009913584696
4.083700440528634,5.902873943962552
4.103524229074891,5.930281629277881
4.123348017621146,5.962066770560177
4.143171806167401,5.998039337085987
4.162995594713657,6.037987900558669
4.182819383259912,6.081682208627224
4.2026431718061685,6.12887583003021
4.222466960352423,6.179308808590899
4.242290748898679,6.232710270401121
4.262114537444934,6.288800937087193
4.28193832599119,6.3472955073401955
4.301762114537445,6.407904878284731
4.321585903083701,6.470338187233294
4.3414096916299565,6.534304662544456
4.361233480176212,6.599515279417767
4.381057268722468,6.665684222386121
4.400881057268723,6.732530160978109
4.420704845814979,6.799777348567497
4.440528634361234,6.86715655690738
4.46035242290749,6.934405860399112
4.4801762114537445,7.001271284923033
4.500000000000001,7.06750733621017
4.5198237885462555,7.132877422406789
4.539647577092512,7.197154184805183
4.559471365638767,7.26011974979643
4.579295154185023,7.321565914034769
4.599118942731278,7.381294273664618
4.618942731277533,7.439116307304379
4.63876651982379,7.494853421350468
4.658590308370044,7.548336965088457
4.678414096916301,7.599408222095767
4.6982378854625555,7.647918383503696
4.718061674008811,7.693728507859738
4.737885462555067,7.736709471596605
4.757709251101322,7.776741913467023
4.777533039647578,7.813716175740597
4.797356828193833,7.847532244472958
4.817180616740089,7.8780996907421965
4.837004405286344,7.905337614394805
4.856828193832599,7.929174591546541
4.876651982378855,7.949548626835674
4.896475770925111,7.96640711121942
4.9162995594713665,7.9797067859342325
4.936123348017622,7.989413713099463
4.955947136563877,7.995503253327706
4.975770925110133,7.997960050608618
4.995594713656388,7.99677802465036
5.015418502202644,7.991960370791921
5.035242290748899,7.98351956753387
5.055066079295155,7.971477391672246
5.07488986784141,7.955864940955458
5.094713656387666,7.936722664113531
5.114537444933921,7.914100398028345
5.134361233480177,7.888057411718769
5.154185022026432,7.858662456700278
5.174008810572688,7.825993823140902
5.193832599118943,7.790139401067792
5.213656387665199,7.751196745675435
5.2334801762114544,7.709273145542237
5.25330396475771,7.664485692268694
5.2731277533039655,7.616961349701265
5.292951541850221,7.566837020493245
5.312775330396477,7.514259607270823
5.332599118942731,7.459386065109758
5.352422907488988,7.402383441381179
5.372246696035242,7.34342889828667
5.392070484581499,7.282709712570077
5.4118942731277535,7.220423245966952
5.43171806167401,7.156776878934123
5.451541850220265,7.091987899104123
5.47136563876652,7.026283334748337
5.491189427312777,6.959899722337474
5.511013215859031,6.893082796098966
5.530837004405288,6.826087086343712
5.550660792951542,6.759175412341243
5.570484581497798,6.69261825475559
5.5903083700440535,6.626692992223947
5.610132158590309,6.561682986698656
5.6299559471365646,6.4978765028257905
5.64977973568282,6.435565448058495
5.669603524229076,6.375043922558899
5.689427312775331,6.3166065713746935
5.709251101321586,6.260546736000041
5.729074889867842,6.207154408310594
5.748898678414098,6.156713996982135
5.768722466960353,6.1095019247501146
5.788546255506609,6.065784084000844
5.808370044052864,6.025813187830734
5.82819383259912,5.989826063350756
5.848017621145375,5.958040943011166
5.867841409691631,5.930654817350206
5.887665198237886,5.90784091807273
5.907488986784142,5.889746403031109
5.927312775330397,5.876490313931979
5.9471365638766525,5.868161873068216
5.966960352422908,5.864819177007014
5.986784140969164,5.866488333217849
6.00660792951542,5.873163070702379
6.026431718061675,5.8848048386962
6.04625550660793,5.901343389570508
6.066079295154186,5.922677824389784
6.085903083700441,5.948678063373067
6.105726872246697,5.979186689796053
6.125550660792952,6.014021105439188
6.145374449339208,6.052975928988518
6.1651982378854635,6.095825565945667
6.185022026431718,6.142326879396131
6.204845814977975,6.192221894954861
6.224669603524229,6.2452404797081895
6.244493392070486,6.301102943261938
6.264317180616741,6.359522518338519
6.284140969162996,6.420207688046782
6.303964757709252,6.482864336394405
6.323788546255507,6.547197707367677
6.3436123348017635,6.612914165655499
6.363436123348018,6.679722758660257
6.3832599118942746,6.747336584751742
6.403083700440529,6.8154739768033705
6.422907488986785,6.883859512990884
6.44273127753304,6.952224868764765
6.462555066079296,7.02030952497848
6.482378854625551,7.087861347527876
6.502202643171807,7.154637053680975
6.5220264317180625,7.220402579695609
6.541850220264318,7.284933363454496
6.561674008810574,7.348014554795319
6.581497797356829,7.409441165062278
6.601321585903085,7.469018166216982
6.62114537444934,7.526560548671672
6.640969162995596,7.581893345879467
6.6607929515418505,7.634851632659059
6.680616740088107,7.685280503258539
6.700440528634362,7.733035034283157
6.720264317180618,7.777980236825367
6.740088105726873,7.8199910014421015
6.759911894273129,7.858952039018523
6.779735682819384,7.894757820033641
6.799559471365639,7.927312514294767
6.819383259911895,7.956529932825647
6.83920704845815,7.982333473272393
6.859030837004407,8.00465606992145
6.8788546255506615,8.023440149200326
6.898678414096917,8.038637591347424
6.918502202643173,8.05020969878415
6.938325991189428,8.0581271715983
6.958149779735684,8.062370090444048
6.977973568281939,8.062927907077272
6.997797356828195,8.059799442671599
7.01762114537445,8.052992893994459
7.037444933920705,8.042525847460878
7.0572687224669615,8.028425301020796
7.077092511013216,8.010727693770301
7.096916299559473,7.989478943102471
7.116740088105728,7.9647344891270535
7.136563876651983,7.936559345984373
7.156387665198239,7.905028159552116
7.176211453744494,7.870225270890466
7.19603524229075,7.832244784583489
7.215859030837005,7.791190640907688
7.235682819383261,7.747176690485226
7.255506607929516,7.700326769751757
7.275330396475772,7.650774775179164
7.295154185022027,7.598664733734674
7.314977973568283,7.544150866521195
7.334801762114538,7.487397641921082
7.354625550660794,7.428579813852013
7.374449339207049,7.367882439931684
7.394273127753305,7.305500873437921
7.4140969162995605,7.241640721941357
7.433920704845816,7.176517764387628
7.453744493392072,7.11035781722804
7.473568281938327,7.0433965389654025
7.493392070484583,6.975879161230402
7.513215859030838,6.908060133282126
7.533039647577093,6.8402026657015496
7.552863436123348,6.772578158103049
7.572687224669605,6.705465495032806
7.59251101321586,6.639150193981331
7.612334801762115,6.573923389755367
7.6321585903083715,6.51008064049373
7.651982378854627,6.447920542539352
7.671806167400882,6.387743144358381
7.691629955947137,6.3298481538675375
7.711453744493394,6.274532938990871
7.731277533039649,6.222090328045776
7.751101321585904,6.172806224592183
7.7709251101321595,6.12695706048275
7.790748898678416,6.084807120704357
7.81057268722467,6.046605783728456
7.830396475770926,6.012584730879858
7.850220264317182,5.98295518696283
7.870044052863436,5.957905261261912
7.889867841409693,5.937597462281349
7.909691629955948,5.922166460517413
7.929515418502204,5.9117171706765
7.9493392070484585,5.906323217839205
7.969162995594715,5.906025841242527
7.9889867841409705,5.910833275087229
8.008810572687224,5.920720628895095
8.02863436123348,5.935630271530171
8.048458149779737,5.955472704314078
8.068281938325994,5.980127890989874
8.088105726872246,6.0094469967952815
8.107929515418503,6.0432544765378164
8.12775330396476,6.081350442947116
8.147577092511014,6.123513241981094
8.167400881057269,6.1695021610985386
8.187224669603525,6.219060199393304
8.207048458149782,6.271916834299783
8.226872246696036,6.327790727576187
8.246696035242293,6.386392322659812
8.266519823788547,6.447426295507483
8.286343612334802,6.510593831024643
8.306167400881058,6.5755947066157505
8.325991189427315,6.642129172872498
8.345814977973568,6.709899628716689
8.365638766519824,6.778612094315982
8.38546255506608,6.8479774897898835
8.405286343612337,6.917712731188085
8.42511013215859,6.98754165758065
8.444933920704846,7.057195804502224
8.464757709251103,7.126415039607545
8.484581497797357,7.194948076385411
8.504405286343614,7.262552881296945
8.524229074889869,7.328996988883157
8.544052863436125,7.394057738343363
8.56387665198238,7.4575224439108885
8.583700440528636,7.519188510121471
8.60352422907489,7.578863501836991
8.623348017621145,7.63636517769488
8.643171806167402,7.691521494528351
8.662995594713658,7.744170589263051
8.682819383259913,7.794160743850886
8.702643171806168,7.841350337955283
8.722466960352424,7.8856077933535715
8.74229074889868,7.926811513366445
8.762114537444935,7.964849820057306
8.78193832599119,7.999620891456696
8.801762114537446,8.031032700652856
8.821585903083701,8.059002958239343
8.841409691629957,8.083459059317995
8.861233480176212,8.10433803601224
8.881057268722468,8.12158651624508
8.900881057268723,8.135160689370737
8.92070484581498,8.145026279115038
8.940528634361234,8.151158524168427
8.960352422907489,8.153542166685
8.980176211453745,8.152171448864452
9.000000000000002,8.147050117727574
9.019823788546258,8.13819143813585
9.039647577092511,8.12561821404668
9.059471365638768,8.109362817935509
9.079295154185024,8.089467228248044
9.099118942731279,8.065983074667898
9.118942731277533,8.038971690890754
9.13876651982379,8.008504174482415
9.158590308370046,7.974661453257541
9.1784140969163,7.93753435744511
9.198237885462555,7.897223696696439
9.218061674008812,7.853840340738216
9.237885462555067,7.807505302165742
9.257709251101323,7.758349819505374
9.27753303964758,7.706515438239335
9.297356828193834,7.65215408697339
9.317180616740089,7.595428145329416
9.337004405286345,7.536510499452746
9.356828193832602,7.475584580231436
9.376651982378855,7.412844378427733
9.396475770925111,7.348494429917683
9.416299559471367,7.282749763129073
9.436123348017622,7.215835799567502
9.455947136563877,7.147988197046448
9.475770925110133,7.079452623917251
9.49559471365639,7.010484451273019
9.515418502202644,6.941348348835813
9.5352422907489,6.872317769108484
9.555066079295155,6.803674303480985
9.57488986784141,6.735706893448699
9.594713656387666,6.6687108800727
9.614537444933923,6.602986875452037
9.634361233480178,6.538839441463351
9.654185022026432,6.476575563532307
9.674008810572689,6.416502910900831
9.693832599118945,6.35892787987688
9.713656387665198,6.304153422974449
9.733480176211454,6.25247667465992
9.75330396475771,6.204186393490035
9.773127753303967,6.159560250490973
9.792951541850222,6.118862004265753
9.812775330396477,6.082338613946385
9.832599118942733,6.050217351008558
9.852422907488988,6.022702979319738
9.872246696035244,5.999975078746733
9.892070484581499,5.98218559040844
9.911894273127754,5.969456660586894
9.93171806167401,5.961878855015543
9.951541850220266,5.959509805701383
9.971365638766521,5.962373338935364
9.991189427312776,5.9704591164232905
10.011013215859032,5.983722802572511
10.030837004405289,6.002086751178921
10.050660792951543,6.02544118545226
10.070484581497798,6.053645827817385
10.090308370044054,6.086531921363785
10.11013215859031,6.123904574006073
10.129955947136565,6.165545349810491
10.14977973568282,6.211215029597767
10.169603524229077,6.2606564645570435
10.189427312775331,6.31359745162704
10.209251101321588,6.36975356706197
10.229074889867842,6.428830904059595
10.248898678414099,6.490528670755084
10.268722466960353,6.554541615523131
10.28854625550661,6.620562256762294
10.308370044052865,6.688282903689094
10.32819383259912,6.757397462837337
10.348017621145376,6.827603031773954
10.367841409691632,6.898601286963918
10.387665198237887,6.970099676795183
10.407488986784141,7.041812433626166
10.427312775330398,7.113461420501829
10.447136563876654,7.184776829073183
10.466960352422909,7.255497745428397
10.486784140969164,7.325372600167065
10.50660792951542,7.394159518273227
10.526431718061675,7.461626583295925
10.546255506607931,7.527552029134251
10.566079295154186,7.591724371431668
10.585903083700442,7.653942489277762
10.605726872246697,7.714015666639471
10.625550660792953,7.77176360173512
10.645374449339208,7.827016391440971
10.665198237885463,7.8796144967966875
10.685022026431719,7.929408694756281
10.704845814977975,7.97626002051597
10.724669603524232,8.020039704035952
10.744493392070485,8.060629103753367
10.764317180616741,8.097919639951504
10.784140969162998,8.131812729797106
10.803964757709252,8.162219725675305
10.823788546255507,8.189061858131751
10.843612334801763,8.212270184465842
10.86343612334802,8.231785543800124
10.883259911894275,8.24755851927222
