Frequency (Hz),Amplitude
0.0,2.2587432207610734
0.019867549668874173,2.2589946914856456
0.039735099337748346,2.259747990183428
0.059602649006622516,2.2609997836832125
0.07947019867549669,2.262744540791827
0.09933774834437085,2.2649745680975166
0.11920529801324503,2.267680059434021
0.13907284768211922,2.270849158364793
0.15894039735099338,2.274468032892011
0.17880794701986755,2.2785209614596074
0.1986754966887417,2.282990429205904
0.2185430463576159,2.287857233332799
0.23841059602649006,2.2931005963932156
0.2582781456953642,2.2986982862602283
0.27814569536423844,2.3046267415260964
0.2980132450331126,2.310861201087953
0.31788079470198677,2.317375836706739
0.33774834437086093,2.324143887374182
0.3576158940397351,2.331137794386872
0.3774834437086093,2.3383293361040924
0.3973509933774834,2.345689761453199
0.4172185430463576,2.353189921340717
0.4370860927152318,2.3608003972257383
0.45695364238410596,2.368491626212388
0.4768211920529801,2.376234022117246
0.49668874172185434,2.3839980920638824
0.5165562913907285,2.3917545482491294
0.5364238410596026,2.3994744146112965
0.5562913907284769,2.407129128210617
0.5761589403973509,2.4146906352037005
0.5960264900662252,2.4221314813583406
0.6158940397350993,2.4294248971109202
0.6357615894039735,2.4365448772173286
0.6556291390728477,2.443466255088424
0.6754966887417219,2.4501647719347335
0.695364238410596,2.4566171408713893
0.7152317880794702,2.4628011061542194
0.7350993377483444,2.4686954977324804
0.7549668874172186,2.474280281312567
0.7748344370860927,2.479536604131877
0.7947019867549668,2.4844468366422037
0.8145695364238411,2.4889946102992844
0.8344370860927152,2.4931648516490914
0.8543046357615894,2.4969438128928463
0.8741721854304636,2.500319099102291
0.8940397350993378,2.5032796922442815
0.9139072847682119,2.505815972159826
0.9337748344370861,2.5079197346281017
0.9536423841059603,2.5095842066295404
0.9735099337748344,2.510804058905938
0.9933774834437087,2.5115754158980756
1.0132450331125828,2.5118958631237174
1.033112582781457,2.5117644520410485
1.0529801324503312,2.511181702424185
1.0728476821192052,2.5101496022593293
1.0927152317880795,2.5086716051515285
1.1125827814569538,2.506752625213527
1.1324503311258278,2.5043990293900964
1.1523178807947019,2.501618627152656
1.1721854304635762,2.498420657480992
1.1920529801324504,2.4948157730316676
1.2119205298013245,2.4908160213746844
1.2317880794701985,2.4864348231640427
1.2516556291390728,2.481686947091657
1.271523178807947,2.476588481459567
1.2913907284768211,2.4711568021917367
1.3112582781456954,2.4654105370951696
1.3311258278145695,2.4593695261702067
1.3509933774834437,2.453054777762599
1.370860927152318,2.4464884203454917
1.390728476821192,2.4396936497185333
1.410596026490066,2.43269467141424
1.4304635761589404,2.4255166381093933
1.4503311258278146,2.418185581851907
1.4701986754966887,2.410728340932368
1.4900662251655628,2.4031724812543773
1.5099337748344372,2.39554621208973
1.5298013245033113,2.3878782961445437
1.5496688741721854,2.38019795390945
1.5695364238410596,2.3725347623234945
1.5894039735099337,2.364918547845148
1.609271523178808,2.35737927409704
1.6291390728476822,2.3499469243313698
1.6490066225165563,2.3426513790515022
1.6688741721854303,2.335522289219616
1.6887417218543048,2.3285889455805147
1.7086092715231789,2.3218801447351645
1.728476821192053,2.315424052702508
1.7483443708609272,2.3092480668128017
1.7682119205298013,2.3033786768762883
1.7880794701986755,2.2978413266658047
1.8079470198675496,2.292660276836822
1.8278145695364238,2.2878584704805878
1.847682119205298,2.283457402562673
1.8675496688741722,2.2794769945362083
1.8874172185430464,2.2759354754353476
1.9072847682119205,2.272849270746199
1.9271523178807946,2.2702329003188457
1.9470198675496688,2.2680988865244114
1.9668874172185429,2.2664576737745463
1.9867549668874174,2.2653175604087634
2.0066225165562916,2.2646846438189465
2.0264900662251657,2.264562779523539
2.0463576158940397,2.2649535547282564
2.066225165562914,2.2658562767222983
2.086092715231788,2.267267976260651
2.1059602649006623,2.269183425882473
2.1258278145695364,2.2715951729150157
2.1456953642384105,2.2744935867197844
2.165562913907285,2.2778669195557217
2.185430463576159,2.281701380268504
2.205298013245033,2.2859812198693827
2.2251655629139075,2.2906888279437028
2.2450331125827816,2.295804838731093
2.2649006622516556,2.301308245647419
2.2847682119205297,2.3071765229727323
2.3046357615894038,2.3133857534098126
2.324503311258278,2.319910760222813
2.3443708609271523,2.326725242692685
2.364238410596027,2.3338019136735664
2.384105960264901,2.3411126380992187
2.403973509933775,2.348628571366821
2.423841059602649,2.3563202966157744
2.443708609271523,2.3641579600158087
2.463576158940397,2.37211140328144
2.4834437086092715,2.3801502927334
2.5033112582781456,2.3882442443315433
2.52317880794702,2.3963629442041405
2.543046357615894,2.4044762642952207
2.562913907284768,2.4125543728414995
2.5827814569536423,2.4205678394744363
2.6026490066225163,2.428487734818007
2.622516556291391,2.4362857245208014
2.642384105960265,2.4439341577199363
2.662251655629139,2.45140614998525
2.6821192052980134,2.4586756608349516
2.7019867549668874,2.465717565949341
2.7218543046357615,2.4725077242366047
2.741721854304636,2.4790230399264166
2.76158940397351,2.48524151988213
2.781456953642384,2.4911423263319827
2.801324503311258,2.4967058252247907
2.821192052980132,2.501913630416355
2.8410596026490067,2.506748643889682
2.8609271523178808,2.5111950922060315
2.8807947019867552,2.5152385593751845
2.9006622516556293,2.518866016322079
2.9205298013245033,2.522065847114198
2.9403973509933774,2.524827872099725
2.9602649006622515,2.527143368090749
2.9801324503311255,2.5290050857093327
3.0,2.5304072639965196
3.0198675496688745,2.5313456423668006
3.0397350993377485,2.531817469971325
3.0596026490066226,2.531821512514938
3.0794701986754967,2.531358056552148
3.0993377483443707,2.530428911268225
3.119205298013245,2.529037407731671
3.1390728476821192,2.5271883955844863
3.1589403973509933,2.524888237117248
3.1788079470198674,2.522144798655752
3.198675496688742,2.5189674391666603
3.218543046357616,2.515366995970012
3.23841059602649,2.511355767427488
3.2582781456953644,2.506947492456559
3.2781456953642385,2.50215732670294
3.2980132450331126,2.4970018151869136
3.3178807947019866,2.4914988612232625
3.3377483443708607,2.4856676914005162
3.3576158940397347,2.4795288163936973
3.3774834437086096,2.4731039873739546
3.3973509933774837,2.4664161477734967
3.4172185430463577,2.4594893801596953
3.437086092715232,2.4523488479744455
3.456953642384106,2.4450207319002266
3.47682119205298,2.437532160626705
3.4966887417218544,2.429911135808735
3.5165562913907285,2.4221864510327116
3.5364238410596025,2.41438760464039
3.556291390728477,2.406544706300949
3.576158940397351,2.398688377272356
3.596026490066225,2.390849644352815
3.615894039735099,2.3830598275927697
3.6357615894039736,2.3753504219169264
3.6556291390728477,2.367752972894696
3.6754966887417218,2.360298946994691
3.695364238410596,2.3530195967649004
3.7152317880794703,2.3459458214917315
3.7350993377483444,2.3391080240082824
3.754966887417219,2.332535964441532
3.774834437086093,2.326258611807291
3.794701986754967,2.3203039944780297
3.814569536423841,2.314699050658309
3.834437086092715,2.309469480101704
3.854304635761589,2.304639598388955
3.8741721854304636,2.3002321951546563
3.8940397350993377,2.296268397696436
3.9139072847682117,2.2927675414230104
3.9337748344370858,2.2897470485919755
3.9536423841059607,2.2872223167546184
3.9735099337748347,2.2852066182600628
3.993377483443709,2.283711012076517
4.013245033112583,2.2827442690623148
4.033112582781457,2.282312811667692
4.052980132450331,2.282420668870771
4.072847682119205,2.283069446954271
4.0927152317880795,2.284258316515522
4.112582781456953,2.285984015879528
4.132450331125828,2.2882408708563786
4.152317880794702,2.291020830558946
4.172185430463576,2.2943135187784836
4.19205298013245,2.2981063002115807
4.211920529801325,2.3023843606462586
4.231788079470199,2.3071308000526303
4.251655629139073,2.312326737387539
4.271523178807947,2.317951425815246
4.291390728476821,2.323982376969657
4.311258278145695,2.330395492836267
4.33112582781457,2.337165203815228
4.3509933774834435,2.3442646115372137
4.370860927152318,2.351665635039818
4.390728476821192,2.3593391589703248
4.410596026490066,2.367255182557968
4.43046357615894,2.3753829681911647
4.450331125827815,2.3836911885389385
4.470198675496689,2.3921480712679632
4.490066225165563,2.400721540522345
4.509933774834438,2.409379354451299
4.529801324503311,2.4180892381855585
4.549668874172186,2.4268190117757897
4.569536423841059,2.4355367127125116
4.589403973509934,2.4442107127463792
4.6092715231788075,2.4528098288182454
4.629139072847682,2.4613034279902775
4.649006622516556,2.469661526341528
4.66887417218543,2.4778548818540993
4.688741721854305,2.4858550813691855
4.708609271523179,2.4936346217367658
4.728476821192054,2.5011669853182688
4.748344370860927,2.5084267100292554
4.768211920529802,2.5153894541299224
4.788079470198675,2.522032055985004
4.80794701986755,2.528332589022943
4.827814569536423,2.534270412127118
4.847682119205298,2.5398262156906872
4.867549668874172,2.544982063561131
4.887417218543046,2.5497214310924483
4.9072847682119205,2.5540292395114035
4.927152317880794,2.5578918867911398
4.947019867549669,2.5612972752100003
4.966887417218543,2.5642348357566664
4.986754966887418,2.5666955495247956
5.006622516556291,2.5686719662213076
5.026490066225166,2.5701582198928077
5.04635761589404,2.571150041954303
5.066225165562914,2.5716447715834296
5.086092715231788,2.57164136352237
5.105960264900662,2.5711403933078025
5.125827814569536,2.570144059927736
5.14569536423841,2.5686561858817054
5.1655629139072845,2.5666822145987203
5.185430463576159,2.56422920514504
5.205298013245033,2.561305824131335
5.225165562913908,2.5579223347063427
5.245033112582782,2.5540905825019156
5.264900662251656,2.5498239783722934
5.28476821192053,2.545137477748684
5.304635761589404,2.5400475564093727
5.324503311258278,2.53457218244551
5.344370860927152,2.528730784183883
5.364238410596027,2.5225442138107907
5.3841059602649,2.51603470642636
5.403973509933775,2.509225834246077
5.4238410596026485,2.5021424556575167
5.443708609271523,2.494810658835267
5.463576158940397,2.487257699616791
5.483443708609272,2.4795119333477236
5.503311258278146,2.471602740416886
5.52317880794702,2.4635604452210913
5.543046357615895,2.4554162283275827
5.562913907284768,2.447202031639344
5.582781456953643,2.438950456416035
5.602649006622516,2.43069465406156
5.622516556291391,2.4224682096593106
5.642384105960264,2.414305018317997
5.662251655629139,2.406239154484417
5.682119205298013,2.3983047344853095
5.701986754966887,2.3905357726765835
5.7218543046357615,2.3829660317045525
5.741721854304636,2.37562886751818
5.7615894039735105,2.3685570699116885
5.781456953642384,2.3617826995204454
5.801324503311259,2.355336922335904
5.821192052980132,2.3492498429454165
5.841059602649007,2.343550337832542
5.860927152317881,2.338265890192645
5.880794701986755,2.3334224278181797
5.900662251655629,2.3290441656868546
5.920529801324503,2.3251534549371216
5.940397350993377,2.321770639936463
5.960264900662251,2.318913925135216
5.980132450331126,2.316599253349355
6.0,2.314840197029711
6.0198675496688745,2.313647863951274
6.039735099337749,2.313030818597355
6.059602649006623,2.312995020321161
6.079470198675497,2.3135437791467344
6.099337748344371,2.314677729827718
6.119205298013245,2.316394824521346
6.139072847682119,2.318690344165543
6.158940397350993,2.321556928374442
6.178807947019867,2.324984623401471
6.198675496688741,2.3289609474658945
6.218543046357616,2.3334709725049994
6.23841059602649,2.3384974212067697
6.258278145695365,2.3440207780010294
6.2781456953642385,2.350019412543722
6.298013245033113,2.356469714123155
6.317880794701987,2.363346235347153
6.337748344370861,2.370621843437186
6.357615894039735,2.3782678774577186
6.377483443708609,2.38625430984241
6.397350993377484,2.3945499106416688
6.417218543046357,2.4031224130021616
6.437086092715232,2.4119386784955616
6.456953642384105,2.420964861035288
6.47682119205298,2.430166568251811
6.496688741721854,2.439509019335559
6.516556291390729,2.4489571984967204
6.5364238410596025,2.4584760033302864
6.556291390728477,2.4680303875093017
6.5761589403973515,2.4775854973574254
6.596026490066225,2.4871068019703495
6.6158940397351,2.496560216665365
6.635761589403973,2.5059122196353876
6.655629139072848,2.515129961770906
6.675496688741721,2.524181369687295
6.695364238410596,2.533035242058662
6.715231788079469,2.541661339411666
6.735099337748344,2.550030467574447
6.754966887417219,2.5581145550085616
6.774834437086093,2.5658867242752446
6.794701986754967,2.5733213579034326
6.814569536423841,2.5803941589358232
6.8344370860927155,2.587082206432215
6.854304635761589,2.593364006207179
6.874172185430464,2.5992195370723423
6.894039735099337,2.604630292843251
6.913907284768212,2.6095793203572724
6.933774834437086,2.6140512537330776
6.95364238410596,2.618032345084058
6.973509933774834,2.621510491878609
6.993377483443709,2.6244752611191386
7.013245033112583,2.626917910489668
7.033112582781457,2.628831406599358
7.052980132450331,2.6302104404257105
7.072847682119205,2.6310514400373664
7.0927152317880795,2.6313525806524134
7.112582781456954,2.6311137920629992
7.132450331125828,2.6303367634325516
7.152317880794702,2.6290249454464605
7.172185430463576,2.6271835497715275
7.19205298013245,2.6248195457538683
7.211920529801324,2.6219416542589036
7.231788079470198,2.6185603385308753
7.251655629139073,2.6146877919232066
7.271523178807947,2.610337922324704
7.291390728476822,2.6055263330805096
7.311258278145695,2.6002703001811898
7.33112582781457,2.5945887454682035
7.3509933774834435,2.5885022055799727
7.370860927152318,2.58203279634028
7.390728476821192,2.5752041722699657
7.410596026490066,2.5680414808849306
7.430463576158941,2.5605713114284345
7.450331125827814,2.5528216376752475
7.470198675496689,2.544821754439168
7.490066225165562,2.536602207416009
7.509933774834438,2.528194716001504
7.52980132450331,2.5196320887393253
7.549668874172186,2.5109481310798336
7.569536423841059,2.5021775451661807
7.589403973509934,2.493355821412337
7.6092715231788075,2.484519121698902
7.629139072847682,2.4757041540873725
7.649006622516557,2.46694803904337
7.66887417218543,2.4582881672643073
7.6887417218543055,2.4497620493266092
7.708609271523178,2.4414071575024066
7.728476821192054,2.433260760243529
7.748344370860927,2.4253597499902497
7.768211920529802,2.4177404651320087
7.788079470198675,2.410438507121946
7.80794701986755,2.403488553925447
7.827814569536423,2.3969241711577722
7.847682119205298,2.3907776224336157
7.8675496688741715,2.385079680605934
7.887417218543046,2.379859441705991
7.907284768211921,2.37514414350643
7.927152317880795,2.370958990706613
7.9470198675496695,2.3673269887812536
7.966887417218543,2.3642687885326694
7.986754966887418,2.3618025433423275
8.006622516556291,2.3599437810253487
8.026490066225167,2.358705292052722
8.046357615894038,2.358097035721215
8.066225165562914,2.358126065623818
8.086092715231787,2.3587964755087207
8.105960264900663,2.3601093663200006
8.125827814569536,2.362062834894905
8.14569536423841,2.364651984461867
8.165562913907285,2.3678689567486564
8.185430463576159,2.3717029851813685
8.205298013245034,2.3761404683432836
8.225165562913906,2.381165062574211
8.245033112582782,2.386757792337056
8.264900662251655,2.39289717676102
8.28476821192053,2.399559370598694
8.304635761589404,2.4067183177067544
8.324503311258278,2.4143459150798883
8.344370860927151,2.4224121854328837
8.364238410596027,2.43088545633517
8.3841059602649,2.439732543950319
8.403973509933774,2.4489189395168167
8.42384105960265,2.458408996819252
8.443708609271523,2.468166119035301
8.463576158940398,2.4781529434979164
8.483443708609272,2.48833152307741
8.503311258278146,2.498663503059643
8.52317880794702,2.509110292569377
8.543046357615895,2.5196332297567743
8.562913907284768,2.5301937401282997
8.582781456953642,2.5407534875554054
8.602649006622515,2.551274517635689
8.62251655629139,2.5617193932087825
8.642384105960264,2.5720513219420225
8.66225165562914,2.5822342759999346
8.682119205298013,2.592233103895453
8.701986754966887,2.602013634690437
8.721854304635762,2.611542774770162
8.741721854304636,2.620788597460237
8.76158940397351,2.629720425787415
8.781456953642383,2.6383089087086478
8.801324503311259,2.6465260911462134
8.821192052980132,2.654345478172963
8.841059602649008,2.6617420936905978
8.86092715231788,2.6686925339376923
8.880794701986755,2.675175016152646
8.90066225165563,2.6811694227019154
8.920529801324504,2.6866573409650547
8.940397350993377,2.6916220992479767
8.960264900662251,2.6960487989722948
8.980132450331126,2.699924343364857
9.0,2.703237462845828
9.019867549668875,2.705978737287406
9.039735099337747,2.7081406152882805
9.059602649006623,2.7097174305814455
9.079470198675496,2.7107054156649717
9.099337748344372,2.71110271271743
9.119205298013245,2.710909381830624
9.139072847682119,2.7101274065639473
9.158940397350994,2.708760696795152
9.178807947019868,2.706815088812978
9.198675496688743,2.7042983425671374
9.218543046357615,2.701220135960882
9.23841059602649,2.6975920560410174
9.258278145695364,2.6934275869089332
9.27814569536424,2.6887420941455686
9.298013245033111,2.683552805511716
9.317880794701987,2.6778787876544663
9.33774834437086,2.671740918519581
9.357615894039736,2.665161855140389
9.37748344370861,2.6581659964450437
9.397350993377483,2.6507794406976877
9.417218543046358,2.6430299371652763
9.437086092715232,2.6349468315814124
9.456953642384107,2.6265610049629085
9.47682119205298,2.6179048053244385
9.496688741721854,2.6090119718337084
9.516556291390728,2.599917550954411
9.536423841059603,2.59065780413933
9.556291390728477,2.581270106662344
9.57615894039735,2.571792837217315
9.596026490066224,2.56226525796598
9.6158940397351,2.5527273847870195
9.635761589403973,2.543219847566056
9.655629139072847,2.5337837404721286
9.675496688741722,2.5244604622918305
9.695364238410596,2.5152915470359214
9.715231788079471,2.5063184851972555
9.735099337748345,2.497582536219087
9.754966887417218,2.489124532929278
9.774834437086092,2.480984678904745
9.794701986754967,2.4732023399477274
9.814569536423841,2.46581583107605
9.834437086092716,2.4588622006479093
9.854304635761588,2.452377013450524
9.874172185430464,2.446394134774224
9.894039735099337,2.440945517660814
9.913907284768213,2.4360609956500245
9.933774834437086,2.4317680834422597
9.95364238410596,2.4280917879430475
9.973509933774835,2.425054432148433
9.993377483443709,2.422675494267786
10.013245033112582,2.4209714643562976
10.033112582781456,2.4199557205478266
10.052980132450331,2.4196384267372095
10.072847682119205,2.4200264532686275
10.09271523178808,2.4211233218481687
10.112582781456952,2.4229291755231794
10.132450331125828,2.425440774172233
10.152317880794701,2.4286515155355852
10.172185430463577,2.432551481404245
10.192052980132452,2.437127508185223
10.211920529801324,2.4423632806862257
10.2317880794702,2.4482394476239246
10.251655629139073,2.4547337570669168
10.271523178807948,2.4618212097826757
10.29139072847682,2.469474228274262
10.311258278145695,2.4776628391664866
10.331125827814569,2.4863548665362374
10.350993377483444,2.4955161337712437
10.370860927152318,2.5051106715850495
10.390728476821192,2.5151009299052274
10.410596026490065,2.5254479914811245
10.43046357615894,2.5361117852185786
10.450331125827816,2.5470512974350066
10.470198675496688,2.5582247794299913
10.490066225165563,2.569589949978429
10.509933774834437,2.5811041915672246
10.529801324503312,2.5927247394073434
10.549668874172186,2.6044088624561677
10.56953642384106,2.616114035875886
10.589403973509933,2.627798104529661
10.609271523178808,2.6394194372765547
10.629139072847682,2.6509370719671486
10.649006622516556,2.662310851164039
10.66887417218543,2.673501548715777
10.688741721854305,2.684470987398469
10.70860927152318,2.6951821479088394
10.728476821192054,2.7055992695461395
10.748344370860927,2.715687942959677
10.7682119205298,2.725415195365816
10.788079470198676,2.7347495686537604
