Frequency (Hz),Amplitude
0.0,8.0594788254611
0.01993355481727575,8.061623925441436
0.0398671096345515,8.068047401971935
0.059800664451827246,8.078713911650963
0.079734219269103,8.093564968375963
0.09966777408637874,8.112519561647565
0.11960132890365449,8.135475000639728
0.13953488372093023,8.162307963691822
0.159468438538206,8.192875728696084
0.17940199335548174,8.227017556729871
0.19933554817275748,8.264556199290114
0.21926910299003324,8.30529949863137
0.23920265780730898,8.34904205092797
0.25913621262458475,8.395566903160928
0.27906976744186046,8.444647256618344
0.29900332225913623,8.49604815251628
0.318936877076412,8.549528118308794
0.3388704318936877,8.60484075657883
0.3588039867109635,8.661736261817484
0.37873754152823924,8.71996285376357
0.39867109634551495,8.779268119169386
0.4186046511627907,8.839400256793905
0.4385382059800665,8.900109223039477
0.4584717607973422,8.961147777908376
0.47840531561461797,9.02227243284766
0.49833887043189373,9.083244303581456
0.5182724252491695,9.143829872216868
0.5382059800664452,9.203801663783686
0.5581395348837209,9.262938842963393
0.5780730897009968,9.32102773711778
0.5980066445182725,9.37786229188083
0.6179401993355482,9.433244465566192
0.637873754152824,9.486984568501388
0.6578073089700996,9.538901553160215
0.6777408637873754,9.588823260653005
0.6976744186046512,9.636586628774813
0.717607973421927,9.682037866422329
0.7375415282392027,9.725032598787632
0.7574750830564785,9.765435987332866
0.7774086378737541,9.803122828153423
0.7973421926910299,9.83797763195584
0.8172757475083057,9.869894688513995
0.8372093023255814,9.898778118127023
0.8571428571428572,9.924541912285687
0.877076411960133,9.94710996546101
0.8970099667774087,9.966416099659458
0.9169435215946844,9.9824040831414
0.9368770764119602,9.995027644472286
0.9568106312292359,10.004250482866706
0.9767441860465116,10.010046275591973
0.9966777408637875,10.012398683017487
1.0166112956810631,10.011301351725864
1.036544850498339,10.00675791593933
1.0564784053156147,9.998781997357037
1.0764119601328903,9.987397203342663
1.0963455149501662,9.972637123244755
1.1162790697674418,9.954545322470768
1.1362126245847177,9.933175333768066
1.1561461794019936,9.90859064498725
1.176079734219269,9.880864682413192
1.196013289036545,9.85008078854404
1.2159468438538206,9.816332192975773
1.2358803986710964,9.779721974807751
1.255813953488372,9.740363014720472
1.275747508305648,9.698377934590308
1.2956810631229239,9.65389902219503
1.3156146179401993,9.607068138229875
1.3355481727574752,9.55803660249725
1.3554817275747508,9.506965055756295
1.3754152823920267,9.454023293326102
1.3953488372093024,9.399390066134314
1.4152823920265782,9.343252844499675
1.435215946843854,9.285807539544518
1.4551495016611296,9.227258176766053
1.4750830564784054,9.167816515971026
1.495016611295681,9.107701611520538
1.514950166112957,9.047139306664947
1.5348837209302328,8.986361655704552
1.5548172757475083,8.925606267822419
1.5747508305647842,8.865115566739266
1.5946843853820598,8.805135960873645
1.6146179401993357,8.745916919493268
1.6345514950166113,8.68770995145035
1.6544850498338872,8.630767484536658
1.6744186046511629,8.575341645293578
1.6943521594684385,8.52168294127946
1.7142857142857144,8.470038850321382
1.73421926910299,8.420652324133115
1.754152823920266,8.37376021681104
1.7740863787375416,8.329591652042621
1.7940199335548175,8.288366346268246
1.8139534883720931,8.250292908387006
1.8338870431893688,8.215567139729707
1.8538205980066447,8.184370360757693
1.8737541528239203,8.156867793098984
1.893687707641196,8.133207026923007
1.9136212624584719,8.113516604122108
1.9335548172757475,8.097904747187235
1.9534883720930232,8.086458261963129
1.9734219269102993,8.079241639630716
1.993355481727575,8.076296379348362
2.0132890365448506,8.077640548115388
2.0332225913621262,8.083268588793484
2.0531561461794023,8.093151381081672
2.073089700996678,8.107236553874161
2.0930232558139537,8.125449041138957
2.1129568106312293,8.147691867536164
2.132890365448505,8.173847144716618
2.1528239202657806,8.203777254825583
2.1727574750830567,8.237326194344265
2.1926910299003324,8.274321049124351
2.212624584717608,8.314573570329854
2.2325581395348837,8.357881820950434
2.25249169435216,8.404031863490767
2.2724252491694354,8.45279946122741
2.292358803986711,8.503951767885484
2.312292358803987,8.557248983539155
2.332225913621263,8.612445957796954
2.352159468438538,8.669293724725053
2.3720930232558137,8.727540957337682
2.39202657807309,8.786935332718738
2.4119601328903655,8.847224801836784
2.431893687707641,8.908158760808693
2.4518272425249172,8.969489122713883
2.471760797342193,9.030971291043906
2.4916943521594686,9.092365037491232
2.511627906976744,9.153435288053222
2.5315614617940203,9.213952822378753
2.551495016611296,9.273694891949397
2.5714285714285716,9.332445763102422
2.5913621262458477,9.389997191106467
2.611295681063123,9.446148831531572
2.6312292358803986,9.500708595047247
2.6511627906976742,9.553492951568062
2.6710963455149503,9.604327189373816
2.691029900332226,9.653045634484531
2.7109634551495017,9.699491835190022
2.7308970099667778,9.743518716235284
2.7508305647840534,9.784988706760515
2.770764119601329,9.823773845696849
2.7906976744186047,9.859755867934709
2.810631229235881,9.892826274214894
2.8305647840531565,9.922886387347518
2.850498338870432,9.949847397041468
2.870431893687708,9.973630395328938
2.8903654485049834,9.994166404293939
2.910299003322259,10.011396397561324
2.9302325581395348,10.025271316769885
2.950166112956811,10.03575208403991
2.9700996677740865,10.042809611247405
2.990033222591362,10.046424806733578
3.0099667774086383,10.046588579905205
3.029900332225914,10.043301844016499
3.0498338870431896,10.03657551726384
3.0697674418604657,10.02643052216783
3.089700996677741,10.012897783059717
3.1096345514950166,9.99601822132859
3.129568106312292,9.975842747919343
3.1495016611295683,9.952432252395562
3.169435215946844,9.925857587694248
3.1893687707641196,9.896199549497686
3.2093023255813957,9.863548848929746
3.2292358803986714,9.828006077045984
3.249169435215947,9.789681659329041
3.2691029900332227,9.748695798119916
3.289036544850499,9.705178400611858
3.3089700996677744,9.659268989705886
3.32890365448505,9.611116594677743
3.3488372093023258,9.56087961823539
3.3687707641196014,9.50872567616026
3.388704318936877,9.454831405327955
3.4086378737541527,9.39938223550469
3.428571428571429,9.342572119923767
3.4485049833887045,9.28460321927727
3.46843853820598,9.225685533427605
3.4883720930232562,9.166036474873989
3.508305647840532,9.105880377824896
3.5282392026578075,9.04544793665749
3.548172757475083,8.984975567622797
3.5681063122923593,8.924704687915
3.588039867109635,8.864880906703684
3.60797342192691,8.805753123465768
3.6279069767441863,8.747572529986584
3.647840531561462,8.690591513757314
3.6677740863787376,8.635062462204004
3.6877076411960132,8.58123646925201
3.7076411960132893,8.529361948156328
3.727574750830565,8.47968315728813
3.7475083056478407,8.432438648612937
3.7674418604651168,8.387859651852292
3.787375415282392,8.346168410684577
3.807308970099668,8.307576490682175
3.8272425249169437,8.272283081845698
3.8471760797342194,8.240473321408887
3.867109634551495,8.21231666486634
3.887043189368771,8.18796533474151
3.9069767441860463,8.16755287730005
3.9269102990033224,8.151192857092179
3.9468438538205985,8.1389777177907
3.9667774086378738,8.130977835251045
3.98671096345515,8.127240785094815
4.0066445182724255,8.127790842516525
4.026578073089701,8.132628726610083
4.046511627906977,8.141731595538024
4.0664451827242525,8.15505329259649
4.086378737541528,8.172524836958257
4.106312292358805,8.194055146899371
4.1262458471760795,8.21953197790716
4.146179401993356,8.24882305345879
4.166112956810632,8.281777362626453
4.186046511627907,8.31822659611474
4.205980066445183,8.357986690908483
4.225913621262459,8.400859453375023
4.245847176079734,8.446634231340491
4.26578073089701,8.49508960721183
4.2857142857142865,8.545995086482526
4.305647840531561,8.5991127587604
4.325581395348838,8.6541989116084
4.345514950166113,8.711005580820418
4.365448504983389,8.76928202410979
4.385382059800665,8.828776108436628
4.40531561461794,8.889235604239973
4.425249169435216,8.950409382596494
4.445182724252492,9.012048513751262
4.465116279069767,9.073907267533569
4.485049833887043,9.135744017878688
4.50498338870432,9.197322055035292
4.524916943521594,9.258410310072481
4.544850498338871,9.318783997041482
4.5647840531561465,9.378225178629204
4.584717607973422,9.436523261405299
4.604651162790698,9.493475426844132
4.624584717607974,9.548887004237297
4.644518272425249,9.602571791431618
4.664451827242526,9.654352329060556
4.6843853820598005,9.704060133610659
4.704318936877076,9.751535894296936
4.724252491694353,9.796629638332721
4.7441860465116275,9.839200868781532
4.764119601328904,9.879118678783486
4.78405315614618,9.916261845563595
4.803986710963455,9.950518907261122
4.823920265780731,9.98178822526948
4.8438538205980075,10.009978034450345
4.863787375415282,10.035006483281629
4.883720930232559,10.056801665718462
4.9036544850498345,10.075301646288102
4.92358803986711,10.090454479702187
4.943521594684386,10.10221822605062
4.963455149501661,10.110560962439482
4.983388704318937,10.115460791747255
5.003322259136213,10.116905848996975
5.023255813953488,10.114894305674232
5.043189368770764,10.109434372159377
5.063122923588041,10.10054429828329
5.083056478405315,10.088252371858205
5.102990033222592,10.072596914874072
5.122923588039868,10.053626276884849
5.142857142857143,10.03139882493465
5.162790697674419,10.005982929188955
5.182724252491695,9.977456943236827
5.20265780730897,9.945909177815995
5.222591362126246,9.91143786647967
5.242524916943522,9.87415112147097
5.262458471760797,9.834166877796543
5.282392026578074,9.791612823193534
5.3023255813953485,9.746626311364581
5.322259136212625,9.699354255513134
5.342192691029901,9.649952998850061
5.362126245847176,9.598588158363683
5.382059800664452,9.545434437756242
5.4019933554817285,9.49067540505624
5.421926910299003,9.43450323003
5.44186046511628,9.377118376148408
5.4617940199335555,9.318729241534314
5.48172757475083,9.259551743041266
5.501661129568107,9.199808837419516
5.5215946843853825,9.139729973438692
5.541528239202658,9.07955046888818
5.561461794019934,9.019510806602115
5.5813953488372094,8.959855844090566
5.601328903654485,8.90083393204068
5.621262458471762,8.84269593791534
5.641196013289036,8.785694172155612
5.661129568106313,8.730081216109934
5.681063122923589,8.676108652782895
5.700996677740864,8.624025703818187
5.72093023255814,8.57407777878389
5.740863787375416,8.526504945772441
5.760797342192691,8.48154033549387
5.780730897009967,8.439408494334574
5.800664451827243,8.400323705152566
5.820598006644518,8.364488297737543
5.840531561461795,8.332090973713491
5.8604651162790695,8.303305173026445
5.880398671096346,8.278287510863207
5.900332225913622,8.257176314723674
5.920265780730897,8.240090291284261
5.940199335548173,8.227127351547049
5.960132890365449,8.218363620527763
5.980066445182724,8.213852654418677
6.0,8.213624883858191
6.0199335548172765,8.217687296804217
6.039867109634551,8.22602336875636
6.059800664451828,8.238593241960363
6.0797342192691035,8.255334149042907
6.099667774086379,8.27616107055442
6.119601328903655,8.300967610417354
6.139534883720931,8.329627068524289
6.159468438538206,8.361993685891774
6.179401993355482,8.397904034973893
6.1993355481727574,8.437178526032039
6.219269102990033,8.479622999833236
6.23920265780731,8.525030377340412
6.259136212624584,8.573182338347387
6.279069767441861,8.623851003047175
6.299003322259137,8.676800593132876
6.318936877076412,8.731789052037891
6.338870431893688,8.788569607154164
6.3588039867109645,8.846892260166259
6.378737541528239,8.906505194871329
6.398671096345516,8.967156094911264
6.418604651162791,9.028593366642172
6.438538205980066,9.090567264853753
6.458471760797343,9.152830921195386
6.4784053156146175,9.215141276958224
6.498338870431894,9.27725992330871
6.51827242524917,9.338953853189436
6.538205980066445,9.399996129925404
6.558139534883721,9.460166478132125
6.578073089700998,9.519251802852548
6.598006644518272,9.57704664298924
6.617940199335549,9.633353565082123
6.6378737541528245,9.687983503342746
6.6578073089701,9.74075605162313
6.677740863787376,9.791499712696885
6.6976744186046515,9.84005210988266
6.717607973421927,9.886260165666103
6.737541528239203,9.92998025158818
6.7574750830564785,9.971078313278321
6.777408637873754,10.009429974128562
6.797342192691031,10.044920620736558
6.8172757475083055,10.077445472894174
6.837209302325582,10.106909640568936
6.857142857142858,10.133228170017738
6.877076411960133,10.156326080886698
6.897009966777409,10.176138395887843
6.9169435215946855,10.192610164399905
6.93687707641196,10.205696481117144
6.956810631229236,10.215362500662126
6.9767441860465125,10.221583448886543
6.996677740863787,10.224344631402612
7.016611295681064,10.223641439716669
7.036544850498339,10.219479355171474
7.056478405315615,10.211873950742758
7.076411960132891,10.200850890575499
7.096345514950166,10.18644592698344
7.116279069767442,10.168704894469132
7.136212624584719,10.147683700147699
7.156146179401993,10.12344830977412
7.17607973421927,10.096074728377104
7.196013289036546,10.065648974291351
7.21594684385382,10.032267045151537
7.235880398671097,9.996034874163179
7.2558139534883725,9.957068274697626
7.275747508305648,9.915492870967777
7.295681063122924,9.87144401222982
7.3156146179402,9.825066667622748
7.335548172757475,9.776515298405142
7.355481727574752,9.725953703980233
7.3754152823920265,9.673554837720557
7.395348837209303,9.619500588220026
7.415282392026579,9.563981521223452
7.435215946843854,9.50719657712363
7.45514950166113,9.449352718590022
7.475083056478406,9.39066452261946
7.495016611295681,9.331353711101391
7.514950166112956,9.27164861389346
7.5348837209302335,9.211783558438542
7.554817275747508,9.151998180153713
7.574750830564784,9.092536648220324
7.5946843853820605,9.03364680203787
7.614617940199336,8.975579194507928
7.634551495016611,8.918586039518436
7.6544850498338874,8.86292006252825
7.674418604651163,8.808833255023492
7.694352159468439,8.756575535829388
7.714285714285715,8.706393324801386
7.73421926910299,8.65852803724802
7.754152823920266,8.613214510494757
7.774086378737542,8.570679377195528
7.794019933554818,8.53113940322419
7.813953488372093,8.494799811092252
7.83388704318937,8.461852612686883
7.853820598006645,8.432474977533218
7.8737541528239205,8.406827664586631
7.893687707641197,8.385053546591571
7.913621262458472,8.367276256165894
7.9335548172757475,8.353598981882644
7.953488372093024,8.34410344067219
7.9734219269103,8.338849049866136
7.9933554817275745,8.337872318220294
8.013289036544851,8.34118647042414
8.033222591362128,8.348781314122306
8.053156146179402,8.360623352579212
8.073089700996679,8.376656140081293
8.093023255813954,8.396800871272655
8.11295681063123,8.420957190128984
8.132890365448505,8.449004199432206
8.152823920265782,8.48080164760734
8.172757475083056,8.516191266761505
8.192691029900331,8.55499823379339
8.21262458471761,8.597032725529138
8.232558139534884,8.642091538936826
8.252491694352159,8.6899597484753
8.272425249169435,8.740412374407967
8.292358803986712,8.793216038296288
8.312292358803987,8.84813058471054
8.332225913621263,8.904910651287983
8.352159468438538,8.963307172474426
8.372093023255815,9.023068805466064
8.392026578073091,9.083943269912611
8.411960132890366,9.145678595761293
8.43189368770764,9.208024276154239
8.451827242524917,9.270732324501093
8.471760797342194,9.333558236718178
8.491694352159469,9.396261861156688
8.511627906976745,9.45860817994967
8.53156146179402,9.520368006415179
8.551495016611296,9.581318603792514
8.571428571428573,9.641244230993372
8.591362126245848,9.699936621256402
8.611295681063122,9.757195399635439
8.6312292358804,9.812828445162788
8.651162790697676,9.866652203337127
8.67109634551495,9.918491954319096
8.691029900332227,9.968182041897002
8.710963455149502,10.015566067930942
8.730897009966778,10.060497056610453
8.750830564784053,10.102837592481666
8.77076411960133,10.14245993582355
8.790697674418604,10.179246118587708
8.81063122923588,10.213088023765595
8.830564784053157,10.243887450716185
8.850498338870432,10.271556168675787
8.870431893687707,10.296015960383047
8.890365448504983,10.317198657483264
8.91029900332226,10.335046169128631
8.930232558139535,10.349510504961325
8.950166112956811,10.360553793454168
8.970099667774086,10.36814829638556
8.990033222591363,10.372276420040055
9.00996677740864,10.372930723549997
9.029900332225914,10.370113924625096
9.049833887043189,10.36383890275221
9.069767441860467,10.354128699785344
9.089700996677742,10.341016517681785
9.109634551495017,10.324545712972862
9.129568106312293,10.304769787383787
9.14950166112957,10.281752373833834
9.169435215946844,10.255567216853303
9.189368770764121,10.226298146244806
9.209302325581396,10.194039042591688
9.22923588039867,10.158893792973078
9.249169435215949,10.120976234982882
9.269102990033224,10.08041008686688
9.289036544850498,10.037328861288778
9.308970099667773,9.991875759912233
9.328903654485051,9.944203545644125
9.348837209302326,9.894474389027165
9.368770764119601,9.842859684902509
9.388704318936878,9.789539835091784
9.408637873754152,9.734703992482428
9.428571428571429,9.678549761551539
9.448504983388705,9.62128285004703
9.46843853820598,9.563116666278503
9.488372093023255,9.504271856275086
9.508305647840533,9.444975774969192
9.528239202657808,9.385461885591077
9.548172757475083,9.325969081641437
9.56810631229236,9.266740926180018
9.588039867109636,9.208024803762529
9.60797342192691,9.150070981208543
9.627906976744187,9.093131574519603
9.647840531561462,9.037459420714729
9.667774086378738,8.983306855124157
9.687707641196015,8.930924396785372
9.70764119601329,8.880559347004894
9.727574750830565,8.832454308851899
9.747508305647841,8.786845638280461
9.767441860465118,8.743961840656537
9.787375415282392,8.70402192958834
9.807308970099669,8.66723376799753
9.827242524916944,8.633792414175284
9.84717607973422,8.603878497982398
9.867109634551497,8.577656654211761
9.887043189368772,8.555274041277615
9.906976744186046,8.53685897369282
9.926910299003321,8.522519696138414
9.9468438538206,8.512343325259643
9.966777408637874,8.506394982634937
9.986710963455149,8.504717138713758
10.006644518272426,8.507329183022103
10.026578073089702,8.514227230764188
10.046511627906977,8.525384170324132
10.066445182724253,8.5407499503448
10.086378737541528,8.560252099299323
10.106312292358805,8.583796465033771
10.126245847176081,8.611268156888071
10.146179401993356,8.642532668891121
10.16611295681063,8.677437159324189
10.186046511627907,8.715811859738533
10.205980066445184,8.757471585324641
10.225913621262459,8.802217318329788
10.245847176079735,8.849837836924836
10.26578073089701,8.900111363409781
10.285714285714286,8.952807207772567
10.305647840531563,9.00768738521649
10.325581395348838,9.064508189185073
10.345514950166113,9.12302170448596
10.36544850498339,9.18297724820878
10.385382059800666,9.244122729130282
10.40531561461794,9.306205919110871
10.425249169435217,9.368975632542922
10.445182724252492,9.432182812168177
10.465116279069768,9.495581521517844
10.485049833887045,9.558929845837863
10.50498338870432,9.621990704654163
10.524916943521594,9.684532580126954
10.544850498338871,9.746330166067766
10.564784053156147,9.8071649429783
10.584717607973422,9.86682568475084
10.604651162790697,9.92510890277836
10.624584717607974,9.98181923319152
10.64451827242525,10.036769772797783
10.664451827242525,10.08978236907294
10.684385382059801,10.14068786926844
10.704318936877076,10.189326333370865
10.724252491694353,10.235547215297382
10.74418604651163,10.279209516346548
10.764119601328904,10.320181914558763
10.784053156146179,10.35834287328123
10.803986710963457,10.393580731885885
10.823920265780732,10.425793781258053
10.843853820598007,10.454890326361578
10.863787375415283,10.480788737894294
10.88372093023256,10.503417494775173
10.903654485049834,10.52271521895241
10.923588039867111,10.538630703786438
10.943521594684386,10.551122937045106
10.96345514950166,10.560161119343977
