Frequency (Hz),Amplitude
0.0,7.623038030942642
0.020066889632107024,7.626664831929147
0.04013377926421405,7.6375206594665626
0.060200668896321065,7.655532191270761
0.0802675585284281,7.680578553880393
0.10033444816053512,7.712493262466352
0.12040133779264213,7.7510668293549365
0.14046822742474915,7.7960499433792085
0.1605351170568562,7.847157106343129
0.1806020066889632,7.904070604289826
0.20066889632107024,7.966444689811543
0.22073578595317725,8.033909856622653
0.24080267558528426,8.10607709789105
0.2608695652173913,8.182542053975308
0.2809364548494983,8.262888971755475
0.3010033444816054,8.346694415264995
0.3210702341137124,8.433530684616331
0.34113712374581934,8.522968916314085
0.3612040133779264,8.614581852306172
0.3812709030100334,8.707946277150237
0.4013377926421405,8.802645132323464
0.42140468227424743,8.898269324021866
0.4414715719063545,8.994419245958742
0.4615384615384615,9.090706041944566
0.4816053511705685,9.186752634717108
0.5016722408026756,9.282194547905721
0.5217391304347826,9.37668054745559
0.5418060200668896,9.4698731275749
0.5618729096989966,9.561448864531277
0.5819397993311036,9.651098659601907
0.6020066889632107,9.738527890325368
0.6220735785953176,9.823456487025581
0.6421404682274248,9.905618949462369
0.6622073578595318,9.984764316465098
0.6822742474916387,10.060656099561815
0.7023411371237458,10.133072189945024
0.7224080267558528,10.201804746624063
0.7424749163879598,10.26666007230179
0.7625418060200668,10.327458482371327
0.7826086956521738,10.384034171446677
0.802675585284281,10.436235081004314
0.8227424749163879,10.483922771007371
0.8428093645484949,10.526972297794705
0.862876254180602,10.565272100029448
0.882943143812709,10.598723894102225
0.903010033444816,10.627242580060228
0.923076923076923,10.650756158873417
0.9431438127090299,10.669205661642943
0.963210702341137,10.682545091194681
0.983277591973244,10.690741376374735
1.0033444816053512,10.693774339265513
1.0234113712374582,10.691636675464498
1.0434782608695652,10.684333947505658
1.0635451505016722,10.671884591450736
1.0836120401337792,10.654319936627608
1.1036789297658862,10.631684238440542
1.1237458193979932,10.604034724116435
1.1438127090301002,10.57144165117617
1.1638795986622072,10.533988378324548
1.1839464882943145,10.491771448329219
1.2040133779264215,10.444900682300927
1.2240802675585283,10.39349928458597
1.2441471571906353,10.337703957227566
1.2642140468227423,10.277665022636143
1.2842809364548495,10.213546552716824
1.3043478260869565,10.145526502224774
1.3244147157190636,10.073796843540332
1.3444816053511706,9.998563699363
1.3645484949832773,9.92004746900112
1.3846153846153846,9.838482942967161
1.4046822742474916,9.754119399464397
1.4247491638795986,9.667220675056168
1.4448160535117056,9.578065200337152
1.4648829431438126,9.48694598977343
1.4849498327759196,9.39417057305212
1.5050167224080266,9.30006085329883
1.5250836120401337,9.204952875416195
1.5451505016722407,9.109196485623752
1.5652173913043477,9.013154861117238
1.5852842809364547,8.917203886725215
1.605351170568562,8.821731353667785
1.625418060200669,8.727135954201476
1.6454849498327757,8.6338260452921
1.6655518394648827,8.542218154757434
1.6856187290969897,8.452735204860018
1.705685618729097,8.365804431420075
1.725752508361204,8.281854981465838
1.745819397993311,8.201315179513553
1.765886287625418,8.124609461960501
1.7859531772575248,8.052154990840878
1.806020066889632,7.984357972213873
1.826086956521739,7.921609720367088
1.846153846153846,7.864282526197974
1.866220735785953,7.812725405663517
1.8862876254180598,7.767259820878692
1.9063545150501673,7.728175480906494
1.926421404682274,7.695726340032661
1.9464882943143813,7.670126916929704
1.966555183946488,7.651549057406485
1.9866220735785953,7.640119255653255
2.0066889632107023,7.635916633861651
2.026755852842809,7.638971658336797
2.0468227424749164,7.649265642936973
2.0668896321070234,7.666731059688
2.0869565217391304,7.691252643963656
2.1070234113712374,7.722669250106958
2.1270903010033444,7.760776385088637
2.1471571906354514,7.80532932468518
2.1672240802675584,7.856046700063902
2.1872909698996654,7.912614433257311
2.2073578595317724,7.974689897770227
2.2274247491638794,8.041906184852637
2.2474916387959865,8.113876365686236
2.267558528428094,8.190197653484667
2.2876254180602005,8.27045538581266
2.3076923076923075,8.354226764865038
2.3277591973244145,8.44108431077644
2.3478260869565215,8.530598999277835
2.367892976588629,8.622343069483485
2.3879598662207355,8.715892499867724
2.408026755852843,8.810829160403587
2.4280936454849495,8.906742656407932
2.4481605351170566,9.003231885035593
2.468227424749164,9.09990632884248
2.4882943143812706,9.196387112695692
2.508361204013378,9.292307850862047
2.5284280936454846,9.387315310653403
2.548494983277592,9.481069917822097
2.568561872909699,9.573246127215064
2.5886287625418056,9.663532680205527
2.608695652173913,9.751632768280944
2.6287625418060196,9.837264119991556
2.648829431438127,9.920159026343022
2.668896321070234,10.000064317706856
2.688963210702341,10.076741303462693
2.709030100334448,10.149965683897452
2.7290969899665547,10.219527442376327
2.749163879598662,10.285230724469518
2.769230769230769,10.346893709558454
2.789297658862876,10.404348479446238
2.809364548494983,10.457440887644612
2.82943143812709,10.506030432289961
2.849498327759197,10.549990135038811
2.869565217391304,10.589206427794343
2.8896321070234112,10.623579048706114
2.9096989966555182,10.653020948552651
2.9297658862876252,10.67745820834943
2.9498327759197323,10.696829968812084
2.9698996655518393,10.71108837213764
2.9899665551839463,10.720198516435534
3.0100334448160533,10.72413842303914
3.0301003344481603,10.722899016848407
3.0501672240802673,10.716484119790382
3.0702341137123748,10.704910457429895
3.0903010033444813,10.688207678711521
3.1103678929765888,10.66641838876129
3.1304347826086953,10.639598194615981
3.1505016722408024,10.607815763673322
3.1705685618729094,10.571152894562378
3.1906354515050164,10.529704600012128
3.210702341137124,10.483579201140751
3.2307692307692304,10.43289843239035
3.250836120401338,10.377797556082081
3.270903010033445,10.318425485255094
3.2909698996655514,10.254944913068021
3.311036789297659,10.187532446571456
3.3311036789297654,10.116378742091053
3.351170568561873,10.041688638778348
3.3712374581939795,9.963681286077048
3.391304347826087,9.882590259899887
3.411371237458194,9.798663661202847
3.4314381270903005,9.712164189366808
3.451505016722408,9.623369181343636
3.471571906354515,9.532570605891179
3.491638795986622,9.440075000415378
3.511705685618729,9.346203335974014
3.531772575250836,9.251290793908193
3.551839464882943,9.15568643540603
3.5719063545150496,9.059752743145381
3.591973244147157,8.963865012115736
3.612040133779264,8.86841056492526
3.632107023411371,8.773787765538206
3.652173913043478,8.680404804681489
3.672240802675585,8.588678230366206
3.692307692307692,8.499031198382838
3.712374581939799,8.411891420556294
3.732441471571906,8.327688793297016
3.752508361204013,8.246852695827807
3.7725752508361197,8.169808956600459
3.7926421404682276,8.096976497914733
3.8127090301003346,8.028763682510439
3.832775919732441,7.96556440159071
3.852842809364548,7.90775396075225
3.872909698996655,7.855684837762403
3.8929765886287626,7.809682402880783
3.9130434782608696,7.770040707109489
3.933110367892976,7.7370184548998475
3.953177257525083,7.710835284016373
3.9732441471571907,7.691668475251471
3.9933110367892977,7.679650207696617
4.013377926421405,7.674865461071851
4.033444816053511,7.6773506456334255
4.053511705685618,7.687093013548502
4.073578595317726,7.704030875090405
4.093645484949833,7.728054610753731
4.113712374581939,7.759008438801005
4.133779264214047,7.796692869137975
4.153846153846153,7.840867750739421
4.173913043478261,7.891255802527208
4.193979933110368,7.947546507385615
4.214046822742475,8.009400245939322
4.234113712374581,8.0764525502504
4.254180602006689,8.148318366663784
4.274247491638796,8.22459623029239
4.294314381270903,8.304872269613604
4.314381270903009,8.388723976921385
4.334448160535117,8.475723697688789
4.354515050167224,8.565441808236574
4.374581939799331,8.657449565753119
4.394648829431437,8.751321627221786
4.414715719063545,8.846638243986272
4.434782608695651,8.942987146522892
4.454849498327759,9.03996513963859
4.474916387959866,9.137179432018144
4.494983277591973,9.234248726098498
4.5150501672240795,9.330804094962872
4.535117056856188,9.426489672623394
4.555183946488294,9.52096318297287
4.575250836120401,9.613896331071677
4.595317725752508,9.704975078492446
4.615384615384615,9.79389982233255
4.635451505016722,9.880385495342773
4.655518394648829,9.96416160250028
4.6755852842809364,10.044972207337507
4.695652173913043,10.122575879465819
4.71571906354515,10.19674561302714
4.735785953177258,10.267268724278477
4.7558528428093645,10.333946735163467
4.775919732441471,10.396595248546179
4.795986622073578,10.455043819764377
4.816053511705686,10.509135828290056
4.8361204013377925,10.558728352548929
4.856187290969899,10.603692050333992
4.8762541806020065,10.643911046736463
4.896321070234113,10.679282831095966
4.916387959866221,10.709718164129745
4.936454849498328,10.735140996124008
4.956521739130435,10.75548839685051
4.976588628762541,10.770710497697525
4.996655518394649,10.780770446368017
5.016722408026756,10.78564437439148
5.036789297658863,10.785321377612243
5.056856187290969,10.779803509749861
5.076923076923077,10.769105789069672
5.096989966555184,10.753256218148996
5.117056856187291,10.732295816669888
5.137123745819398,10.70627866710794
5.157190635451505,10.675271973111794
5.177257525083611,10.6393561302741
5.197324414715719,10.598624808874094
5.217391304347826,10.553185048018227
5.237458193979933,10.503157360409263
5.257525083612039,10.448675846727914
5.277591973244148,10.389888318303134
5.297658862876254,10.326956426367921
5.317725752508361,10.260055795733182
5.337792642140468,10.189376160151186
5.357859531772575,10.115121495967099
5.377926421404682,10.037510149858317
5.397993311036789,9.956774955522107
5.418060200668896,9.873163333078182
5.438127090301003,9.786937363693518
5.458193979933109,9.698373830502113
5.478260869565218,9.607764215280758
5.498327759197324,9.515414638556843
5.518394648829431,9.421645728883023
5.538461538461538,9.326792404945632
5.558528428093646,9.231203552030792
5.578595317725752,9.135241572227448
5.598662207357859,9.039281785704738
5.618729096989966,8.9437116586001
5.638795986622073,8.848929831669908
5.65886287625418,8.755344923102477
5.678929765886288,8.663374079028245
5.698996655518394,8.573441246569528
5.719063545150501,8.485975147058978
5.739130434782608,8.401406931624837
5.759197324414716,8.320167507966152
5.7792642140468224,8.242684536023116
5.799331103678929,8.16937910147076
5.8193979933110365,8.10066208944191
5.839464882943144,8.03693029631016
5.8595317725752505,7.978562334168023
5.879598662207358,7.925914399970337
5.8996655518394645,7.879315998060947
5.919732441471571,7.839065719628913
5.9397993311036785,7.805427194099068
5.959866220735786,7.778625334128413
5.9799331103678925,7.758842996530682
5.999999999999999,7.746218175248023
6.020066889632107,7.740841829135181
6.040133779264214,7.74275642717997
6.060200668896321,7.751955267898929
6.080267558528428,7.768382599682807
6.100334448160535,7.7919345369456146
6.120401337792642,7.822460735400078
6.1404682274247495,7.859766760942427
6.160535117056856,7.903617062473773
6.180602006688963,7.95373844098465
6.200668896321069,8.009823896205019
6.2207357859531776,8.07153672820998
6.240802675585284,8.138514774081864
6.260869565217391,8.210374668078671
6.280936454849498,8.28671602643884
6.301003344481605,8.367125473517032
6.321070234113712,8.451180442972994
6.341137123745819,8.538452704957807
6.361204013377926,8.628511586628637
6.381270903010033,8.720926868121106
6.40133779264214,8.815271348839172
6.421404682274248,8.91112308935712
6.441471571906354,9.00806734234235
6.461538461538461,9.105698191827592
6.481605351170568,9.20361992411595
6.501672240802676,9.30144815587807
6.521739130434782,9.398810745902686
6.54180602006689,9.495348516790443
6.561872909698996,9.590715811911808
6.581939799331103,9.68458091142385
6.60200668896321,9.77662632925967
6.622073578595318,9.866549010931301
6.642140468227424,9.954060449847777
6.662207357859531,10.0388867377376
6.682274247491639,10.12076856274626
6.702341137123746,10.19946116689684
6.722408026755852,10.274734272880872
6.742474916387959,10.346371988600755
6.762541806020066,10.414172696513988
6.782608695652174,10.47794893363067
6.80267558528428,10.5375272669776
6.822742474916388,10.592748168453767
6.842809364548494,10.643465892247947
6.862876254180601,10.68954835735618
6.882943143812709,10.730877037209801
6.903010033444816,10.76734685799016
6.9230769230769225,10.798866106851598
6.94314381270903,10.825356350987475
6.963210702341137,10.84675236824431
6.983277591973244,10.86300208980733
7.0033444816053505,10.874066555337043
7.023411371237458,10.87991988082451
7.0434782608695645,10.880549239343623
7.063545150501672,10.875954854807338
7.083612040133779,10.866150008773696
7.103678929765886,10.851161060291387
7.123745819397993,10.831027478717882
7.143812709030099,10.805801889379604
7.1638795986622075,10.775550131867337
7.183946488294314,10.740351330665412
7.204013377926421,10.700297977692026
7.224080267558528,10.655496026174882
7.2441471571906355,10.606064995091023
7.264214046822742,10.552138083155173
7.2842809364548495,10.49386229103561
7.304347826086956,10.431398550100647
7.324414715719063,10.364921855539631
7.34448160535117,10.29462140114725
7.364548494983278,10.220700712394768
7.384615384615384,10.143377773622616
7.404682274247491,10.062885144261125
7.424749163879598,9.979470057906363
7.444816053511706,9.89339449683463
7.464882943143812,9.804935233123748
7.48494983277592,9.714383825958276
7.505016722408026,9.622046562934404
7.525083612040134,9.528244331263375
7.545150501672239,9.433312402729756
7.565217391304348,9.337600114142264
7.585284280936455,9.24147042289086
7.605351170568561,9.14529931519781
7.625418060200669,9.049475042854198
7.645484949832775,8.954397162840355
7.665551839464882,8.86047535344847
7.685618729096991,8.768127980606312
7.705685618729096,8.677780389323411
7.725752508361204,8.58986289784461
7.74581939799331,8.504808476500898
7.765886287625418,8.423050099664714
7.785953177257525,8.345017767851013
7.806020066889631,8.27113520794758
7.826086956521739,8.201816272737076
7.846153846153847,8.137461076004037
7.866220735785952,8.07845191606439
7.88628762541806,8.02514905770074
7.906354515050166,7.977886459154061
7.926421404682274,7.93696754571653
7.946488294314381,7.902661143170014
7.966555183946488,7.8751976914126685
7.986622073578595,7.854765859883207
8.006688963210701,7.8415096809592635
8.02675585284281,7.835526305024252
8.046822742474916,7.836864461652259
8.066889632107022,7.845523686310012
8.08695652173913,7.861454342696346
8.107023411371236,7.884558439377284
8.127090301003344,7.914691208025721
8.147157190635452,7.951663381617949
8.167224080267557,7.995244086384187
8.187290969899665,8.045164242673943
8.207357859531772,8.101120358071547
8.227424749163879,8.162778591301986
8.247491638795987,8.229778967296172
8.267558528428093,8.301739631328271
8.2876254180602,8.378261042143365
8.307692307692307,8.45893001904985
8.327759197324415,8.543323574647694
8.347826086956522,8.631012481926978
8.367892976588628,8.721564540850599
8.387959866220736,8.814547524446104
8.408026755852843,8.909531797365169
8.42809364548495,9.0060926105624
8.448160535117056,9.103812084144165
8.468227424749163,9.20228089664727
8.488294314381271,9.301099703236218
8.508361204013378,9.399880307831426
8.528428093645484,9.49824661529738
8.548494983277592,9.595835389826574
8.568561872909697,9.69229684482836
8.588628762541806,9.787295088214723
8.608695652173914,9.8805084451733
8.628762541806019,9.971629678498577
8.648829431438127,10.06036612444563
8.668896321070234,10.14643975997475
8.68896321070234,10.229587215239322
8.709030100334449,10.309559743280445
8.729096989966555,10.386123157158192
8.749163879598662,10.459057743185154
8.769230769230768,10.528158157537858
8.789297658862875,10.593233312300429
8.809364548494983,10.654106255936012
8.82943143812709,10.710614052271385
8.849498327759196,10.762607661306491
8.869565217391303,10.809951824508964
8.889632107023411,10.852524956709233
8.909698996655518,10.890219046262297
8.929765886287624,10.922939564773145
8.949832775919733,10.950605387383888
8.96989966555184,10.973148724379904
8.989966555183946,10.990515064680734
9.010033444816054,11.002663131629363
9.030100334448159,11.009564851374003
9.050167224080267,11.01120533404083
9.070234113712376,11.007582867819043
9.09030100334448,10.998708926013546
9.110367892976589,10.984608187060578
9.130434782608695,10.96531856744094
9.150501672240802,10.940891267359117
9.17056856187291,10.911390828977973
9.190635451505017,10.876895206901587
9.210702341137123,10.837495850476765
9.23076923076923,10.793297797329274
9.250836120401337,10.744419777355496
9.270903010033445,10.690994326145985
9.290969899665551,10.633167906513476
9.311036789297658,10.571101036424025
9.331103678929765,10.504968421174475
9.351170568561873,10.434959087108727
9.37123745819398,10.361276513506782
9.391304347826086,10.28413875849957
9.411371237458194,10.203778573945268
9.4314381270903,10.120443503136064
9.451505016722408,10.034395953976654
9.471571906354516,9.945913238878756
9.49163879598662,9.855287571046864
9.511705685618729,9.762826005093526
9.531772575250837,9.668850308032734
9.551839464882942,9.573696744686567
9.57190635451505,9.47771575945097
9.591973244147155,9.381271534271159
9.612040133779264,9.284741400674825
9.632107023411372,9.188515081932
9.652173913043477,9.092993740021585
9.672240802675585,8.998588801290651
9.692307692307692,8.905720534735595
9.712374581939798,8.814816357987407
9.732441471571907,8.726308848639903
9.752508361204013,8.640633442813687
9.77257525083612,8.558225809067833
9.792642140468226,8.479518894159693
9.812709030100335,8.40493964780905
9.832775919732441,8.334905446485816
9.852842809364548,8.269820251048163
9.872909698996656,8.210070549300385
9.89297658862876,8.15602115144201
9.91304347826087,8.108010922903832
9.933110367892976,8.066348553959276
9.953177257525082,8.031308477375754
9.97324414715719,8.003127052845844
9.993311036789297,7.98199913878562
10.013377926421404,7.9680751674164245
10.033444816053512,7.961458827457905
10.053511705685617,7.9622054404674865
10.073578595317725,7.970321092732283
10.093645484949834,7.985762556134026
10.113712374581938,8.008438000525578
10.133779264214047,8.03820846910807
10.153846153846153,8.074890059328306
10.17391304347826,8.118256726937618
10.193979933110368,8.168043611622783
10.214046822742475,8.223950769996328
10.234113712374581,8.285647196021491
10.254180602006688,8.352775009831687
10.274247491638796,8.424953702556703
10.294314381270903,8.501784336004015
10.31438127090301,8.582853610494706
10.334448160535118,8.667737730431664
10.354515050167223,8.75600601400876
10.37458193979933,8.847224209785242
10.394648829431437,8.940957497839225
10.414715719063544,9.036773166331294
10.434782608695652,9.134242965259748
10.454849498327757,9.232945147884179
10.474916387959865,9.332466216812522
10.494983277591974,9.432402396276267
10.515050167224079,9.532360854919101
10.535117056856187,9.631960704785012
10.555183946488295,9.730833802405407
10.5752508361204,9.828625377226203
10.595317725752508,9.92499451132981
10.615384615384615,10.019614492703587
10.635451505016722,10.112173062355389
10.65551839464883,10.202372573514957
10.675585284280936,10.289930079088482
10.695652173913043,10.3745773615267
10.71571906354515,10.45606091737568
10.735785953177256,10.534141907034334
10.755852842809364,10.60859607866217
10.775919732441471,10.679213673769386
10.795986622073578,10.745799320778245
10.816053511705684,10.808171921762284
10.836120401337793,10.866164536636479
10.856187290969899,10.919624268276056
10.876254180602006,10.968412151368277
10.896321070234114,11.012403047238305
10.916387959866219,11.051485546422269
10.936454849498327,11.08556188037581
10.956521739130435,11.11454784339273
