Frequency (Hz),Amplitude
0.0,2.7925304991532123
0.019823788546255508,2.792136067631944
0.039647577092511016,2.7909539291804033
0.059471365638766524,2.788987551433687
0.07929515418502203,2.786242711425627
0.09911894273127755,2.782727491988321
0.11894273127753305,2.7784522765827453
0.13876651982378857,2.773429742430932
0.15859030837004406,2.767674851780707
0.17841409691629956,2.7612048410924306
0.1982378854625551,2.7540392078960734
0.2180616740088106,2.7461996950208167
0.2378854625550661,2.7377102718539077
0.25770925110132165,2.728597112236106
0.27753303964757714,2.718888568550307
0.29735682819383263,2.7086151415075705
0.31718061674008813,2.6978094450802494
0.3370044052863437,2.686506165977829
0.3568281938325991,2.674742017005402
0.37665198237885467,2.6625556835919184
0.3964757709251102,2.64998776272387
0.41629955947136565,2.637080693473644
0.4361233480176212,2.62387867827137
0.4559471365638767,2.6104275940381227
0.4757709251101322,2.596774892279222
0.49559471365638774,2.582969487231827
0.5154185022026433,2.5690616311767656
0.5352422907488987,2.5551027760612524
0.5550660792951543,2.541145420644811
0.5748898678414097,2.527242942475535
0.5947136563876653,2.5134494141356143
0.6145374449339208,2.499819403363927
0.6343612334801763,2.486407756875266
0.6541850220264318,2.473269367950791
0.6740088105726874,2.4604589281728417
0.6938325991189428,2.448030664019751
0.7136563876651982,2.4360380594173305
0.7334801762114539,2.424533565759117
0.7533039647577093,2.413568301347455
0.7731277533039648,2.4031917426611336
0.7929515418502204,2.3934514103092814
0.8127753303964759,2.3843925529664816
0.8325991189427313,2.3760578329848236
0.8524229074889869,2.368487017722464
0.8722466960352424,2.361716680895996
0.8920704845814978,2.355779918436588
0.9118942731277534,2.3507060833884905
0.931718061674009,2.346520544322076
0.9515418502202644,2.343244471531031
0.9713656387665199,2.3408946549435634
0.9911894273127755,2.339483357203648
1.0110132158590308,2.3390182047814743
1.0308370044052866,2.3395021192709886
1.0506607929515421,2.340933290248982
1.0704845814977975,2.3433051902351227
1.090308370044053,2.346606631436212
1.1101321585903086,2.3508218631143594
1.1299559471365639,2.3559307076205873
1.1497797356828194,2.3619087324107504
1.1696035242290752,2.368727454737275
1.1894273127753305,2.376354575204063
1.209251101321586,2.384754235998811
1.2290748898678416,2.3938872993805687
1.248898678414097,2.4037116419000824
1.2687224669603525,2.4141824598591466
1.288546255506608,2.4252525816600574
1.3083700440528636,2.436872782941223
1.3281938325991192,2.44899210072077
1.3480176211453747,2.4615581431564975
1.36784140969163,2.474517391958414
1.3876651982378856,2.487815494938604
1.4074889867841411,2.5013975466370293
1.4273127753303965,2.5152083554047415
1.4471365638766522,2.5291926957468904
1.4669603524229078,2.543295545116713
1.4867841409691631,2.557462304702724
1.5066079295154187,2.5716390040601578
1.5264317180616742,2.58577248970279
1.5462555066079295,2.599810597992395
1.5660792951541853,2.613702312842727
1.5859030837004409,2.6273979088946047
1.6057268722466962,2.6408490809227505
1.6255506607929517,2.654009060307142
1.6453744493392073,2.666832719445756
1.6651982378854626,2.6792766650060966
1.6850220264317182,2.6912993209136387
1.7048458149779737,2.702861001959859
1.7246696035242293,2.7139239788848015
1.7444933920704848,2.7244525357512197
1.7643171806167404,2.7344130203827817
1.7841409691629957,2.7437738885893155
1.8039647577092512,2.752505742849485
1.8237885462555068,2.7605813660671807
1.8436123348017623,2.7679757509637395
1.863436123348018,2.774666125614151
1.8832599118942732,2.7806319755829465
1.9030837004405288,2.7858550630646026
1.9229074889867843,2.790319443384261
1.9427312775330399,2.7940114791679154
1.9625550660792954,2.796919852446096
1.982378854625551,2.7990355749124523
2.002202643171806,2.8003519965173744
2.0220264317180616,2.8008648125371622
2.041850220264317,2.80057206922086
2.061674008810573,2.799474168079123
2.0814977973568287,2.7975738688424556
2.1013215859030843,2.794876291079066
2.1211453744493394,2.7913889144251005
2.140969162995595,2.787121577341941
2.1607929515418505,2.782086474276031
2.180616740088106,2.7762981510559053
2.2004405286343616,2.7697734983182998
2.220264317180617,2.7625317427108467
2.2400881057268722,2.754594435570965
2.2599118942731278,2.7459854387313722
2.2797356828193833,2.7367309070493837
2.299559471365639,2.726859267202255
2.319383259911895,2.7164011922326177
2.3392070484581504,2.705389571267984
2.3590308370044055,2.6938594737764467
2.378854625550661,2.6818481076576646
2.3986784140969166,2.669394770405938
2.418502202643172,2.656540792520743
2.4383259911894277,2.643329472282784
2.4581497797356833,2.6298060009611928
2.4779735682819384,2.6160173774742264
2.497797356828194,2.602012311493024
2.5176211453744495,2.587841113961148
2.537444933920705,2.5735555740043274
2.5572687224669606,2.5592088212305724
2.577092511013216,2.5448551724748936
2.5969162995594717,2.5305499621301015
2.6167400881057272,2.5163493553313523
2.6365638766519828,2.502310143430452
2.6563876651982383,2.488489521411894
2.676211453744494,2.4749448471682385
2.6960352422907494,2.461733382869487
2.715859030837005,2.448912019029169
2.73568281938326,2.4365369822871266
2.7555066079295156,2.4246635283877427
2.775330396475771,2.413345622326493
2.7951541850220267,2.4026356081530458
2.8149779735682823,2.392583871441593
2.834801762114538,2.3832384979487355
2.854625550660793,2.3746449324558503
2.874449339207049,2.3668456422117776
2.8942731277533045,2.359879789730581
2.91409691629956,2.353782919931886
2.9339207048458156,2.3485866667197737
2.953744493392071,2.3443184840604014
2.9735682819383262,2.3410014064273175
2.993392070484582,2.3386538431326165
3.0132158590308373,2.3372894105532707
3.033039647577093,2.3369168056068546
3.0528634361233484,2.3375397230495087
3.072687224669604,2.3391568182879454
3.092511013215859,2.3417617164495907
3.1123348017621146,2.3453430674791824
3.1321585903083706,2.3498846460632916
3.151982378854626,2.3553654942675855
3.1718061674008817,2.361760103937782
3.1916299559471373,2.369038635196494
3.2114537444933924,2.377167166786675
3.231277533039648,2.386107973583168
3.2511013215859035,2.3958198263245984
3.270925110132159,2.4062583085061644
3.2907488986784146,2.417376145411505
3.31057268722467,2.4291235404337006
3.3303964757709252,2.4414485141218276
3.350220264317181,2.454297241767773
3.3700440528634363,2.4676143857951773
3.389867841409692,2.481343419703005
3.4096916299559474,2.4954269408299043
3.4295154185022034,2.50980696972147
3.4493392070484585,2.5244252343830618
3.469162995594714,2.5392234381740675
3.4889867841409696,2.5541435105332075
3.508810572687225,2.5691278401139352
3.5286343612334807,2.584119490247493
3.5484581497797363,2.599062396940101
3.5682819383259914,2.6139015498484377
3.588105726872247,2.628583156868103
3.6079295154185025,2.6430547931151414
3.627753303964758,2.657265535186465
3.6475770925110136,2.671166081655192
3.667400881057269,2.6847088607967406
3.6872246696035247,2.6978481265553893
3.7070484581497802,2.710540043754274
3.726872246696036,2.7227427635277675
3.7466960352422913,2.7344164899185674
3.7665198237885464,2.7455235385350605
3.7863436123348024,2.75602838811126
3.8061674008810575,2.7658977257539643
3.8259911894273135,2.775100486601447
3.8458149779735686,2.7836078885567406
3.8656387665198246,2.7913934626983714
3.8854625550660797,2.7984330799114616
3.905286343612335,2.8047049742246193
3.925110132158591,2.810189763283204
3.9449339207048464,2.814870466336466
3.964757709251102,2.8187325200658844
3.9845814977973575,2.8217637925349495
4.004405286343612,2.823954595494624
4.024229074889869,2.825297695236149
4.044052863436123,2.825788322140965
4.06387665198238,2.8254241790373857
4.083700440528634,2.82420544843458
4.103524229074891,2.8221347986653784
4.123348017621146,2.819217388930647
4.143171806167401,2.8154608731984623
4.162995594713657,2.8108754028707867
4.182819383259912,2.805473628088652
4.2026431718061685,2.7992706975019255
4.222466960352423,2.7922842562841543
4.242290748898679,2.7845344421222777
4.262114537444934,2.776043878858812
4.28193832599119,2.766837667406519
4.301762114537445,2.756943373495795
4.321585903083701,2.746391011749162
4.3414096916299565,2.735213025509125
4.361233480176212,2.723444261772567
4.381057268722468,2.711121940508666
4.400881057268723,2.6982856175587284
4.420704845814979,2.684977140235799
4.440528634361234,2.671240594661831
4.46035242290749,2.6571222438014477
4.4801762114537445,2.642670455077667
4.500000000000001,2.627935616388709
4.5198237885462555,2.6129700392899657
4.539647577092512,2.59782784806637
4.559471365638767,2.5825648534023493
4.579295154185023,2.567238409365358
4.599118942731278,2.5519072524607807
4.618942731277533,2.53663132159774
4.63876651982379,2.5214715579334968
4.658590308370044,2.506489683745788
4.678414096916301,2.4917479597231957
4.6982378854625555,2.477308920369353
4.718061674008811,2.463235087589031
4.737885462555067,2.449588662966281
4.757709251101322,2.4364311997522563
4.777533039647578,2.4238232561490074
4.797356828193833,2.411824032094098
4.817180616740089,2.400490992405626
4.837004405286344,2.3898794798170773
4.856828193832599,2.380042322093396
4.876651982378855,2.371029438043971
4.896475770925111,2.3628874478045323
4.9162995594713665,2.3556592932145537
4.936123348017622,2.349383874437517
4.955947136563877,2.3440957091284624
4.975770925110133,2.3398246204226996
4.995594713656388,2.3365954597832035
5.015418502202644,2.3344278702969454
5.035242290748899,2.333336095353624
5.055066079295155,2.333328836792137
5.07488986784141,2.334409165586717
5.094713656387666,2.33657448700424
5.114537444933921,2.3398165609441026
5.134361233480177,2.3441215769221304
5.154185022026432,2.3494702819356945
5.174008810572688,2.355838158299158
5.193832599118943,2.363195647514401
5.213656387665199,2.3715084153780692
5.2334801762114544,2.380737652854769
5.25330396475771,2.390840406778495
5.2731277533039655,2.401769934189582
5.292951541850221,2.4134760740633308
5.312775330396477,2.425905630323568
5.332599118942731,2.4390027603365896
5.352422907488988,2.452709363517286
5.372246696035242,2.466965465219586
5.392070484581499,2.481709591693716
5.4118942731277535,2.4968791325426625
5.43171806167401,2.512410687770405
5.451541850220265,2.5282403971619676
5.47136563876652,2.5443042503482833
5.491189427312777,2.5605383764745957
5.511013215859031,2.576879312896961
5.530837004405288,2.5932642527734546
5.550660792951542,2.6096312717906534
5.570484581497798,2.6259195345738
5.5903083700440535,2.642069481573535
5.610132158590309,2.6580229974075045
5.6299559471365646,2.6737235617676736
5.64977973568282,2.689116384090868
5.669603524229076,2.704148523236591
5.689427312775331,2.718768993429777
5.709251101321586,2.7329288577131763
5.729074889867842,2.7465813101195544
5.748898678414098,2.759681747723655
5.768722466960353,2.772187833671954
5.788546255506609,2.784059552218152
5.808370044052864,2.795259256718125
5.82819383259912,2.805751711461197
5.848017621145375,2.8155041281372557
5.867841409691631,2.824486197664311
5.887665198237886,2.832670118027215
5.907488986784142,2.8400306187085396
5.927312775330397,2.846544982226235
5.9471365638766525,2.852193063229971
5.966960352422908,2.8569573055495634
5.986784140969164,2.860822757533928
6.00660792951542,2.8637770859675316
6.026431718061675,2.8658105888028964
6.04625550660793,2.8669162069020993
6.066079295154186,2.86708953493658
6.085903083700441,2.8663288315524906
6.105726872246697,2.8646350288678306
6.125550660792952,2.8620117413269073
6.145374449339208,2.85846527389657
6.1651982378854635,2.8540046295466737
6.185022026431718,2.8486415159134943
6.204845814977975,2.84239035099876
6.224669603524229,2.8352682677077783
6.244493392070486,2.827295116977256
6.264317180616741,2.8184934691860133
6.284140969162996,2.8088886134795055
6.303964757709252,2.7985085545708355
6.323788546255507,2.787384006507348
6.3436123348017635,2.7755483828107024
6.363436123348018,2.7630377823117387
6.3832599118942746,2.749890969907521
6.403083700440529,2.7361493513680206
6.422907488986785,2.721856941214444
6.44273127753304,2.7070603225814582
6.462555066079296,2.6918085978630595
6.482378854625551,2.6761533288291504
6.502202643171807,2.660148464790041
6.5220264317180625,2.6438502572830807
6.541850220264318,2.627317159664746
6.561674008810574,2.6106097099184558
6.581497797356829,2.5937903949400125
6.601321585903085,2.5769234945486104
6.62114537444934,2.560074903498213
6.640969162995596,2.5433119298452698
6.6607929515418505,2.5267030681710847
6.680616740088107,2.510317746374079
6.700440528634362,2.494226045046643
6.720264317180618,2.4784983888425396
6.740088105726873,2.4632052097301145
6.759911894273129,2.448416582615618
6.779735682819384,2.434201834509729
6.799559471365639,2.4206291291892463
6.819383259911895,2.407765030162228
6.83920704845815,2.395674045656506
6.859030837004407,2.3844181602885004
6.8788546255506615,2.3740563589956913
6.898678414096917,2.3646441496878934
6.918502202643173,2.356233091840849
6.938325991189428,2.3488703388722176
6.958149779735684,2.342598202552824
6.977973568281939,2.3374537478737647
6.997797356828195,2.3334684266746195
7.01762114537445,2.330667757920923
7.037444933920705,2.32907106179037
7.0572687224669615,2.3286912537036852
7.077092511013216,2.3295347031446823
7.096916299559473,2.331601160609034
7.116740088105728,2.3348837543626346
7.136563876651983,2.33936905695788
7.156387665198239,2.345037219727622
7.176211453744494,2.351862171834964
7.19603524229075,2.3598118789757625
7.215859030837005,2.3688486555710075
7.235682819383261,2.3789295232976313
7.255506607929516,2.3900066081144136
7.275330396475772,2.402027567555885
7.295154185022027,2.414936039982739
7.314977973568283,2.428672107667532
7.334801762114538,2.443172766024417
7.354625550660794,2.458372391915186
7.374449339207049,2.474203204732796
7.394273127753305,2.490595714828243
7.4140969162995605,2.5074791547597495
7.433920704845816,2.52478188976234
7.453744493392072,2.5424318047266574
7.473568281938327,2.5603566658094166
7.493392070484583,2.578484455554191
7.513215859030838,2.596743681067065
7.533039647577093,2.6150636553614093
7.552863436123348,2.6333747524561772
7.572687224669605,2.651608637188946
7.59251101321586,2.6696984709912304
7.612334801762115,2.687579095081522
7.6321585903083715,2.705187192667239
7.651982378854627,2.722461431823125
7.671806167400882,2.739342590739604
7.691629955947137,2.755773667019987
7.711453744493394,2.771699972658827
7.731277533039649,2.787069216264721
7.751101321585904,2.8018315740018407
7.7709251101321595,2.815939750629
7.790748898678416,2.8293490319079004
7.81057268722467,2.842017329547099
7.830396475770926,2.853905219740459
7.850220264317182,2.8649759762553004
7.870044052863436,2.8751955989259974
7.889867841409693,2.8845328383141564
7.909691629955948,2.892959217208793
7.929515418502204,2.900449049557778
7.9493392070484585,2.906979457346642
7.969162995594715,2.9125303858715736
7.9889867841409705,2.917084617789759
8.008810572687224,2.9206277862722043
8.02863436123348,2.9231483875306243
8.048458149779737,2.9246377929402296
8.068281938325994,2.925090260934209
8.088105726872246,2.9245029488013636
8.107929515418503,2.9228759244767217
8.12775330396476,2.920212178372714
8.147577092511014,2.9165176352576077
8.167400881057269,2.9118011661450156
8.187224669603525,2.906074600113735
8.207048458149782,2.8993527359301043
8.226872246696036,2.8916533532935302
8.246696035242293,2.882997223469948
8.266519823788547,2.873408119016335
8.286343612334802,2.8629128222298696
8.306167400881058,2.8515411318797006
8.325991189427315,2.839325867692917
8.345814977973568,2.826302871972032
8.365638766519824,2.8125110076153352
8.38546255506608,2.797992151695134
8.405286343612337,2.782791183621894
8.42511013215859,2.766955966783031
8.444933920704846,2.7505373223967453
8.464757709251103,2.7335889941628175
8.484581497797357,2.716167602127403
8.504405286343614,2.698332584009754
8.524229074889869,2.680146122069737
8.544052863436125,2.66167305343233
8.56387665198238,2.6429807616356875
8.583700440528636,2.6241390470416097
8.60352422907489,2.605219973652846
8.623348017621145,2.5862976898333487
8.643171806167402,2.567448220439174
8.662995594713658,2.548749227956193
8.682819383259913,2.5302797404229698
8.702643171806168,2.512119844210472
8.722466960352424,2.494350340151548
8.74229074889868,2.4770523620765723
8.762114537444935,2.4603069575287613
8.78193832599119,2.444194631307489
8.801762114537446,2.42879485351792
8.821585903083701,2.4141855349777517
8.841409691629957,2.4004424741216663
8.861233480176212,2.3876387809133903
8.881057268722468,2.3758442846735583
8.900881057268723,2.3651249340931475
8.92070484581498,2.3555421989538203
8.940528634361234,2.3471524841363482
8.960352422907489,2.3400065672814043
8.980176211453745,2.334149071898645
9.000000000000002,2.32961798773057
9.019823788546258,2.3264442497246303
9.039647577092511,2.324651386028221
9.059471365638768,2.324255244008784
9.079295154185024,2.325263801459926
9.099118942731279,2.3276770679589642
9.118942731277533,2.3314870788968554
9.13876651982379,2.336677982130539
9.158590308370046,2.3432262146443494
9.1784140969163,2.3511007641844195
9.198237885462555,2.3602635086691754
9.218061674008812,2.370669624379758
9.237885462555067,2.382268052568435
9.257709251101323,2.3950020132315744
9.27753303964758,2.4088095543811234
9.297356828193834,2.423624125194435
9.317180616740089,2.4393751618760535
9.337004405286345,2.455988675860388
9.356828193832602,2.4733878350441016
9.376651982378855,2.4914935299764323
9.396475770925111,2.5102249182782814
9.416299559471367,2.529499941930973
9.436123348017622,2.549235813413405
9.455947136563877,2.5693494679219904
9.475770925110133,2.589757980046145
9.49559471365639,2.610378944269624
9.515418502202644,2.6311308195136514
9.5352422907489,2.6519332386295407
9.555066079295155,2.6727072842912545
9.57488986784141,2.69337573314369
9.594713656387666,2.7138632703443557
9.614537444933923,2.7340966768110353
9.634361233480178,2.7540049915732667
9.654185022026432,2.7735196516369336
9.674008810572689,2.792574611725535
9.693832599118945,2.8111064461717317
9.713656387665198,2.8290544351118605
9.733480176211454,2.8463606369935013
9.75330396475771,2.862969949252164
9.773127753303967,2.8788301588523204
9.792951541850222,2.8938919842286985
9.812775330396477,2.9081091100066945
9.832599118942733,2.9214382157323224
9.852422907488988,2.933838999701164
9.872246696035244,2.945274198845963
9.892070484581499,2.9557096055229444
9.911894273127754,2.965114081928075
9.93171806167401,2.973459572776798
9.951541850220266,2.9807211167924765
9.971365638766521,2.9868768574703504
9.991189427312776,2.9919080535136957
10.011013215859032,2.9957990892761197
10.030837004405289,2.9985374854882103
10.050660792951543,3.0001139104961063
10.070484581497798,3.0005221921934724
10.090308370044054,2.9997593307857637
10.11013215859031,2.9978255124852082
10.129955947136565,2.994724124195521
10.14977973568282,2.9904617692061155
10.169603524229077,2.985048283874995
10.189427312775331,2.978496755236594
10.209251101321588,2.9708235394241242
10.229074889867842,2.962048280744318
10.248898678414099,2.9521939311845338
10.268722466960353,2.9412867700659726
10.28854625550661,2.929356423481797
10.308370044052865,2.9164358830723147
10.32819383259912,2.9025615235908377
10.348017621145376,2.8877731186009354
10.367841409691632,2.8721138535168147
10.387665198237887,2.855630335053536
10.407488986784141,2.838372595989111
10.427312775330398,2.8203940939583303
10.447136563876654,2.8017517027953125
10.466960352422909,2.782505694720771
10.486784140969164,2.762719711431402
10.50660792951542,2.7424607218950077
10.526431718061675,2.721798964391465
10.546255506607931,2.700807870070949
10.566079295154186,2.6795639650378336
10.585903083700442,2.6581467477208855
10.605726872246697,2.6366385380736186
10.625550660792953,2.6151242949811726
10.645374449339208,2.593691398152363
10.665198237885463,2.57242939077448
10.685022026431719,2.551429679330309
10.704845814977975,2.530785187253293
10.724669603524232,2.510589959557599
