Frequency (Hz),Amplitude
0.0,1.6005721261471657
0.019801980198019802,1.6030096187751557
0.039603960396039604,1.6102904039086663
0.0594059405940594,1.6223208599050143
0.07920792079207921,1.638949644815524
0.09900990099009901,1.6599742049294677
0.1188118811881188,1.6851489260487187
0.13861386138613863,1.7141941799065112
0.15841584158415842,1.746805542055213
0.1782178217821782,1.7826625705440915
0.19801980198019803,1.8214366987823152
0.21782178217821782,1.8627979728833528
0.2376237623762376,1.9064205239350196
0.25742574257425743,1.9519867917931053
0.27722772277227725,1.999190603475211
0.297029702970297,2.0477392586886887
0.31683168316831684,2.097354794672511
0.33663366336633666,2.1477746009988223
0.3564356435643564,2.1987515402930207
0.37623762376237624,2.2500537094170228
0.39603960396039606,2.3014639521000784
0.4158415841584158,2.352779211211081
0.43564356435643564,2.4038097884598826
0.45544554455445546,2.454378561989087
0.4752475247524752,2.5043201981820284
0.495049504950495,2.553480382844451
0.5148514851485149,2.601715088332513
0.5346534653465347,2.648889886763944
0.5544554455445545,2.6948793147424515
0.5742574257425742,2.739566291672504
0.594059405940594,2.7828415914253557
0.613861386138614,2.824603365579278
0.6336633663366337,2.8647567154920544
0.6534653465346534,2.903213309913886
0.6732673267326733,2.9398910445915587
0.6930693069306931,2.974713740261306
0.7128712871287128,3.007610875509094
0.7326732673267327,3.0385173511472616
0.7524752475247525,3.067373282977462
0.7722772277227723,3.0941238200606485
0.7920792079207921,3.1187189858760216
0.8118811881188118,3.1411135400126353
0.8316831683168316,3.1612668582919192
0.8514851485148516,3.1791428294635002
0.8712871287128713,3.1947097668463087
0.891089108910891,3.207940333503702
0.9108910891089109,3.218811479743279
0.9306930693069307,3.2273043919213307
0.9504950495049505,3.2334044517093776
0.9702970297029703,3.2371012051475136
0.99009900990099,3.238388340967946
1.00990099009901,3.2372636778244783
1.0297029702970297,3.233729160210719
1.0495049504950495,3.2277908629945453
1.0693069306930694,3.2194590046397926
1.0891089108910892,3.208747969330215
1.108910891089109,3.195676338358632
1.1287128712871286,3.180266931295449
1.1485148514851484,3.1625468576098865
1.1683168316831685,3.14254757958381
1.188118811881188,3.1203049875353726
1.2079207920792079,3.09585948855842
1.227722772277228,3.0692561101850937
1.2475247524752475,3.0405446205949063
1.2673267326732673,3.0097796672227193
1.2871287128712872,2.9770209358609563
1.3069306930693068,2.942333332604872
1.3267326732673268,2.905787191250381
1.3465346534653466,2.8674585090137077
1.3663366336633662,2.827429213690881
1.3861386138613863,2.7857874655952655
1.405940594059406,2.742627997778828
1.4257425742574257,2.698052498123209
1.4455445544554455,2.652170036831438
1.4653465346534653,2.605097542592914
1.4851485148514851,2.5569603301448383
1.504950495049505,2.5078926809896434
1.5247524752475248,2.4580384774950232
1.5445544554455446,2.4075518882945444
1.5643564356435644,2.356598099568165
1.5841584158415842,2.305354082096838
1.6039603960396038,2.254009377582012
1.6237623762376237,2.2027668791827706
1.6435643564356437,2.1518435701189684
1.6633663366336633,2.101471170138714
1.683168316831683,2.0518966224303172
1.7029702970297032,2.003382333281898
1.7227722772277227,1.9562060541458186
1.7425742574257426,1.9106602723457862
1.7623762376237624,1.8670509553589487
1.782178217821782,1.8256954789455968
1.801980198019802,1.7869195677464087
1.8217821782178218,1.7510530962705704
1.8415841584158414,1.7184246470189142
1.8613861386138615,1.6893548079984062
1.881188118811881,1.6641483167878948
1.900990099009901,1.643085317095095
1.920792079207921,1.6264121694666667
1.9405940594059405,1.614332421309714
1.9603960396039604,1.6069986548065718
1.98019801980198,1.6045059568798379
2.0,1.6068876677959623
2.01980198019802,1.6141138631879441
2.0396039603960396,1.6260927366924118
2.0594059405940595,1.6426747300555948
2.0792079207920793,1.6636589673073254
2.099009900990099,1.688801343236471
2.118811881188119,1.7178235236313266
2.1386138613861387,1.7504221357146856
2.1584158415841586,1.786277537450942
2.1782178217821784,1.8250617164402547
2.1980198019801978,1.8664450448961505
2.217821782178218,1.9101017770863866
2.237623762376238,1.9557143021344157
2.257425742574257,2.0029762522762358
2.2772277227722775,2.0515946169624506
2.297029702970297,2.1012910336308774
2.3168316831683167,2.151802425094164
2.336633663366337,2.20288113928585
2.3564356435643563,2.254294726020998
2.376237623762376,2.3058254620619616
2.3960396039603964,2.3572697130855103
2.4158415841584158,2.408437200768857
2.4356435643564356,2.459150225870806
2.455445544554456,2.5092428840101184
2.4752475247524752,2.5585602996251753
2.495049504950495,2.60695789496236
2.514851485148515,2.6543007044555895
2.5346534653465347,2.7004627401085317
2.5544554455445545,2.7453264101003376
2.5742574257425743,2.7887819904875615
2.594059405940594,2.8307271483112055
2.6138613861386135,2.871066513432299
2.633663366336634,2.909711295852575
2.6534653465346536,2.9465789450072064
2.673267326732673,2.9815928474524775
2.6930693069306932,3.014682059445759
2.712871287128713,3.045781071078625
2.7326732673267324,3.0748295988414895
2.7524752475247527,3.1017724037452137
2.7722772277227725,3.1265591323841133
2.792079207920792,3.149144178584898
2.811881188118812,3.169486563539618
2.8316831683168315,3.1875498325636253
2.8514851485148514,3.203301966849201
2.8712871287128716,3.2167153088014793
2.891089108910891,3.2277664997452864
2.910891089108911,3.236436428980837
2.9306930693069306,3.242710193343526
2.9504950495049505,3.24657706659058
2.9702970297029703,3.2480304780960765
2.99009900990099,3.247068000488106
3.00990099009901,3.243691346009313
3.0297029702970297,3.2379063715265013
3.0495049504950495,3.2297230922585753
3.0693069306930694,3.219155704436368
3.089108910891089,3.2062226172549817
3.108910891089109,3.1909464946311963
3.128712871287129,3.1733543074364556
3.148514851485148,3.153477397042584
3.1683168316831685,3.131351551193631
3.1881188118811883,3.1070170934051515
3.2079207920792077,3.0805189872925167
3.227722772277228,3.0519069574438284
3.2475247524752473,3.021235628680338
3.267326732673267,2.9885646857872152
3.2871287128712874,2.953959056047952
3.3069306930693068,2.917489117171818
3.3267326732673266,2.879230933458814
3.346534653465347,2.839266523288582
3.366336633663366,2.797684161232425
3.386138613861386,2.754578718245934
3.4059405940594063,2.710052043468908
3.4257425742574257,2.6642133910914647
3.4455445544554455,2.6171798954725682
3.4653465346534653,2.5690770971313794
3.485148514851485,2.520039521251675
3.504950495049505,2.4702113087890845
3.5247524752475248,2.4197468979481136
3.5445544554455446,2.3688117504469637
3.564356435643564,2.3175831123030384
3.5841584158415842,2.2662507924850073
3.603960396039604,2.2150179342803114
3.6237623762376234,2.1641017432020733
3.6435643564356437,2.113734121339984
3.6633663366336635,2.064162141041461
3.683168316831683,2.015648270816775
3.702970297029703,1.9684702440949107
3.722772277227723,1.9229204385090275
3.7425742574257423,1.8793046126197843
3.762376237623762,1.8379398328564052
3.7821782178217824,1.7991514222089464
3.801980198019802,1.7632687816096313
3.8217821782178216,1.730619983329509
3.841584158415842,1.701525120034736
3.8613861386138613,1.6762885159484755
3.881188118811881,1.6551900623957132
3.9009900990099013,1.6384761123113865
3.9207920792079207,1.626350528641277
3.9405940594059405,1.6189665931067199
3.96039603960396,1.6164205077208862
3.98019801980198,1.6187471369495707
4.0,1.625918442117003
4.01980198019802,1.6378447788637145
4.03960396039604,1.6543789144731165
4.0594059405940595,1.6753223358762481
4.079207920792079,1.7004332139427827
4.099009900990099,1.729435294983391
4.118811881188119,1.7620270072483704
4.138613861386139,1.7978901754708012
4.158415841584159,1.8366978939237701
4.178217821782178,1.8781212808165815
4.198019801980198,1.9218349948020044
4.217821782178218,1.967521520311012
4.237623762376238,2.014874316055001
4.257425742574258,2.0635999723325646
4.2772277227722775,2.113419544429249
4.297029702970297,2.1640692296951487
4.316831683168317,2.2153005426821686
4.336633663366336,2.266880122401609
4.356435643564357,2.318589282935041
4.376237623762377,2.3702233962799975
4.3960396039603955,2.4215911761249975
4.415841584158416,2.472513913990917
4.435643564356436,2.5228247050132873
4.455445544554455,2.5723676893905436
4.475247524752476,2.6209973268313758
4.4950495049504955,2.6685777147848637
4.514851485148514,2.714981956420489
4.534653465346535,2.760091580872712
4.554455445544555,2.80379601586181
4.574257425742574,2.8459921111913267
4.594059405940594,2.8865837105967374
4.613861386138614,2.9254812688204654
4.633663366336633,2.962601510491399
4.653465346534653,2.9978671273017192
4.673267326732674,3.0312065100309695
4.693069306930693,3.062553512117337
4.712871287128713,3.0918472416832357
4.732673267326733,3.119031879160925
4.752475247524752,3.144056517917025
4.772277227722772,3.166875025529863
4.792079207920793,3.187445923623886
4.811881188118812,3.2057322844054688
4.8316831683168315,3.221701642272416
4.851485148514852,3.2353259190839867
4.871287128712871,3.2465813618794477
4.891089108910891,3.2554484920218187
4.910891089108912,3.2619120649205384
4.930693069306931,3.2659610396540155
4.9504950495049505,3.267588557971758
4.97029702970297,3.266791932308095
4.99009900990099,3.2635726425869294
5.00990099009901,3.2579363417414853
5.02970297029703,3.249892870016628
5.0495049504950495,3.2394562782654277
5.069306930693069,3.2266448605987703
5.089108910891089,3.2114811968981316
5.108910891089109,3.193992205859272
5.128712871287129,3.1742092094004204
5.148514851485149,3.152168009443684
5.1683168316831685,3.127908978264659
5.188118811881188,3.1014771638037812
5.207920792079208,3.072922411543938
5.227722772277227,3.0422995047829064
5.247524752475248,3.009668325364595
5.267326732673268,2.9750940371777115
5.2871287128712865,2.938647294979586
5.306930693069307,2.9004044813486494
5.326732673267327,2.8604479748000355
5.346534653465346,2.818866452297618
5.366336633663367,2.775755229537166
5.3861386138613865,2.731216642424486
5.405940594059405,2.6853604730801512
5.425742574257426,2.6383044234019777
5.445544554455446,2.590174638618144
5.465346534653465,2.5411062822483017
5.485148514851486,2.4912441623017565
5.504950495049505,2.440743406182077
5.524752475247524,2.389770178386046
5.544554455445545,2.338502430379746
5.564356435643565,2.2871306656494594
5.584158415841584,2.235858694467631
5.603960396039604,2.184904341986422
5.623762376237624,2.1345000595325474
5.643564356435643,2.0848933722540033
5.663366336633663,2.0363470767180463
5.683168316831684,1.989139080407464
5.702970297029703,1.943561752911202
5.7227722772277225,1.8999206387858458
5.742574257425743,1.858532368952766
5.762376237623762,1.8197216071545463
5.782178217821782,1.7838168879109109
5.801980198019803,1.7511452505449134
5.821782178217822,1.7220256567280623
5.841584158415841,1.6967612988518073
5.861386138613861,1.67563105788198
5.881188118811881,1.6588805360857553
5.900990099009901,1.6467132447646664
5.920792079207921,1.639282634577743
5.9405940594059405,1.6366856810177943
5.96039603960396,1.6389586564182104
5.98019801980198,1.6460755310643769
6.0,1.6579491753870284
6.01980198019802,1.6744352316096944
6.03960396039604,1.6953382450986527
6.0594059405940595,1.720419443973257
6.079207920792079,1.7494054595628858
6.099009900990099,1.78199729205823
6.118811881188119,1.817878923903983
6.138613861386139,1.8567251338036137
6.158415841584159,1.8982082308570702
6.178217821782178,1.9420035826619872
6.198019801980198,1.9877939355801097
6.217821782178218,2.0352726130557244
6.237623762376237,2.0841457302753907
6.257425742574258,2.1341335867075797
6.2772277227722775,2.1849714000342924
6.297029702970296,2.236409533285169
6.316831683168317,2.2882133478714564
6.336633663366337,2.34016279327879
6.356435643564356,2.392051822427198
6.376237623762377,2.443687701887094
6.396039603960396,2.4948902690745363
6.415841584158415,2.54549117445716
6.435643564356436,2.595333135545053
6.455445544554456,2.644269220694887
6.475247524752475,2.6921621741291175
6.495049504950495,2.738883788670045
6.514851485148515,2.78431432915168
6.534653465346534,2.828342006991566
6.554455445544554,2.870862504723909
6.574257425742575,2.9117785482105996
6.594059405940594,2.950999523596624
6.6138613861386135,2.9884411357387224
6.633663366336634,3.0240251047165922
6.653465346534653,3.0576788970662796
6.673267326732673,3.0893354885036306
6.693069306930694,3.1189331550958244
6.712871287128713,3.146415290064323
6.732673267326732,3.1717302436452366
6.752475247524753,3.194831183680278
6.772277227722772,3.2156759748557815
6.792079207920792,3.2342270747426545
6.811881188118813,3.2504514450148987
6.8316831683168315,3.2643204764362928
6.851485148514851,3.275809926404379
6.871287128712871,3.28489986802825
6.891089108910891,3.2915746498930014
6.910891089108911,3.295822865830475
6.930693069306931,3.2976373341742837
6.9504950495049505,3.297015086129475
6.97029702970297,3.293957363034412
6.99009900990099,3.288469622437081
7.00990099009901,3.2805615530515126
7.02970297029703,3.2702470988040457
7.0495049504950495,3.2575444923260295
7.069306930693069,3.242476298400218
7.089108910891089,3.225069468025463
7.108910891089109,3.205355403928387
7.128712871287128,3.1833700385249726
7.148514851485149,3.159153925518595
7.1683168316831685,3.1327523465169986
7.188118811881187,3.1042154342577217
7.207920792079208,3.073598314250523
7.227722772277228,3.0409612668743735
7.247524752475247,3.0063699122029695
7.267326732673268,2.969895420071288
7.287128712871287,2.931614748128445
7.306930693069306,2.89161091083676
7.326732673267327,2.8499732825554482
7.346534653465347,2.8067979379642214
7.366336633663366,2.7621880331013857
7.3861386138613865,2.716254230162981
7.405940594059406,2.6691151688676604
7.425742574257425,2.620897986545334
7.445544554455446,2.5717388880388206
7.465346534653466,2.5217837648619423
7.485148514851485,2.4711888606399306
7.504950495049505,2.4201214764246455
7.524752475247524,2.368760704734757
7.544554455445544,2.3172981747789434
7.564356435643565,2.2659387829064235
7.584158415841584,2.2149013715238643
7.603960396039604,2.1644193062182016
7.623762376237624,2.114740884500246
7.643564356435643,2.0661294906387053
7.663366336633663,2.018863390254612
7.683168316831684,1.9732350373130627
7.702970297029703,1.9295497476805465
7.7227722772277225,1.8881235817741737
7.742574257425743,1.8492802798424748
7.762376237623762,1.8133471141925015
7.782178217821782,1.7806495706556034
7.801980198019803,1.7515048527200354
7.821782178217822,1.726214317817169
7.841584158415841,1.7050551006320007
7.861386138613862,1.6882713374487632
7.881188118811881,1.6760655524169012
7.900990099009901,1.6685908679806503
7.92079207920792,1.6659447246254921
7.9405940594059405,1.6681647174710468
7.96039603960396,1.675226977756232
7.980198019801979,1.687047270001424
8.0,1.7034846861525739
8.01980198019802,1.72434755119201
8.03960396039604,1.749400958809123
8.05940594059406,1.7783752591857551
8.07920792079208,1.810974826824066
8.099009900990099,1.8468865256190121
8.118811881188119,1.8857874292882257
8.138613861386139,1.9273515140175954
8.158415841584159,1.9712551891470684
8.178217821782178,2.017181653458928
8.198019801980198,2.064824151927823
8.217821782178218,2.1138882613218484
8.237623762376238,2.1640933582107915
8.257425742574258,2.2151734270484513
8.277227722772277,2.2668773562822135
8.297029702970297,2.318968852977544
8.316831683168317,2.3712260857561
8.336633663366337,2.423441144968132
8.356435643564357,2.475419389756737
8.376237623762377,2.5269787349202755
8.396039603960396,2.577948916527992
8.415841584158416,2.6281707640113194
8.435643564356436,2.6774954976613277
8.455445544554456,2.72578406375058
8.475247524752476,2.7729065144933487
8.495049504950495,2.8187414364156336
8.514851485148515,2.863175428125189
8.534653465346535,2.9061026267004526
8.554455445544555,2.9474242807530464
8.574257425742575,2.9870483675012274
8.594059405940595,3.024889250797428
8.613861386138613,3.0608673768872765
8.633663366336634,3.0949090046700074
8.653465346534654,3.1269459673282385
8.673267326732672,3.1569154623609657
8.693069306930694,3.1847598672600697
8.712871287128714,3.2104265782982013
8.732673267326732,3.233867870131797
8.752475247524753,3.255040774158032
8.772277227722773,3.273906973793549
8.792079207920791,3.290432715062254
8.811881188118813,3.304588731087737
8.831683168316832,3.3163501792827774
8.85148514851485,3.325696590213696
8.871287128712872,3.332611827292624
8.891089108910892,3.3370840566162423
8.91089108910891,3.3391057264278454
8.930693069306932,3.3386735558312592
8.950495049504951,3.3357885325323897
8.97029702970297,3.3304559195286307
8.990099009900991,3.3226852708095906
9.00990099009901,3.3124904562765862
9.029702970297029,3.2998896962345277
9.04950495049505,3.2849056059601764
9.06930693069307,3.267565251006435
9.089108910891088,3.247900214065732
9.10891089108911,3.225946674386741
9.12871287128713,3.2017455009201945
9.148514851485148,3.1753423605608293
9.16831683168317,3.1467878430549088
9.188118811881187,3.1161376043546443
9.207920792079207,3.083452530421439
9.227722772277229,3.0487989237048962
9.247524752475247,3.0122487147492905
9.267326732673267,2.9738797015942993
9.287128712871288,2.9337758198294166
9.306930693069306,2.8920274463132385
9.326732673267326,2.8487317396526977
9.346534653465348,2.8039930205167862
9.366336633663366,2.757923194684323
9.386138613861386,2.7106422213276784
9.405940594059407,2.6622786283246684
9.425742574257425,2.6129700752511154
9.445544554455445,2.5628639629854564
9.465346534653467,2.5121180863634347
9.485148514851485,2.4609013228193666
9.504950495049505,2.4093943451606328
9.524752475247526,2.3577903402211566
9.544554455445544,2.306295706783855
9.564356435643564,2.2551306955178254
9.584158415841586,2.204529940487828
9.603960396039604,2.154742815986463
9.623762376237623,2.106033534276958
9.643564356435645,2.05868088013368
9.663366336633663,2.012977458468978
9.683168316831683,1.9692283145957323
9.702970297029704,1.927748776910607
9.722772277227723,1.8888613745260043
9.742574257425742,1.852891704259734
9.762376237623764,1.8201631692075027
9.782178217821782,1.7909905901148766
9.801980198019802,1.7656728021147539
9.821782178217823,1.7444844873690042
9.841584158415841,1.7276676438270115
9.861386138613861,1.7154232273073975
9.881188118811881,1.7079035976718766
9.900990099009901,1.7052064198192518
9.92079207920792,1.7073705965172412
9.94059405940594,1.7143746416512478
9.96039603960396,1.7261376613963924
9.98019801980198,1.742522838844263
10.0,1.763343065219495
10.01980198019802,1.7883681728806384
10.03960396039604,1.8173331289740655
10.05940594059406,1.8499465480000756
10.07920792079208,1.885898960280041
10.099009900990099,1.9248704026956354
10.118811881188119,1.966537046819121
10.138613861386139,2.0105767214805574
10.158415841584159,2.0566733048002663
10.178217821782178,2.1045200470808925
10.198019801980198,2.153821940537995
10.217821782178218,2.2042972791770543
10.237623762376238,2.25567855878615
10.257425742574258,2.307712859752101
10.277227722772277,2.360161840029079
10.297029702970297,2.4128014465203447
10.316831683168317,2.4654214334172577
10.336633663366337,2.5178247575422894
10.356435643564357,2.5698269044454047
10.376237623762377,2.6212551852772266
10.396039603960396,2.671948033299109
10.415841584158416,2.7217543200676153
10.435643564356436,2.7705327045309316
10.455445544554454,2.818151023154198
10.475247524752476,2.864485725423399
10.495049504950495,2.9094213563741085
10.514851485148514,2.952850085907783
10.534653465346535,2.9946712833944615
10.554455445544555,3.03479113525781
10.574257425742573,3.073122302771672
10.594059405940595,3.109583617071593
10.613861386138614,3.1440998083280425
10.633663366336632,3.1766012660861946
10.653465346534654,3.2070238279112235
10.673267326732674,3.2353085936587833
10.693069306930692,3.2614017628982124
10.712871287128714,3.285254493235919
10.732673267326733,3.3068227775095527
