Time (s),Filtered Signal
0.0,-0.013544078025397942
0.03337004405286344,0.039629306174680606
0.06674008810572687,0.10531675574401556
0.10011013215859031,0.19069397436605107
0.13348017621145375,0.2934478342976705
0.16685022026431717,0.400183093145865
0.20022026431718062,0.48903020091911065
0.23359030837004408,0.5367112167681672
0.2669603524229075,0.5279053453975027
0.3003303964757709,0.46272109800929295
0.33370044052863435,0.3581109177477051
0.3670704845814978,0.24167862510704663
0.40044052863436125,0.1403006015515956
0.43381057268722467,0.06900201301718144
0.46718061674008815,0.02569753003792669
0.5005506607929515,-0.0055204768805287435
0.533920704845815,-0.044287382481689924
0.5672907488986785,-0.10228166041240025
0.6006607929515418,-0.17586207638722207
0.6340308370044053,-0.24662724624243473
0.6674008810572687,-0.2895261964252647
0.7007709251101322,-0.28456526828212847
0.7341409691629956,-0.22662280717623182
0.767511013215859,-0.12894541999415152
0.8008810572687225,-0.018879840110411803
0.834251101321586,0.07217738740628797
0.8676211453744493,0.12028977240267241
0.9009911894273128,0.1172889009185078
0.9343612334801763,0.07282870011494409
0.9677312775330397,0.009805231823490407
1.001101321585903,-0.04471732147719964
1.0344713656387665,-0.0695085841712106
1.06784140969163,-0.056533742201101786
1.1012114537444935,-0.013268926565427622
1.134581497797357,0.0406530517177716
1.1679515418502202,0.08122548292060755
1.2013215859030837,0.08953878694288611
1.2346916299559472,0.05946914148396757
1.2680616740088106,0.0005053034827955103
1.3014317180616741,-0.06573308678695981
1.3348017621145374,-0.11423784260252384
1.3681718061674009,-0.1271699219126459
1.4015418502202643,-0.10168581743232569
1.4349118942731278,-0.05144136377327968
1.4682819383259913,-0.0009387449889157067
1.5016519823788548,0.02483615077461849
1.535022026431718,0.010877291294487062
1.5683920704845815,-0.041842036496589075
1.601762114537445,-0.11722550182696527
1.6351321585903085,-0.19100425604542148
1.668502202643172,-0.240432916849485
1.7018722466960352,-0.25248853002971566
1.7352422907488987,-0.22735713632470592
1.7686123348017622,-0.17629498970012786
1.8019823788546256,-0.11541694835816843
1.8353524229074891,-0.05853291509433154
1.8687224669603526,-0.012230435695833049
1.9020925110132159,0.024941159316819575
1.9354625550660793,0.059405826444497545
1.9688325991189428,0.09763634472154278
2.002202643171806,0.14205209272629152
2.0355726872246698,0.1896726963733088
2.068942731277533,0.23379431456908067
2.1023127753303967,0.2673423706834871
2.13568281938326,0.28587610101541305
2.1690528634361232,0.28875318635217945
2.202422907488987,0.2782547772437219
2.23579295154185,0.25766868941171567
2.269162995594714,0.2297291492381706
2.302533039647577,0.19627999078490926
2.3359030837004404,0.159022624538758
2.369273127753304,0.12043685213671343
2.4026431718061674,0.0839104611983355
2.436013215859031,0.05276268369981053
2.4693832599118943,0.0287154604795149
2.5027533039647576,0.010846621481433253
2.5361233480176213,-0.004180687227595195
2.5694933920704845,-0.02061700268655109
2.6028634361233483,-0.04167956609414877
2.6362334801762115,-0.06828317496179016
2.6696035242290748,-0.09916100416596801
2.7029735682819385,-0.1322394277268596
2.7363436123348017,-0.16636997683106336
2.7697136563876654,-0.20228155484421875
2.8030837004405287,-0.24201237435746986
2.8364537444933924,-0.2868986203277252
2.8698237885462556,-0.33503288170873535
2.903193832599119,-0.3795569843161534
2.9365638766519826,-0.4089790812215089
2.969933920704846,-0.40992617694746025
3.0033039647577096,-0.37166010182231696
3.036674008810573,-0.2907656672164898
3.070044052863436,-0.17409479524057653
3.1034140969162998,-0.038506013208538324
3.136784140969163,0.09296796206818876
3.1701541850220267,0.19755592624101187
3.20352422907489,0.2597257123448698
3.2368942731277532,0.27621632346112196
3.270264317180617,0.2571136583368615
3.30363436123348,0.22226446915875295
3.337004405286344,0.19403462799554322
3.370374449339207,0.18888889070082832
3.4037444933920704,0.21090459799450154
3.437114537444934,0.24983502282172743
3.4704845814977974,0.2848049252536311
3.503854625550661,0.2925992398765818
3.5372246696035243,0.25751301737948873
3.5705947136563876,0.17871305403964466
3.6039647577092513,0.07169425072089028
3.6373348017621145,-0.03724045908218417
3.6707048458149782,-0.121342329791824
3.7040748898678415,-0.16398810384683338
3.737444933920705,-0.16451408687690874
3.7708149779735685,-0.13665048751886902
3.8041850220264317,-0.10067070308182202
3.8375550660792954,-0.07355572305286774
3.8709251101321587,-0.06225744013250171
3.9042951541850224,-0.06312954294617784
3.9376651982378856,-0.06703141920371168
3.971035242290749,-0.06658682965231376
4.004405286343612,-0.06123784775477482
4.037775330396476,-0.05735817139653954
4.0711453744493395,-0.06367224134566096
4.104515418502203,-0.08483609497270257
4.137885462555066,-0.11691821675865399
4.171255506607929,-0.14735795342342478
4.2046255506607935,-0.1595394107429492
4.237995594713657,-0.1397446884320038
4.27136563876652,-0.08313705168135084
4.304735682819383,0.003965353215834197
4.3381057268722465,0.10636356650897737
4.371475770925111,0.20547508749481375
4.404845814977974,0.28537777008738596
4.438215859030837,0.3367833135593735
4.4715859030837,0.3576604029561149
4.504955947136564,0.3510545639041367
4.538325991189428,0.3219383203360466
4.571696035242291,0.27498291532213853
4.605066079295154,0.21406217572912975
4.638436123348018,0.14290747157305356
4.671806167400881,0.06562819819750298
4.705176211453745,-0.013756209666878606
4.738546255506608,-0.09248606083803686
4.7719162995594715,-0.16976238373546798
4.805286343612335,-0.24593634619823715
4.838656387665198,-0.3202458843039829
4.872026431718062,-0.38842789805094646
4.905396475770925,-0.44199889432766
4.938766519823789,-0.47022929681654624
4.972136563876652,-0.46426384899754447
5.005506607929515,-0.42144996700070947
5.038876651982379,-0.34761315310735985
5.072246696035243,-0.255977701867366
5.105616740088106,-0.16310170771984245
5.138986784140969,-0.08361378427092607
5.172356828193832,-0.025958022157587454
5.2057268722466965,0.009334621457893757
5.23909691629956,0.028612828280783993
5.272466960352423,0.04220083451650023
5.305837004405286,0.060959230991305374
5.3392070484581495,0.0933561179058545
5.372577092511014,0.14345128032061571
5.405947136563877,0.20973019669213305
5.43931718061674,0.2847486100455329
5.4726872246696034,0.3559230543675347
5.506057268722468,0.4080214475105745
5.539427312775331,0.427494849524511
5.572797356828194,0.4077383793837842
5.606167400881057,0.35325257763719864
5.639537444933921,0.2803302179269837
5.672907488986785,0.2128490417422949
5.706277533039648,0.17381729716074437
5.739647577092511,0.17558369533677354
5.7730176211453745,0.21289440567607232
5.806387665198238,0.2624230184434544
5.839757709251102,0.2900113300424729
5.873127753303965,0.2635328610400245
5.9064977973568284,0.1664737333814335
5.939867841409692,0.006413657086174746
5.973237885462555,-0.18572589028221967
6.006607929515419,-0.36599310693798454
6.039977973568282,-0.4932938295123177
6.073348017621146,-0.5441600303060667
6.106718061674009,-0.5200784940075629
6.140088105726872,-0.44448598837174563
6.173458149779736,-0.35134305072204935
6.2068281938325995,-0.27094558746975334
6.240198237885463,-0.21945978961714982
6.273568281938326,-0.19629014925942484
6.306938325991189,-0.18921116019737183
6.3403083700440535,-0.18346937203166674
6.373678414096917,-0.16966482727320203
6.40704845814978,-0.14665264965662658
6.440418502202643,-0.1189215722594124
6.4737885462555065,-0.09100334258683011
6.507158590308371,-0.06279997862058126
6.540528634361234,-0.028760834905803386
6.573898678414097,0.018654693524343017
6.60726872246696,0.0833550194066108
6.640638766519824,0.16122141564686082
6.674008810572688,0.23969477883022336
6.707378854625551,0.3019792307353619
6.740748898678414,0.3340257962199063
6.774118942731278,0.33090656804186697
6.807488986784141,0.29933620556010915
6.840859030837005,0.25487214355220666
6.874229074889868,0.21487437702571846
6.9075991189427315,0.19042062005249916
6.940969162995595,0.18103604260668144
6.974339207048458,0.17492836050768953
7.007709251101322,0.15487181243910172
7.041079295154185,0.10711011912257852
7.074449339207049,0.029020587104242396
7.107819383259912,-0.0682926113499634
7.141189427312775,-0.16392800289717224
7.174559471365639,-0.23590537701602649
7.207929515418503,-0.27057163270688434
7.241299559471366,-0.26825218227459074
7.274669603524229,-0.24252646204727388
7.308039647577092,-0.21351674453132957
7.3414096916299565,-0.19829840561476633
7.37477973568282,-0.20275714194925262
7.408149779735683,-0.2185070704258409
7.441519823788546,-0.22625367104173486
7.47488986784141,-0.20420992664216905
7.508259911894274,-0.13798814679815044
7.541629955947137,-0.027692386554436295
7.575,0.11094055431181112
7.608370044052863,0.25196157776632205
7.641740088105728,0.36888282704587455
7.675110132158591,0.4443009845982114
7.708480176211454,0.47508727922188476
7.741850220264317,0.4707747315009775
7.775220264317181,0.4460629783037238
7.808590308370045,0.4113931267597495
7.841960352422908,0.3667324979271805
7.875330396475771,0.3022159694110303
7.9087004405286345,0.20562315122132382
7.942070484581498,0.0726635946394871
7.975440528634362,-0.0859772327811061
8.008810572687224,-0.24546901668330395
8.042180616740088,-0.37587286396668945
8.075550660792953,-0.45491522819269586
8.108920704845815,-0.47764885040299543
8.142290748898679,-0.45770636354067795
8.175660792951541,-0.41948131410197065
8.209030837004406,-0.3855488463396101
8.24240088105727,-0.3660868888794493
8.275770925110132,-0.35567512161893894
8.309140969162996,-0.33859202266276023
8.342511013215859,-0.2991358442115265
8.375881057268723,-0.2311155500044523
8.409251101321587,-0.1416016409741393
8.44262114537445,-0.04746854818328385
8.475991189427313,0.03287841985179635
8.509361233480176,0.08795287718402071
8.54273127753304,0.11749159808023966
8.576101321585904,0.13074943689674468
8.609471365638766,0.14014927328283647
8.64284140969163,0.1540359083249302
8.676211453744493,0.17265777362464405
8.709581497797357,0.18964666161072824
8.742951541850221,0.19808025173421231
8.776321585903084,0.19738057970263748
8.809691629955948,0.19648115478206915
8.84306167400881,0.2105565564307849
8.876431718061674,0.25231065291645455
8.909801762114538,0.32234193248937687
8.9431718061674,0.4043343767059303
8.976541850220265,0.4687992731402955
9.009911894273127,0.4846681563897149
9.043281938325991,0.4335308505732949
9.076651982378856,0.31930387414880484
9.110022026431718,0.16796679856772026
9.143392070484582,0.016957829734764587
9.176762114537445,-0.10074067663304938
9.210132158590309,-0.16992112370358517
9.243502202643173,-0.1973421531965146
9.276872246696035,-0.20514412591382664
9.3102422907489,-0.21747870116105805
9.343612334801762,-0.24761485931876726
9.376982378854626,-0.2920307476457088
9.41035242290749,-0.3338951328258933
9.443722466960352,-0.35333289519203337
9.477092511013216,-0.33866318735601286
9.510462555066079,-0.29286698440122466
9.543832599118943,-0.23248332614396236
9.577202643171807,-0.18012889669032048
9.61057268722467,-0.15475619128250986
9.643942731277534,-0.16429106694507292
9.677312775330396,-0.2034794850607124
9.71068281938326,-0.2568809534119694
9.744052863436124,-0.3046362454669777
9.777422907488987,-0.3280337271880863
9.81079295154185,-0.31301274809461693
9.844162995594713,-0.25157983347252144
9.877533039647577,-0.14236702030578602
9.910903083700441,0.008544010590317026
9.944273127753304,0.18663480647991648
9.977643171806168,0.36918537474901997
10.01101321585903,0.5283246162500742
10.044383259911895,0.6372494552512356
10.077753303964759,0.6779660623295954
10.111123348017621,0.647438224874031
10.144493392070485,0.559127685242619
10.177863436123348,0.4386973885969447
10.211233480176212,0.3152618915700095
10.244603524229076,0.21167573831267025
10.277973568281938,0.13785949030494984
10.311343612334802,0.08978006932363214
10.344713656387665,0.05408111720497112
10.378083700440529,0.015795024999319427
10.411453744493393,-0.03464823340735011
10.444823788546255,-0.09817373834644634
10.47819383259912,-0.16842009049408693
10.511563876651982,-0.23611876225661868
10.544933920704846,-0.2936140284868925
10.57830396475771,-0.3371067207163708
10.611674008810573,-0.36597954206149885
10.645044052863437,-0.3804558255569776
10.678414096916299,-0.3796999247936073
10.711784140969163,-0.36186658442819264
10.745154185022027,-0.3260589819679564
10.77852422907489,-0.27471061125374224
10.811894273127754,-0.21448357623511785
10.845264317180618,-0.15462827456727213
10.87863436123348,-0.10334315254488768
10.912004405286345,-0.06401908509472014
10.945374449339207,-0.03350510090940695
10.978744493392071,-0.0035118571977801496
11.012114537444935,0.03541991683123922
11.045484581497798,0.08931714086350893
11.078854625550662,0.15773543823640368
11.112224669603524,0.23358068159777917
11.145594713656388,0.3056155190600552
11.178964757709252,0.36226578010688526
11.212334801762115,0.39497313018272245
11.245704845814979,0.3998697357130798
11.279074889867841,0.3775749612887222
11.312444933920705,0.3318406920077959
11.34581497797357,0.2681299882062026
11.379185022026432,0.19287759823817058
11.412555066079296,0.1134197242966217
11.445925110132158,0.037906270593178804
11.479295154185023,-0.02561819332612335
11.512665198237887,-0.07123398304508986
11.546035242290749,-0.09763107918435157
11.579405286343613,-0.10973666970880093
11.612775330396476,-0.11818199586191769
11.64614537444934,-0.13612069247389086
11.679515418502204,-0.17415633446463974
11.712885462555066,-0.2352031214823961
11.74625550660793,-0.3114629869726192
11.779625550660793,-0.38514375785414207
11.812995594713657,-0.4332306812271018
11.846365638766521,-0.4350183861035648
11.879735682819383,-0.37982187760736197
11.913105726872248,-0.2718850153860846
11.94647577092511,-0.13030251479586225
11.979845814977974,0.016394217110380596
12.013215859030838,0.13915522645381231
12.0465859030837,0.21746210192481416
12.079955947136565,0.24504185769829964
12.113325991189427,0.2302443562416735
12.146696035242291,0.19140586640060334
12.180066079295155,0.14952744964254708
12.213436123348018,0.12133638604125555
12.246806167400882,0.1150863577685932
12.280176211453744,0.12989284436003096
12.313546255506608,0.1579172710527088
12.346916299559473,0.18795829427201913
12.380286343612335,0.2090661987629636
12.413656387665199,0.21330919063784198
12.447026431718061,0.19734208388109964
12.480396475770926,0.16272281454698076
12.51376651982379,0.11504071270494355
12.547136563876652,0.06205602422112523
12.580506607929516,0.011313576150869526
12.613876651982379,-0.03201982252638798
12.647246696035243,-0.06628788006749076
12.680616740088107,-0.0929969142644249
12.71398678414097,-0.11522001662454019
12.747356828193833,-0.13563191046396103
12.780726872246696,-0.15524059448902974
12.81409691629956,-0.17343567831516105
12.847466960352424,-0.18912874487409112
12.880837004405286,-0.2020410534271649
12.91420704845815,-0.2130717859372498
12.947577092511013,-0.22326503298262915
12.980947136563877,-0.2318545954659322
13.014317180616741,-0.23462974689562818
13.047687224669604,-0.22394930149964157
13.081057268722468,-0.19101108031071937
13.11442731277533,-0.1297755372314278
13.147797356828194,-0.04086808482466705
13.181167400881058,0.06653807253536553
13.21453744493392,0.17616384548434377
13.247907488986785,0.2692505069637746
13.281277533039647,0.33069528575905494
13.314647577092511,0.35413086783965647
13.348017621145376,0.3436137039081765
13.381387665198238,0.310955354530235
13.414757709251102,0.26973434985964034
13.448127753303964,0.2287533405752588
13.481497797356829,0.1882153353234857
13.514867841409693,0.1407407989886345
13.548237885462555,0.07696023451531141
13.58160792951542,-0.00702578515551037
13.614977973568282,-0.10420621970163807
13.648348017621146,-0.19634496877275642
13.68171806167401,-0.25950960907161796
13.715088105726872,-0.2733699984524499
13.748458149779736,-0.23036426234426566
13.781828193832599,-0.14075515493537424
13.815198237885463,-0.031193414721991962
13.848568281938327,0.06308319518071548
13.88193832599119,0.10982021982933131
13.915308370044054,0.0909140991827111
13.948678414096916,0.00889816899451697
13.98204845814978,-0.11396093685783608
14.015418502202644,-0.24378486708331396
14.048788546255507,-0.3471343204674327
14.08215859030837,-0.4018409827419408
14.115528634361233,-0.40202002848461604
14.148898678414097,-0.35558084344668917
14.182268722466961,-0.27640255175904005
14.215638766519824,-0.17599710191227702
14.249008810572688,-0.05940764500937263
14.28237885462555,0.07269242161570832
14.315748898678414,0.21760697712701857
14.349118942731279,0.36453406212189005
14.382488986784141,0.4933283723815545
14.415859030837005,0.5798346213460555
14.449229074889868,0.6055654978865793
14.482599118942732,0.5666771761803512
14.515969162995596,0.47715663111095563
14.549339207048458,0.36397313220268745
14.582709251101322,0.2561380718577875
14.616079295154185,0.17287508404825477
14.649449339207049,0.11665372292507818
14.682819383259913,0.07439621722978945
14.716189427312775,0.026045154995087975
14.74955947136564,-0.04394980964834986
14.782929515418502,-0.13795699342909903
14.816299559471366,-0.24340189241629523
14.84966960352423,-0.33842487170167984
14.883039647577093,-0.40181481199929936
14.916409691629957,-0.42222908368560286
14.94977973568282,-0.4024628814344043
14.983149779735683,-0.35727297654705564
15.016519823788547,-0.3064153971577915
15.04988986784141,-0.26652501927949596
15.083259911894274,-0.2454706888620234
15.116629955947138,-0.2411701036594662
15.15,-0.24457767092087335
15.183370044052865,-0.2447883797711075
15.216740088105727,-0.23363224260733548
15.250110132158591,-0.2078426118832503
15.283480176211455,-0.16838154404017872
15.316850220264318,-0.11799627310132171
15.350220264317182,-0.05882195043713738
15.383590308370044,0.008472457547725765
15.416960352422908,0.08359924812960547
15.450330396475772,0.16444551179351885
15.483700440528635,0.2452422356926712
15.517070484581499,0.3164777361800216
15.550440528634361,0.3671414920631042
15.583810572687225,0.38882708061742355
15.61718061674009,0.3802614959736877
15.650550660792952,0.35024812674878203
15.683920704845816,0.3170714848299775
15.717290748898678,0.30334411152564444
15.750660792951543,0.32708019239123864
15.784030837004407,0.39194566600814557
15.817400881057269,0.48110571630843274
15.850770925110133,0.5587130206322414
15.884140969162996,0.580381647746413
15.91751101321586,0.5097910933545584
15.950881057268724,0.33487129182530684
15.984251101321586,0.07606315267886006
16.01762114537445,-0.2180068875189116
16.050991189427315,-0.4864864681318302
16.084361233480177,-0.6773649580850416
16.11773127753304,-0.7646088969138877
16.151101321585905,-0.754255699562459
16.184471365638768,-0.677639409754899
16.21784140969163,-0.575726836815232
16.251211453744492,-0.4820166652870877
16.284581497797358,-0.4112328233122779
16.31795154185022,-0.35770325398528674
16.351321585903083,-0.30275521316708565
16.38469162995595,-0.22678469047475322
16.41806167400881,-0.12025267650849125
16.451431718061674,0.011006501008179102
16.48480176211454,0.14785134741859088
16.518171806167402,0.26560962159609885
16.551541850220264,0.3435992320249834
16.584911894273127,0.37213263272984615
16.618281938325993,0.35442757338806563
16.651651982378855,0.30350087373385753
16.685022026431717,0.23632300717735127
16.718392070484583,0.16822949652016397
16.751762114537446,0.1097088205912192
16.785132158590308,0.06596740098058185
16.818502202643174,0.038190238233547454
16.851872246696036,0.024935221517342367
16.8852422907489,0.022692047999133498
16.91861233480176,0.025747032137247623
16.951982378854627,0.026342954612265292
16.98535242290749,0.016165138279979722
17.01872246696035,-0.010624173524969999
17.052092511013218,-0.05380065399229987
17.08546255506608,-0.10486032825705338
17.118832599118942,-0.1480639804443616
17.152202643171808,-0.16543584403102496
17.18557268722467,-0.14442451262065628
