Frequency (Hz),Amplitude
0.0,1.2936134358209623
0.04,1.2960593099476896
0.08,1.3033598936826643
0.12,1.3154061583171337
0.16,1.332023066308026
0.19999999999999998,1.3529786715802374
0.24,1.377995244873393
0.27999999999999997,1.4067612355637
0.32,1.4389429929522979
0.36,1.4741954208678767
0.39999999999999997,1.5121710464903169
0.44,1.552527276389578
0.48,1.59493184547763
0.52,1.6390666214085914
0.5599999999999999,1.6846300121334001
0.6,1.7313382530809915
0.64,1.7789258411124744
0.6799999999999999,1.8271453514082456
0.72,1.875766833226511
0.76,1.924576939201947
0.7999999999999999,1.9733779051902263
0.84,2.02198646572745
0.88,2.0702327644692486
0.9199999999999999,2.117959299106828
0.96,2.1650199254134717
1.0,2.211278934321222
1.04,2.256610208372184
1.0799999999999998,2.300896458756858
1.1199999999999999,2.3440285408080666
1.1600000000000001,2.385904843763658
1.2,2.426430749462364
1.24,2.465518154111166
1.28,2.503085047151256
1.3199999999999998,2.5390551414049383
1.3599999999999999,2.5733575490026017
1.4,2.6059264979955583
1.44,2.6367010850077737
1.48,2.6656250597359956
1.52,2.6926466375530427
1.5599999999999998,2.7177183368910827
1.5999999999999999,2.740796838474454
1.64,2.7618428638320722
1.68,2.7808210708476206
1.72,2.7976999644028515
1.76,2.812451820437529
1.7999999999999998,2.8250526219917647
1.8399999999999999,2.8354820060153862
1.88,2.8437232199278433
1.92,2.8497630870937196
1.9599999999999997,2.8535919805462537
2.0,2.8552038044469215
2.0399999999999996,2.8545959829159586
2.08,2.851769456009042
2.12,2.8467286827517304
2.1599999999999997,2.8394816512781547
2.2,2.8300398962560096
2.2399999999999998,2.8184185239187824
2.28,2.8046362451705527
2.3200000000000003,2.788715417381221
2.36,2.7706820956532803
2.4,2.7505660945178345
2.44,2.7284010612104277
2.48,2.704224561889223
2.5199999999999996,2.6780781823921926
2.56,2.6500076453890946
2.6,2.620062946071162
2.6399999999999997,2.58829850883857
2.68,2.55477336779492
2.7199999999999998,2.5195513742391538
2.76,2.4827014347567964
2.8,2.444297783949081
2.84,2.4044202962903336
2.88,2.363154842053702
2.92,2.320593692665143
2.96,2.2768359811928156
2.9999999999999996,2.2319882238899282
3.04,2.186164908690658
3.08,2.1394891561783305
3.1199999999999997,2.0920934576163894
3.16,2.0441204928993923
3.1999999999999997,1.9957240283973587
3.2399999999999998,1.947069890175381
3.28,1.8983370013856746
3.32,1.8497184630265018
3.36,1.8014226438908933
3.4,1.7536742274657646
3.44,1.706715139924431
3.4799999999999995,1.6608052536215425
3.52,1.6162227248053664
3.5599999999999996,1.573263784110049
3.5999999999999996,1.5322417574770733
3.64,1.4934850603559875
3.6799999999999997,1.4573338902451107
3.7199999999999998,1.4241353569241717
3.76,1.3942368539695356
3.7999999999999994,1.3679776061092235
3.84,1.345678533414706
3.88,1.3276308467026101
3.9199999999999995,1.3140840945265964
3.96,1.305234658419042
4.0,1.3012158589677028
4.04,1.3020908158994664
4.079999999999999,1.3078489631074133
4.12,1.3184066796697431
4.16,1.33361195048087
4.199999999999999,1.3532524433190736
4.24,1.3770660037164053
4.28,1.404752396327749
4.319999999999999,1.435985165726488
4.36,1.4704226982243356
4.4,1.5077178594944816
4.4399999999999995,1.54752588367243
4.4799999999999995,1.589510444250336
4.5200000000000005,1.6333480198520534
4.56,1.6787307767294257
4.6,1.7253682366807
4.640000000000001,1.7729880017343456
4.68,1.8213357826088183
4.72,1.8701749404548578
4.76,1.9192857102809602
4.8,1.968464235531754
4.84,2.017521509446164
4.88,2.0662822910733842
4.92,2.1145840420513413
4.96,2.162275913768497
5.0,2.209217802437593
5.039999999999999,2.255279481003269
5.08,2.3003398108720146
5.12,2.3442860325131734
5.159999999999999,2.3870131314908702
5.2,2.4284232750294756
5.24,2.4684253134742815
5.279999999999999,2.5069343407520503
5.319999999999999,2.5438713079954205
5.36,2.579162684751716
5.3999999999999995,2.612740162567762
5.4399999999999995,2.6445403961713465
5.48,2.674504777919416
5.52,2.702579241628881
5.56,2.7287140923331745
5.6,2.752863858908247
5.64,2.77498716688132
5.68,2.7950466290735863
5.72,2.8130087520346434
5.76,2.828843856503771
5.8,2.842526010383647
5.84,2.854032972938619
5.879999999999999,2.8633461491351317
5.92,2.8704505532293045
5.96,2.8753347808788887
5.999999999999999,2.8779909892166153
6.04,2.8784148844719906
6.08,2.8766057168714267
6.119999999999999,2.872566282684696
6.16,2.866302933421414
6.2,2.8578255923170803
6.239999999999999,2.847147778386301
6.279999999999999,2.834286638463867
6.32,2.819262987804457
6.359999999999999,2.80210135997176
6.3999999999999995,2.7828300669201864
6.44,2.761481270359861
6.4799999999999995,2.738091065701128
6.52,2.7126995801012015
6.56,2.685351086385857
6.6,2.656094134895639
6.64,2.624981705611814
6.68,2.5920713832533337
6.72,2.5574255584034726
6.76,2.5211116581217845
6.8,2.483202409919581
6.84,2.443776143416379
6.88,2.4029171344356173
6.92,2.3607159967157165
6.959999999999999,2.3172701267692424
7.0,2.2726842076613694
7.04,2.227070777516173
7.08,2.1805508682758274
7.119999999999999,2.133254719466679
7.16,2.085322570236155
7.199999999999999,2.03690553040267
7.239999999999999,1.9881665272933677
7.28,1.9392813191964673
7.32,1.8904395576603206
7.359999999999999,1.8418458688364048
7.3999999999999995,1.793720907709211
7.4399999999999995,1.7463023175183365
7.4799999999999995,1.6998454993101448
7.52,1.654624063276379
7.5600000000000005,1.6109297953703476
7.599999999999999,1.5690719325251916
7.64,1.5293755033019316
7.68,1.4921784672968301
7.719999999999999,1.4578273895345737
7.76,1.4266714320387268
7.800000000000001,1.3990545508509797
7.839999999999999,1.3753059646521513
7.88,1.3557292088158361
7.92,1.3405903817220124
7.959999999999999,1.3301064768077486
8.0,1.3244349003852218
8.040000000000001,1.3236653244267107
8.08,1.3278148635208387
8.12,1.3368271977831747
8.159999999999998,1.3505757550062865
8.2,1.3688705305669444
8.24,1.3914676866912894
8.28,1.4180808233070097
8.32,1.4483927791812254
8.36,1.4820669717841533
8.399999999999999,1.5187575468380632
8.44,1.5581179057770145
8.48,1.5998074494241799
8.52,1.6434965836719078
8.56,1.688870167552523
8.6,1.7356296529318247
8.639999999999999,1.78349418376954
8.68,1.8322009087199338
8.72,1.8815047286652844
8.76,1.9311776615442553
8.8,1.98100796761604
8.84,2.030799142998509
8.879999999999999,2.080368859625339
8.92,2.129547905986777
8.959999999999999,2.1781791646939475
9.0,2.2261166492402022
9.040000000000001,2.273224612442719
9.079999999999998,2.319376732103254
9.12,2.364455374712661
9.16,2.4083509349549015
9.2,2.4509612468833617
9.24,2.4921910615950567
9.280000000000001,2.5319515857552743
9.32,2.570160075235681
9.36,2.6067394782856166
9.399999999999999,2.641618122963024
9.44,2.674729443941104
9.48,2.7060117442345377
9.52,2.7354079878249995
9.559999999999999,2.762865619591257
9.6,2.788336409352896
9.639999999999999,2.811776317212887
9.68,2.833145377730258
9.72,2.85240760076966
9.76,2.8695308871611185
9.8,2.884486957562539
9.84,2.8972512931524115
9.879999999999999,2.9078030869931775
9.92,2.9161252051000206
9.959999999999999,2.9222041564280268
10.0,2.926030071155645
10.04,2.9275966867967393
10.079999999999998,2.9269013418199172
10.12,2.9239449765945427
10.16,2.918732141620574
10.2,2.9112710131361683
10.24,2.9015734163354043
10.280000000000001,2.889654856570885
10.319999999999999,2.8755345590645907
10.36,2.8592355178079107
10.4,2.8407845545006314
10.44,2.8202123885615693
10.48,2.7975537194432394
10.52,2.772847322702168
10.559999999999999,2.746136161518059
10.6,2.7174675156215584
10.639999999999999,2.6868931298842322
10.68,2.654469385147199
10.72,2.6202574942173396
10.76,2.5843237263410552
10.799999999999999,2.5467396638714686
10.84,2.507582495268074
10.879999999999999,2.46693534899458
10.92,2.4248876732891524
10.96,2.3815356671372916
11.0,2.3369827680301105
11.04,2.2913402021654736
11.08,2.244727602539237
11.12,2.197273699729119
11.16,2.149117088887236
11.2,2.1004070742484466
11.24,2.0513045889581045
11.28,2.0019831827419754
11.319999999999999,1.9526300622781851
11.36,1.9034471583586203
11.4,1.8546521792244428
11.44,1.806479589991734
11.48,1.7591814331607725
11.52,1.713027874572159
11.559999999999999,1.6683073234712908
11.6,1.625325936748538
11.64,1.584406280485051
11.68,1.545884894432476
11.72,1.5101084985616808
11.759999999999998,1.4774286103748182
11.799999999999999,1.448194423783575
11.84,1.4227439484767261
11.879999999999999,1.4013936261481441
11.92,1.3844269114890728
11.96,1.372082591399855
11.999999999999998,1.3645438515908797
12.04,1.3619292107725385
12.08,1.3642863675412273
12.12,1.3715897239888606
12.16,1.3837419026428923
12.200000000000001,1.4005790538239493
12.239999999999998,1.4218792781606513
12.28,1.447373166493021
12.32,1.4767553392509962
12.36,1.509695941579828
12.4,1.5458512643365343
12.44,1.5848729405179476
12.479999999999999,1.6264154442344858
12.52,1.6701418495975617
12.559999999999999,1.7157279697027934
12.6,1.7628650912570667
12.64,1.811261560164837
12.68,1.8606434737462425
12.719999999999999,1.9107547116937211
12.76,1.9613565026934958
12.799999999999999,2.012226685362612
12.84,2.0631587859347373
12.88,2.113961003582255
12.92,2.1644551683034137
12.959999999999999,2.2144757158379
12.999999999999998,2.2638687084930296
13.04,2.312490919257972
13.08,2.360208988333069
13.12,2.4068986554630216
13.16,2.4524440676105415
13.2,2.4967371590379517
13.239999999999998,2.539677099386342
13.28,2.5811698045586526
13.32,2.6211275049043237
13.36,2.6594683652086015
13.4,2.696116151194737
13.44,2.730999937571437
13.479999999999999,2.7640538530457994
13.52,2.795216858135928
13.559999999999999,2.8244325520333886
13.6,2.851649005168174
13.64,2.8768186145090047
13.68,2.899897978985199
13.719999999999999,2.920847792740954
13.76,2.9396327542294167
13.799999999999999,2.956221489423236
13.84,2.9705864876629873
13.88,2.9827040488871783
13.919999999999998,2.992554241190197
13.959999999999999,3.000120867840477
14.0,3.005391443062817
14.04,3.0083571760489747
14.08,3.009012962811945
14.120000000000001,3.0073573856440565
14.16,3.0033927200797814
14.2,2.9971249494031937
14.239999999999998,2.9885637868796597
14.28,2.977722706034071
14.32,2.9646189794459965
14.36,2.9492737266879816
14.399999999999999,2.9317119721995066
14.44,2.911962714068171
14.479999999999999,2.890059004884463
14.52,2.866038046049426
14.56,2.8399412971486173
14.6,2.811814602263329
14.64,2.781708335373668
14.68,2.7496775673193383
14.719999999999999,2.715782257123883
14.76,2.6800874708560083
14.799999999999999,2.642663631594485
14.84,2.6035868044746935
14.879999999999999,2.5629390212134076
14.919999999999998,2.520808648915113
14.959999999999999,2.477290808328193
15.0,2.432487846998406
15.04,2.3865098728947554
15.079999999999998,2.3394753539658724
15.120000000000001,2.2915117885913676
15.159999999999998,2.242756450840375
15.199999999999998,2.1933572125907785
15.24,2.1434734415675587
15.28,2.093276969797357
15.319999999999999,2.042953120305118
15.36,1.9927017704349455
15.399999999999999,1.9427384171969624
15.439999999999998,1.893295192715168
15.48,1.8446217554454079
15.52,1.7969859549183307
15.559999999999999,1.7506741345834347
15.600000000000001,1.7059909003532108
15.639999999999999,1.6632581450876325
15.679999999999998,1.6228130877118319
15.72,1.5850050695828846
15.76,1.5501908633444135
15.799999999999999,1.5187283064599506
15.84,1.4909681877056267
15.879999999999999,1.4672444983778585
15.919999999999998,1.4478634048236387
15.96,1.4330915775498119
16.0,1.4231447727857989
16.04,1.4181777356744953
16.080000000000002,1.418276512007479
16.12,1.4234540767413906
16.16,1.4336498221951606
16.200000000000003,1.4487329639059694
16.24,1.4685094247235506
16.279999999999998,1.4927313591426232
16.319999999999997,1.5211082577725332
16.36,1.5533185482701857
16.4,1.5890207524335778
16.439999999999998,1.6278635050465302
16.48,1.6694940178871465
16.52,1.7135648258940719
16.56,1.759738849232633
16.6,1.8076929348454056
16.64,1.8571201097713421
16.68,1.907730799861108
16.72,1.9592532571259262
16.759999999999998,2.0114334105830753
16.799999999999997,2.0640343194513417
16.84,2.1168353707401093
16.88,2.1696313295917466
16.919999999999998,2.222231322001138
16.96,2.2744578062194973
17.0,2.3261455709514647
17.04,2.377140784705549
17.080000000000002,2.4273001105702745
17.12,2.4764898934964954
17.16,2.5245854221951443
17.2,2.5714702644484486
17.24,2.6170356725339126
17.279999999999998,2.6611800542284842
17.32,2.7038085042338045
17.36,2.744832390649158
17.4,2.7841689911762018
17.44,2.8217411739681877
17.48,2.857477118366063
17.52,2.891310071145749
17.56,2.9231781343027254
17.6,2.953024080800454
17.64,2.9807951950950966
17.68,3.006443135612651
17.72,3.0299238166924867
17.759999999999998,3.0511973078218344
17.799999999999997,3.0702277482696547
17.84,3.0869832754868933
17.88,3.1014359658755475
17.919999999999998,3.1135617867436336
17.96,3.123340558459744
18.0,3.1307559260019335
18.04,3.1357953392639595
18.080000000000002,3.138450041639814
18.12,3.138715066557692
18.159999999999997,3.1365892417793217
18.2,3.1320752014223583
18.24,3.125179405804827
18.279999999999998,3.1159121693533867
18.32,3.1042876969642097
18.36,3.0903241293587587
18.4,3.0740435981391148
18.44,3.055472291421551
18.48,3.034640531115108
18.52,3.011582863117061
18.560000000000002,2.986338161921741
18.6,2.95894975138631
18.64,2.9294655436689987
18.679999999999996,2.8979381986544217
18.72,2.864425306508343
18.759999999999998,2.828989596361132
18.799999999999997,2.791699174503894
18.84,2.7526277958897527
18.88,2.7118551731572866
18.919999999999998,2.6694673278195635
18.96,2.6255569886685675
19.0,2.580224042796892
19.04,2.5335760448854883
19.080000000000002,2.485728790474323
19.119999999999997,2.436806958716993
19.159999999999997,2.3869448294735998
19.2,2.3362870783167895
19.24,2.28498965084105
19.279999999999998,2.233220714214751
19.32,2.1811616787325994
19.36,2.1290082746305465
19.4,2.0769716589160456
19.44,2.0252795126525904
19.48,1.9741770702071488
19.52,1.9239279977378199
19.560000000000002,1.8748150083682389
19.6,1.8271400665673705
19.639999999999997,1.7812239961275107
19.68,1.7374052688699795
19.72,1.6960377218478417
19.759999999999998,1.6574869399751064
19.8,1.6221250627520933
19.84,1.5903238439953553
19.88,1.5624459262128305
19.919999999999998,1.538834492292478
19.96,1.5198017162385502
20.0,1.5056167187868483
20.04,1.496493986089839
20.08,1.4925833589579949
20.119999999999997,1.4939626811079558
20.159999999999997,1.5006339749686117
20.2,1.5125236139280644
20.24,1.5294864574632285
20.279999999999998,1.5513134217376174
20.32,1.5777415812044666
20.36,1.6084657056528244
20.4,1.643150144171839
20.44,1.6814401337811264
20.48,1.7229718686194335
20.52,1.7673809459804464
20.560000000000002,1.8143090550992962
20.599999999999998,1.8634089643129137
20.639999999999997,1.9143479846585594
20.68,1.9668101504401294
20.72,2.020497374124516
20.759999999999998,2.0751298196830703
20.8,2.130445708561304
20.84,2.1862007357775015
20.88,2.2421672366999936
20.92,2.298133211501138
20.96,2.3539012857918964
21.0,2.4092876628818543
21.04,2.4641211051398666
21.08,2.5182419683649075
21.119999999999997,2.571501303126171
21.159999999999997,2.6237600299373183
21.2,2.674888190224939
21.24,2.7247642717835974
21.279999999999998,2.7732746053384925
21.32,2.820312827621578
21.36,2.8657794057503057
21.4,2.9095812174897175
21.44,2.9516311820394363
21.48,2.991847936218311
21.52,3.0301555512510228
21.56,3.066483285744921
21.599999999999998,3.1007653708494747
21.639999999999997,3.132940823993628
21.68,3.1629532879851987
21.72,3.1907508926233143
21.759999999999998,3.216286136316245
21.8,3.23951578551134
21.84,3.2604007900316176
21.88,3.2789062126764277
21.92,3.2950011716834235
21.96,3.3086587948684834
22.0,3.3198561844617847
22.04,3.328574391844575
22.08,3.334798401564993
22.119999999999997,3.338517124175447
22.16,3.339723397590581
22.2,3.338413996816883
22.24,3.3345896520545897
22.28,3.328255075322321
22.32,3.319418995907294
22.36,3.3080942051016407
22.4,3.2942976108506365
22.44,3.278050303114507
22.48,3.2593776309344284
22.519999999999996,3.2383092923984247
22.56,3.2148794389269937
22.599999999999998,3.189126795544456
22.639999999999997,3.1610947990733482
22.68,3.130831756488311
22.72,3.09839102599554
22.759999999999998,3.063831223765558
22.8,3.0272164596415925
22.84,2.988616605571763
22.88,2.9481076009665266
22.92,2.9057717996548766
22.96,2.861698363588592
23.0,2.815983708899784
23.04,2.7687320103156545
23.08,2.7200557702212205
23.119999999999997,2.670076458755231
23.16,2.6189252311130784
23.2,2.566743727553192
23.24,2.513684960241183
23.28,2.459914288722575
23.32,2.405610482098911
23.36,2.3509668603878047
23.400000000000002,2.296192499442834
23.44,2.241513472434423
23.479999999999997,2.1871740853898816
23.519999999999996,2.1334380437795484
23.56,2.0805894608739632
23.599999999999998,2.0289335862598854
23.639999999999997,1.9787970950305904
23.68,1.930527736804288
23.72,1.8844931032457946
23.759999999999998,1.8410782407443897
23.8,1.8006818227442076
23.84,1.7637106190239125
23.88,1.7305720740497408
23.92,1.7016649483827095
23.96,1.6773681922538373
23.999999999999996,1.6580284979577762
24.04,1.643947282559815
24.08,1.6353681241785036
24.119999999999997,1.6324658378636148
24.16,1.635338361163103
24.2,1.6440023896710692
24.24,1.6583932806513682
24.28,1.6783692090276687
24.32,1.7037190322784257
24.36,1.734172914194689
24.400000000000002,1.7694145465732967
24.439999999999998,1.809093807352021
24.479999999999997,1.8528388637940956
24.52,1.9002669996365458
24.56,1.9509937419412808
24.599999999999998,2.0046401299303005
24.64,2.0608381725544827
24.68,2.1192346751772573
24.72,2.179493685575846
24.759999999999998,2.24129783026051
24.8,2.304348800221677
24.84,2.368367214869386
24.88,2.433092054792289
24.92,2.498279815071555
24.959999999999997,2.563703495282003
24.999999999999996,2.6291515118848694
25.04,2.694426593957656
25.08,2.7593447038140226
25.119999999999997,2.8237340093525427
25.16,2.8874339241228175
25.2,2.950294223315181
25.24,3.0121742384613674
25.28,3.0729421299894617
25.32,3.132474234436182
25.36,3.1906544817163356
25.4,3.2473738771054395
25.439999999999998,3.302530042299961
25.479999999999997,3.356026809929353
25.52,3.407773866096192
25.56,3.457686435838605
25.599999999999998,3.5056850067893084
25.64,3.5516950867118586
25.68,3.5956469910031954
25.72,3.6374756566470956
25.76,3.6771204794766543
25.8,3.7145251719504517
25.84,3.7496376389647703
25.880000000000003,3.782409869512681
25.919999999999998,3.812797842261292
25.959999999999997,3.8407614433524193
25.999999999999996,3.866264394941707
26.04,3.889274193178895
26.08,3.9097620544999154
26.119999999999997,3.927702869251975
26.16,3.94307516180791
26.2,3.955861056447796
26.24,3.966046248396039
26.28,3.973619979502467
26.32,3.97857501814802
26.36,3.980907643040828
26.4,3.980617630648042
26.439999999999998,3.9777082460841795
26.479999999999997,3.9721862373487613
26.52,3.9640618328761317
26.56,3.953348742429234
26.599999999999998,3.9400641614380527
26.64,3.9242287789532146
26.68,3.905866789456977
26.72,3.885005908848418
26.76,3.8616773949981917
26.8,3.8359160733515574
26.84,3.80776036814785
26.88,3.77725233992093
26.919999999999998,3.744437730049699
26.959999999999997,3.7093660132415254
27.0,3.6720904589553256
27.04,3.632668202906232
27.08,3.591160329940829
27.119999999999997,3.5476319697314525
27.16,3.5021524069100947
27.2,3.45479520744628
27.24,3.4056383632674656
27.28,3.354764457321888
27.32,3.3022608514873477
27.36,3.2482198999273844
27.4,3.1927391906768245
27.439999999999998,3.1359218183850026
27.479999999999997,3.077876691232531
27.52,3.018718875033045
27.56,2.9585699773881946
27.599999999999998,2.8975585744195795
27.64,2.835820681971258
27.68,2.773500272149956
27.72,2.7107498345031606
27.76,2.6477309788442964
27.8,2.5846150734900384
27.839999999999996,2.5215839081996574
27.88,2.4588303650760204
27.919999999999998,2.3965590727439006
27.959999999999997,2.334987008901594
28.0,2.2743440035367386
28.04,2.2148730795471625
28.08,2.156830549352478
28.12,2.1004857659766434
28.16,2.0461204064762137
28.2,1.9940271470535584
28.240000000000002,1.944507576724639
