Frequency (Hz),Amplitude
0.0,1.630485583752026
0.019867549668874173,1.6303466276454734
0.039735099337748346,1.6299301820519223
0.059602649006622516,1.6292375144734528
0.07947019867549669,1.6282707351543133
0.09933774834437085,1.6270327936760707
0.11920529801324503,1.6255274741580583
0.13907284768211922,1.6237593890312076
0.15894039735099338,1.6217339713435324
0.17880794701986755,1.619457465547377
0.1986754966887417,1.6169369167093453
0.2185430463576159,1.6141801580760324
0.23841059602649006,1.6111957969204274
0.2582781456953642,1.6079931985867282
0.27814569536423844,1.6045824686445609
0.2980132450331126,1.600974433057489
0.31788079470198677,1.5971806162659405
0.33774834437086093,1.5932132170807423
0.3576158940397351,1.5890850822808542
0.3774834437086093,1.5848096778083929
0.3973509933774834,1.5804010574543716
0.4172185430463576,1.5758738289323633
0.4370860927152318,1.5712431172421895
0.45695364238410596,1.5665245252342044
0.4768211920529801,1.56173409129585
0.49668874172185434,1.556888244096334
0.5165562913907285,1.5520037543435647
0.5364238410596026,1.54709768352872
0.5562913907284769,1.5421873296595288
0.5761589403973509,1.5372901700130561
0.5960264900662252,1.5324238009719742
0.6158940397350993,1.5276058750462027
0.6357615894039735,1.5228540352229278
0.6556291390728477,1.5181858468327563
0.6754966887417219,1.513618727167487
0.695364238410596,1.5091698731349563
0.7152317880794702,1.504856187287919
0.7350993377483444,1.5006942026160928
0.7549668874172186,1.4967000065417955
0.7748344370860927,1.4928891646094808
0.7947019867549668,1.4892766444056815
0.8145695364238411,1.4858767402879112
0.8344370860927152,1.482702999536373
0.8543046357615894,1.4797681505705782
0.8741721854304636,1.477084033891533
0.8940397350993378,1.4746615364193452
0.9139072847682119,1.4725105298926182
0.9337748344370861,1.470639813981759
0.9536423841059603,1.4690570647403585
0.9735099337748344,1.4677687889787558
0.9933774834437087,1.4667802850910214
1.0132450331125828,1.466095610802157
1.033112582781457,1.4657175582271948
1.0529801324503312,1.4656476365494078
1.0728476821192052,1.4658860625335197
1.0927152317880795,1.4664317589925535
1.1125827814569538,1.4672823612276356
1.1324503311258278,1.4684342313595393
1.1523178807947019,1.4698824803728079
1.1721854304635762,1.4716209975991887
1.1920529801324504,1.4736424872800464
1.2119205298013245,1.4759385117683441
1.2317880794701985,1.4784995408624382
1.2516556291390728,1.4813150067062608
1.271523178807947,1.4843733636457788
1.2913907284768211,1.4876621523989164
1.3112582781456954,1.4911680678768393
1.3311258278145695,1.494877029986882
1.3509933774834437,1.4987742567520703
1.370860927152318,1.502844339097323
1.390728476821192,1.5070713166770227
1.410596026490066,1.5114387541515901
1.4304635761589404,1.5159298173603701
1.4503311258278146,1.5205273488828381
1.4701986754966887,1.5252139425290245
1.4900662251655628,1.5299720163504846
1.5099337748344372,1.5347838838159429
1.5298013245033113,1.5396318228466208
1.5496688741721854,1.5444981424579427
1.5695364238410596,1.5493652468020502
1.5894039735099337,1.554215696452296
1.609271523178808,1.5590322668128225
1.6291390728476822,1.5637980035759969
1.6490066225165563,1.568496275184968
1.6688741721854303,1.573110822290212
1.6887417218543048,1.5776258042156488
1.7086092715231789,1.582025842473208
1.728476821192053,1.5862960613838817
1.7483443708609272,1.590422125879209
1.7682119205298013,1.5943902765692386
1.7880794701986755,1.5981873621725065
1.8079470198675496,1.6018008694099026
1.8278145695364238,1.6052189504683336
1.847682119205298,1.6084304481417764
1.8675496688741722,1.6114249187572347
1.8874172185430464,1.614192652990968
1.9072847682119205,1.6167246946773717
1.9271523178807946,1.6190128577080023
1.9470198675496688,1.621049741112842
1.9668874172185429,1.6228287424094041
1.9867549668874174,1.6243440692980735
2.0066225165562916,1.625590749774427
2.0264900662251657,1.6265646407211398
2.0463576158940397,1.62726243503339
2.066225165562914,1.6276816673230556
2.086092715231788,1.6278207182378306
2.1059602649006623,1.627678817422166
2.1258278145695364,1.6272560451377875
2.1456953642384105,1.6265533325518573
2.165562913907285,1.6255724606915822
2.185430463576159,1.6243160580545408
2.205298013245033,1.6227875968543368
2.2251655629139075,1.6209913878720024
2.2450331125827816,1.618932573873856
2.2649006622516556,1.6166171215475886
2.2847682119205297,1.6140518118988525
2.3046357615894038,1.6112442290421574
2.324503311258278,1.608202747311006
2.3443708609271523,1.6049365166042013
2.364238410596027,1.6014554458777273
2.384105960264901,1.5977701846844268
2.403973509933775,1.5938921026580273
2.423841059602649,1.5898332668324906
2.443708609271523,1.585606416684291
2.463576158940397,1.5812249367826487
2.4834437086092715,1.5767028269320194
2.5033112582781456,1.572054669692848
2.52317880794702,1.5672955951699468
2.543046357615894,1.5624412429643288
2.562913907284768,1.557507721193635
2.5827814569536423,1.5525115624986296
2.6026490066225163,1.5474696769694074
2.622516556291391,1.5423993019447673
2.642384105960265,1.5373179486622819
2.662251655629139,1.5322433457644604
2.6821192052980134,1.5271933796993602
2.7019867549668874,1.522186032090399
2.7218543046357615,1.517239314191557
2.741721854304636,1.5123711985890136
2.76158940397351,1.5075995483590154
2.781456953642384,1.5029420439433665
2.801324503311258,1.4984161080580187
2.821192052980132,1.494038829005357
2.8410596026490067,1.4898268828165293
2.8609271523178808,1.4857964547045215
2.8807947019867552,1.4819631603609624
2.9006622516556293,1.4783419676776113
2.9205298013245033,1.4749471195161707
2.9403973509933774,1.4717920581853545
2.9602649006622515,1.46888935231082
2.9801324503311255,1.4662506267996638
3.0,1.4638864966064153
3.0198675496688745,1.461806504999058
3.0397350993377485,1.460019067002855
3.0596026490066226,1.4585314186647025
3.0794701986754967,1.457349572732258
3.0993377483443707,1.4564782812803179
3.119205298013245,1.455921005743141
3.1390728476821192,1.4556798947268097
3.1589403973509933,1.4557557698818242
3.1788079470198674,1.4561481200159099
3.198675496688742,1.4568551035217705
3.218543046357616,1.457873559088107
3.23841059602649,1.459199024555691
3.2582781456953644,1.460825763678391
3.2781456953642385,1.462746800452035
3.2980132450331126,1.4649539605856108
3.3178807947019866,1.467437919611436
3.3377483443708607,1.4701882570639777
3.3576158940397347,1.4731935161034115
3.3774834437086096,1.476441267920107
3.3973509933774837,1.4799181802291352
3.4172185430463577,1.4836100891515605
3.437086092715232,1.487502073778834
3.456953642384106,1.4915785327286804
3.47682119205298,1.4958232620237397
3.4966887417218544,1.500219533656057
3.5165562913907285,1.5047501742406537
3.5364238410596025,1.509397643207407
3.556291390728477,1.5141441100312583
3.576158940397351,1.5189715300541935
3.596026490066225,1.5238617185082546
3.615894039735099,1.528796422403658
3.6357615894039736,1.5337573900010981
3.6556291390728477,1.538726437639872
3.6754966887417218,1.5436855137430443
3.695364238410596,1.5486167598677472
3.7152317880794703,1.5535025687109594
3.7350993377483444,1.558325639019939
3.754966887417219,1.5630690273904781
3.774834437086093,1.5677161969660585
3.794701986754967,1.5722510630766038
3.814569536423841,1.5766580358769282
3.834437086092715,1.5809220600624954
3.854304635761589,1.5850286517541412
3.8741721854304636,1.5889639326536835
3.8940397350993377,1.5927146615799292
3.9139072847682117,1.5962682634994891
3.9337748344370858,1.5996128561686216
3.9536423841059607,1.6027372745031263
3.9735099337748347,1.6056310927909982
3.993377483443709,1.6082846448598282
4.013245033112583,1.6106890423059852
4.033112582781457,1.6128361908871354
4.052980132450331,1.6147188051728438
4.072847682119205,1.6163304215408105
4.0927152317880795,1.617665409598015
4.112582781456953,1.6187189820978996
4.132450331125828,1.61948720341543
4.152317880794702,1.6199669966328931
4.172185430463576,1.620156149279806
4.19205298013245,1.6200533177605538
4.211920529801325,1.6196580304935282
4.231788079470199,1.6189706897757483
4.251655629139073,1.6179925723765514
4.271523178807947,1.6167258288542647
4.291390728476821,1.615173481578829
4.311258278145695,1.6133394214338372
4.33112582781457,1.611228403160536
4.3509933774834435,1.608846039296206
4.370860927152318,1.6061987926492636
4.390728476821192,1.6032939672426954
4.410596026490066,1.600139697648005
4.43046357615894,1.596744936621502
4.450331125827815,1.5931194409455687
4.470198675496689,1.5892737553684344
4.490066225165563,1.5852191945275083
4.509933774834438,1.5809678227338293
4.529801324503311,1.5765324314884286
4.549668874172186,1.5719265145961552
4.569536423841059,1.5671642407386293
4.589403973509934,1.562260423366056
4.6092715231788075,1.5572304877675507
4.629139072847682,1.5520904351827292
4.649006622516556,1.5468568038224944
4.66887417218543,1.5415466266761877
4.688741721854305,1.5361773859947245
4.708609271523179,1.530766964356211
4.728476821192054,1.5253335922415745
4.748344370860927,1.5198957920739928
4.768211920529802,1.5144723187067781
4.788079470198675,1.5090820963808325
4.80794701986755,1.5037441522144246
4.827814569536423,1.4984775463348554
4.847682119205298,1.4933012988135321
4.867549668874172,1.4882343136223553
4.887417218543046,1.483295299890005
4.9072847682119205,1.4785026907997985
4.927152317880794,1.473874560536854
4.947019867549669,1.4694285397581424
4.966887417218543,1.465181730124708
4.986754966887418,1.4611506184979517
5.006622516556291,1.4573509914604663
5.026490066225166,1.453797850873714
5.04635761589404,1.450505331228224
5.066225165562914,1.447486619575241
5.086092715231788,1.4447538788489327
5.105960264900662,1.4423181753952818
5.125827814569536,1.4401894115150016
5.14569536423841,1.4383762638028081
5.1655629139072845,1.4368861280239218
5.185430463576159,1.4357250712103755
5.205298013245033,1.4348977915857097
5.225165562913908,1.4344075868376485
5.245033112582782,1.434256331156828
5.264900662251656,1.4344444613470415
5.28476821192053,1.434970972192811
5.304635761589404,1.4358334211445525
5.324503311258278,1.4370279422557426
5.344370860927152,1.438549269181432
5.364238410596027,1.4403907669281137
5.3841059602649,1.4425444719333629
5.403973509933775,1.4450011399530591
5.4238410596026485,1.4477503011462498
5.443708609271523,1.4507803216750594
5.463576158940397,1.4540784710800514
5.483443708609272,1.4576309946512844
5.503311258278146,1.4614231899918229
5.52317880794702,1.4654394869625762
5.543046357615895,1.4696635302057084
5.562913907284768,1.4740782634645815
5.582781456953643,1.478666014952511
5.602649006622516,1.4834085830661927
5.622516556291391,1.4882873217918935
5.642384105960264,1.4932832252111619
5.662251655629139,1.4983770105753986
5.682119205298013,1.5035491994837502
5.701986754966887,1.5087801967650936
5.7218543046357615,1.5140503667292429
5.741721854304636,1.5193401065160999
5.7615894039735105,1.524629916331063
5.781456953642384,1.5299004664107478
5.801324503311259,1.5351326606142561
5.821192052980132,1.5403076965820002
5.841059602649007,1.5454071224442063
5.860927152317881,1.5504128900979275
5.880794701986755,1.5553074051012328
5.900662251655629,1.5600735732593114
5.920529801324503,1.56469484399767
5.940397350993377,1.5691552506343602
5.960264900662251,1.573439447675226
5.980132450331126,1.5775327452650658
6.0,1.5814211409329697
6.0198675496688745,1.5850913487727765
6.039735099337749,1.588530826199473
6.059602649006623,1.5917277984205807
6.079470198675497,1.5946712807574133
6.099337748344371,1.597351098946065
6.119205298013245,1.5997579075410397
6.139072847682119,1.6018832065368145
6.158940397350993,1.603719356314507
6.178807947019867,1.6052595910111425
6.198675496688741,1.6064980303998209
6.218543046357616,1.6074296903587193
6.23841059602649,1.608050491996739
6.258278145695365,1.608357269492713
6.2781456953642385,1.6083477766944585
6.298013245033113,1.6080206925127716
6.317880794701987,1.6073756251344213
6.337748344370861,1.6064131150666614
6.357615894039735,1.605134637014351
6.377483443708609,1.603542600579228
6.397350993377484,1.6016403497586365
6.417218543046357,1.5994321612093931
6.437086092715232,1.596923241229802
6.456953642384105,1.5941197214008327
6.47682119205298,1.5910286528143402
6.496688741721854,1.5876579988039619
6.516556291390729,1.5840166260811692
6.5364238410596025,1.580114294166026
6.556291390728477,1.575961642989639
6.5761589403973515,1.57157017853256
6.596026490066225,1.5669522563508584
6.6158940397351,1.5621210628306077
6.635761589403973,1.557090593999661
6.655629139072848,1.5518756317169733
6.675496688741721,1.546491717050279
6.695364238410596,1.5409551206474548
6.715231788079469,1.5352828099020879
6.735099337748344,1.5294924127128195
6.754966887417219,1.5236021776379043
6.774834437086093,1.5176309302524564
6.794701986754967,1.511598025526486
6.814569536423841,1.505523296057438
6.8344370860927155,1.4994269960126858
6.854304635761589,1.493329740665583
6.874172185430464,1.4872524414433919
6.894039735099337,1.4812162364481907
6.913907284768212,1.4752424164617854
6.933774834437086,1.4693523465040863
6.95364238410596,1.4635673830796327
6.973509933774834,1.4579087873210517
6.993377483443709,1.452397634317723
7.013245033112583,1.4470547190040355
7.033112582781457,1.4419004590719338
7.052980132450331,1.4369547954655684
7.072847682119205,1.4322370911091176
7.0927152317880795,1.4277660286109792
7.112582781456954,1.423559507773848
7.132450331125828,1.419634543820295
7.152317880794702,1.416007167310834
7.172185430463576,1.4126923267870028
7.19205298013245,1.4097037952084
7.211920529801324,1.4070540812711765
7.231788079470198,1.4047543466905348
7.251655629139073,1.4028143305025913
7.271523178807947,1.4012422813877106
7.291390728476822,1.4000448989414251
7.311258278145695,1.3992272847171643
7.33112582781457,1.3987929037433737
7.3509933774834435,1.3987435570749631
7.370860927152318,1.3990793657820062
7.390728476821192,1.3997987666094958
7.410596026490066,1.4008985193667087
7.430463576158941,1.4023737259277
7.450331125827814,1.4042178605511062
7.470198675496689,1.4064228110630723
7.490066225165562,1.4089789302952023
7.509933774834438,1.411875097035658
7.52980132450331,1.4150987856371975
7.549668874172186,1.4186361433350119
7.569536423841059,1.4224720742601988
7.589403973509934,1.426590329091984
7.6092715231788075,1.4309735992735482
7.629139072847682,1.4356036147211662
7.649006622516557,1.4404612439813151
7.66887417218543,1.445526595834894
7.6887417218543055,1.4507791214070849
7.708609271523178,1.4561977159140163
7.728476821192054,1.4617608192585914
7.748344370860927,1.4674465147765319
7.768211920529802,1.4732326255249477
7.788079470198675,1.4790968075984856
7.80794701986755,1.4850166400488523
7.827814569536423,1.4909697110715996
7.847682119205298,1.4969337002062657
7.8675496688741715,1.5028864563729063
7.887417218543046,1.5088060716374305
7.907284768211921,1.514670950660209
7.927152317880795,1.5204598758366916
7.9470198675496695,1.5261520681856624
7.966887417218543,1.531727244079345
7.986754966887418,1.537165667942103
8.006622516556291,1.5424482010693066
8.026490066225167,1.5475563467374907
8.046357615894038,1.5524722917904457
8.066225165562914,1.5571789448948543
8.086092715231787,1.5616599716635793
8.105960264900663,1.56589982684579
8.125827814569536,1.569883783780946
8.14569536423841,1.5735979613087212
8.165562913907285,1.577029348320577
8.185430463576159,1.580165826129742
8.205298013245034,1.5829961888266728
8.225165562913906,1.5855101617764615
8.245033112582782,1.5876984184025353
8.264900662251655,1.5895525953892584
8.28476821192053,1.5910653064232598
8.304635761589404,1.5922301545805586
8.324503311258278,1.5930417434535333
8.344370860927151,1.5934956870987067
8.364238410596027,1.5935886188729635
8.3841059602649,1.5933181992128693
8.403973509933774,1.5926831223978353
8.42384105960265,1.5916831223249268
8.443708609271523,1.5903189773088977
8.463576158940398,1.5885925139073502
8.483443708609272,1.586506609756538
8.503311258278146,1.5840651953886884
8.52317880794702,1.5812732549866142
8.543046357615895,1.578136826015611
8.562913907284768,1.5746629976567035
8.582781456953642,1.570859907948099
8.602649006622515,1.5667367395244738
8.62251655629139,1.5623037138253504
8.642384105960264,1.557572083625151
8.66225165562914,1.5525541237179485
8.682119205298013,1.5472631195700612
8.701986754966887,1.5417133537335708
8.721854304635762,1.5359200897931764
8.741721854304636,1.5298995535989508
8.76158940397351,1.523668911517688
8.781456953642383,1.5172462454170592
8.801324503311259,1.5106505240797827
8.821192052980132,1.503901570730098
8.841059602649008,1.4970200263433695
8.86092715231788,1.4900273084016233
8.880794701986755,1.4829455647552472
8.90066225165563,1.4757976222544729
8.920529801324504,1.4686069298246676
8.940397350993377,1.4613974956791427
8.960264900662251,1.4541938183921483
8.980132450331126,1.4470208115953158
9.0,1.439903722113702
9.019867549668875,1.4328680414237809
9.039735099337747,1.4259394103968348
9.059602649006623,1.4191435173860583
9.079470198675496,1.4125059898263903
9.099337748344372,1.4060522796403938
9.119205298013245,1.3998075428809316
9.139072847682119,1.3937965141905062
9.158940397350994,1.3880433768138374
9.178807947019868,1.3825716290627017
9.198675496688743,1.3774039482941942
9.218543046357615,1.3725620536216763
9.23841059602649,1.3680665687247815
9.258278145695364,1.363936886255536
9.27814569536424,1.360191035445164
9.298013245033111,1.356845554594219
9.317880794701987,1.353915370171595
9.33774834437086,1.3514136842508997
9.357615894039736,1.3493518719716877
9.37748344370861,1.347739390626398
9.397350993377483,1.346583701841116
9.417218543046358,1.3458902081410271
9.437086092715232,1.34566220497428
9.456953642384107,1.3459008490156403
9.47682119205298,1.3466051432926232
9.496688741721854,1.3477719393796928
9.516556291390728,1.3493959566016245
9.536423841059603,1.3514698178844897
9.556291390728477,1.3539841016036245
9.57615894039735,1.3569274085101912
9.596026490066224,1.3602864425820715
9.6158940397351,1.3640461044451369
9.635761589403973,1.3681895958546915
9.655629139072847,1.3726985336148616
9.675496688741722,1.377553071248406
9.695364238410596,1.3827320267081094
9.715231788079471,1.3882130144421174
9.735099337748345,1.39397258018383
9.754966887417218,1.399986336927888
9.774834437086092,1.406229100670555
9.794701986754967,1.4126750246296889
9.814569536423841,1.419297730809941
9.834437086092716,1.4260704379369389
9.854304635761588,1.4329660849442574
9.874172185430464,1.4399574493550304
9.894039735099337,1.4470172600509887
9.913907284768213,1.4541183040634529
9.933774834437086,1.4612335271505346
9.95364238410596,1.4683361280408629
9.973509933774835,1.4753996463264565
9.993377483443709,1.4823980440743438
10.013245033112582,1.4893057813001087
10.033112582781456,1.4960978855057485
10.052980132450331,1.5027500155310962
10.072847682119205,1.5092385200032068
10.09271523178808,1.515540490692847
10.112582781456952,1.5216338111029355
10.132450331125828,1.527497200621526
10.152317880794701,1.5331102545732982
10.172185430463577,1.5384534804992531
10.192052980132452,1.5435083309856974
10.211920529801324,1.5482572333517244
10.2317880794702,1.5526836164896753
10.251655629139073,1.5567719351366058
10.271523178807948,1.5605076918369942
10.29139072847682,1.5638774568384517
10.311258278145695,1.5668688861430613
10.331125827814569,1.5694707379181765
10.350993377483444,1.5716728874514048
10.370860927152318,1.5734663408162781
10.390728476821192,1.5748432473965388
10.410596026490065,1.5757969113997825
10.43046357615894,1.5763218024735253
10.450331125827816,1.576413565520398
10.470198675496688,1.5760690297923465
10.490066225165563,1.5752862173276987
10.509933774834437,1.5740643507789223
10.529801324503312,1.5724038606624147
10.549668874172186,1.570306392045718
10.56953642384106,1.5677748106705605
10.589403973509933,1.5648132084927227
10.609271523178808,1.5614269086018373
10.629139072847682,1.5576224694648277
10.649006622516556,1.5534076884165053
10.66887417218543,1.5487916042989116
10.688741721854305,1.5437844991277523
10.70860927152318,1.5383978986387736
