Frequency (Hz),Amplitude
0.0,0.73821434581046
0.019823788546255508,0.7566666215537052
0.039647577092511016,0.8094361385276327
0.059471365638766524,0.8902584840995178
0.07929515418502203,0.9920280003864635
0.09911894273127755,1.108650262267152
0.11894273127753305,1.235534800741687
0.13876651982378857,1.3694022723236525
0.15859030837004406,1.5079362032881964
0.17841409691629956,1.6494825195994023
0.1982378854625551,1.7928338637082806
0.2180616740088106,1.937084605934175
0.2378854625550661,2.0815353516446855
0.25770925110132165,2.2256300589572735
0.27753303964757714,2.3689142430140198
0.29735682819383263,2.511006815028286
0.31718061674008813,2.6515808165849872
0.3370044052863437,2.7903500338762974
0.3568281938325991,2.9270595572174494
0.37665198237885467,3.061479029010763
0.3964757709251102,3.1933977519441537
0.41629955947136565,3.3226211034644293
0.4361233480176212,3.448967880444699
0.4559471365638767,3.572268314990054
0.4757709251101322,3.692362580424069
0.49559471365638774,3.8090996593561215
0.5154185022026433,3.9223364819914477
0.5352422907488987,4.031937268049569
0.5550660792951543,4.137773023392573
0.5748898678414097,4.239721155093369
0.5947136563876653,4.33766517776872
0.6145374449339208,4.431494490619028
0.6343612334801763,4.521104209483545
0.6541850220264318,4.6063950418299076
0.6740088105726874,4.687273195302621
0.6938325991189428,4.763650312498543
0.7136563876651982,4.835443426194962
0.7334801762114539,4.90257493045193
0.7533039647577093,4.964972563936219
0.7731277533039648,5.022569402536869
0.7929515418502204,5.075303858909591
0.8127753303964759,5.123119687036991
0.8325991189427313,5.165965990250265
0.8524229074889869,5.203797231446741
0.8722466960352424,5.236573244471826
0.8920704845814978,5.26425924582591
0.9118942731277534,5.286825846015769
0.931718061674009,5.304249060003404
0.9515418502202644,5.316510316318549
0.9713656387665199,5.323596464499406
0.9911894273127755,5.325499780612894
1.0110132158590308,5.322217970683991
1.0308370044052866,5.313754171936985
1.0506607929515421,5.300116951820641
1.0704845814977975,5.281320304858924
1.090308370044053,5.257383647438427
1.1101321585903086,5.228331810718365
1.1299559471365639,5.194195031928606
1.1497797356828194,5.155008944410858
1.1696035242290752,5.110814566859259
1.1894273127753305,5.06165829233482
1.209251101321586,5.007591877766966
1.2290748898678416,4.948672434821916
1.248898678414097,4.884962423219205
1.2687224669603525,4.816529647824153
1.288546255506608,4.7434472611490595
1.3083700440528636,4.665793773275282
1.3281938325991192,4.583653071685476
1.3480176211453747,4.4971144540988925
1.36784140969163,4.406272678172574
1.3876651982378856,4.311228032921097
1.4074889867841411,4.212086437989164
1.4273127753303965,4.108959578584814
1.4471365638766522,4.001965086083475
1.4669603524229078,3.8912267772366413
1.4867841409691631,3.7768749688346075
1.5066079295154187,3.6590468899651167
1.5264317180616742,3.5378872212354184
1.5462555066079295,3.4135488002897016
1.5660792951541853,3.2861935468484393
1.5859030837004409,3.1559936800916755
1.6057268722466962,3.0231333291816003
1.6255506607929517,2.8878106781627726
1.6453744493392073,2.750240845733396
1.6651982378854626,2.6106597884157767
1.6850220264317182,2.469329648334232
1.7048458149779737,2.3265461697183256
1.7246696035242293,2.182649123077933
1.7444933920704848,2.03803717117654
1.7643171806167404,1.8931893988385542
1.7841409691629957,1.748696991457137
1.8039647577092512,1.6053105683168356
1.8237885462555068,1.4640118507284057
1.8436123348017623,1.3261230427677944
1.863436123348018,1.193473160417669
1.8832599118942732,1.068643805994181
1.9030837004405288,0.9553023018243759
1.9229074889867843,0.8585528385156199
1.9427312775330399,0.7850118039605668
1.9625550660792954,0.7419502485154473
1.982378854625551,0.7349356650364428
2.002202643171806,0.7649981889653038
2.0220264317180616,0.8280118235631847
2.041850220264317,0.9170022887934932
2.061674008810573,1.0249350990075323
2.0814977973568287,1.1461174561886025
2.1013215859030843,1.2763800506584009
2.1211453744493394,1.4127770960332033
2.140969162995595,1.5532307539050956
2.1607929515418505,1.6962515967512477
2.180616740088106,1.840745060465992
2.2004405286343616,1.9858832955626067
2.220264317180617,2.131021238675008
2.2400881057268722,2.2756413932887263
2.2599118942731278,2.4193170700329536
2.2797356828193833,2.561687550195564
2.299559471365639,2.7024410381239683
2.319383259911895,2.841302775546763
2.3392070484581504,2.9780266306004424
2.3590308370044055,3.1123890629714195
2.378854625550661,3.2441847390704868
2.3986784140969166,3.3732233099859474
2.418502202643172,3.499327020281147
2.4383259911894277,3.6223289181971503
2.4581497797356833,3.7420715064434655
2.4779735682819384,3.858405719355525
2.497797356828194,3.971190144268119
2.5176211453744495,4.080290427315015
2.537444933920705,4.185578819649259
2.5572687224669606,4.286933831351551
2.577092511013216,4.384239968434734
2.5969162995594717,4.477387534293203
2.6167400881057272,4.566272481324974
2.6365638766519828,4.6507963017129015
2.6563876651982383,4.730865948797587
2.676211453744494,4.8063937823281675
2.6960352422907494,4.877297532291714
2.715859030837005,4.943500277111427
2.73568281938326,5.00493043284887
2.7555066079295156,5.0615217507060395
2.775330396475771,5.113213320643051
2.7951541850220267,5.15994957934054
2.8149779735682823,5.201680321065681
2.834801762114538,5.238360710267447
2.854625550660793,5.269951294943211
2.874449339207049,5.296418019996905
2.8942731277533045,5.317732239956901
2.91409691629956,5.333870730546351
2.9339207048458156,5.344815698704967
2.953744493392071,5.350554790753868
2.9735682819383262,5.351081098477155
2.993392070484582,5.346393162968922
3.0132158590308373,5.336494976164027
3.033039647577093,5.321395980038722
3.0528634361233484,5.3011110635342655
3.072687224669604,5.275660557325587
3.092511013215859,5.245070226630501
3.1123348017621146,5.20937126233452
3.1321585903083706,5.168600270795799
3.151982378854626,5.12279926279688
3.1718061674008817,5.072015642229006
3.1916299559471373,5.016302195235968
3.2114537444933924,4.95571708071378
3.231277533039648,4.890323823268431
3.2511013215859035,4.820191309986665
3.270925110132159,4.745393792687719
3.2907488986784146,4.666010897715266
3.31057268722467,4.58212764582125
3.3303964757709252,4.493834485318878
3.350220264317181,4.40122734248171
3.3700440528634363,4.304407694197294
3.389867841409692,4.20348266922315
3.4096916299559474,4.098565186147845
3.4295154185022034,3.9897741384773
3.4493392070484585,3.8772346403542763
3.469162995594714,3.7610783505701684
3.4889867841409696,3.641443898164032
3.508810572687225,3.518477440631146
3.5286343612334807,3.39233339647336
3.5484581497797363,3.263175408835261
3.5682819383259914,3.131177618261596
3.588105726872247,2.99652635319445
3.6079295154185025,2.8594223913407477
3.627753303964758,2.7200840107378577
3.6475770925110136,2.578751147732614
3.667400881057269,2.4356911286788296
3.6872246696035247,2.2912066731368026
3.7070484581497802,2.145647228539107
3.726872246696036,1.9994252725669497
3.7466960352422913,1.8530401480459273
3.7665198237885464,1.7071135036876093
3.7863436123348024,1.5624428626353841
3.8061674008810575,1.4200837375232556
3.8259911894273135,1.2814765305470677
3.8458149779735686,1.1486416348063628
3.8656387665198246,1.0244692194787033
3.8854625550660797,0.913106861981229
3.905286343612335,0.8203339632091993
3.925110132158591,0.7534984511540538
3.9449339207048464,0.7201748567208166
3.964757709251102,0.7251569946808978
3.9845814977973575,0.7677032853817847
4.004405286343612,0.8420103081457109
4.024229074889869,0.940346575748278
4.044052863436123,1.0557074905262147
4.06387665198238,1.1827517972211687
4.083700440528634,1.317690316731073
4.103524229074891,1.4578857856474845
4.123348017621146,1.6014869616758267
4.143171806167401,1.7471650315536045
4.162995594713657,1.8939383960925604
4.182819383259912,2.0410590546528957
4.2026431718061685,2.1879389936929123
4.222466960352423,2.3341020108335733
4.242290748898679,2.479151713203026
4.262114537444934,2.622749903711372
4.28193832599119,2.764601736124288
4.301762114537445,2.9044453531689287
4.321585903083701,3.042044543924728
4.3414096916299565,3.177183468415765
4.361233480176212,3.3096628200560327
4.381057268722468,3.4392970032227206
4.400881057268723,3.565912037578141
4.420704845814979,3.6893439894654674
4.440528634361234,3.809437790158125
4.46035242290749,3.9260463411705704
4.4801762114537445,4.039029834709332
4.500000000000001,4.148255236811423
4.5198237885462555,4.253595894483799
4.539647577092512,4.35493123800916
4.559471365638767,4.452146556710189
4.579295154185023,4.545132831675813
4.599118942731278,4.633786612801262
4.618942731277533,4.718009930362317
4.63876651982379,4.797710233502548
4.658590308370044,4.872800349649255
4.678414096916301,4.943198460126776
4.6982378854625555,5.008828088201379
4.718061674008811,5.069618096542885
4.737885462555067,5.1255026916758215
4.757709251101322,5.17642143345687
4.777533039647578,5.222319247984075
4.797356828193833,5.263146442638897
4.817180616740089,5.298858722201454
4.837004405286344,5.329417205173461
4.856828193832599,5.354788439604869
4.876651982378855,5.374944417853214
4.896475770925111,5.3898625898183266
4.9162995594713665,5.399525874291627
4.936123348017622,5.4039226681442605
4.955947136563877,5.403046853153927
4.975770925110133,5.396897800339766
4.995594713656388,5.385480371739675
5.015418502202644,5.368804919628242
5.035242290748899,5.346887283236926
5.055066079295155,5.319748783103966
5.07488986784141,5.287416213251943
5.094713656387666,5.2499218314678835
5.114537444933921,5.207303348047753
5.134361233480177,5.159603913466874
5.154185022026432,5.106872105554456
5.174008810572688,5.049161916889577
5.193832599118943,4.986532743302856
5.213656387665199,4.919049374572223
5.2334801762114544,4.84678198865197
5.25330396475771,4.7698061510862315
5.2731277533039655,4.6882028216488
5.292951541850221,4.60205837074468
5.312775330396477,4.511464608737623
5.332599118942731,4.416518832174299
5.352422907488988,4.31732389191919
5.372246696035242,4.213988289574863
5.392070484581499,4.106626310350925
5.4118942731277535,3.995358202917332
5.43171806167401,3.8803104199520315
5.451541850220265,3.7616159373819142
5.47136563876652,3.6394146761669637
5.491189427312777,3.513854058546345
5.511013215859031,3.38508974191486
5.530837004405288,3.253286589370036
5.550660792951542,3.1186199586451657
5.570484581497798,2.981277423969681
5.5903083700440535,2.8414610935940363
5.610132158590309,2.699390757537004
5.6299559471365646,2.555308208829369
5.64977973568282,2.4094832488117075
5.669603524229076,2.2622221488417287
5.689427312775331,2.1138797575642676
5.709251101321586,1.9648771176551552
5.729074889867842,1.8157275649545692
5.748898678414098,1.6670761262305958
5.768722466960353,1.5197601045842255
5.788546255506609,1.3749037871193648
5.808370044052864,1.2340680351007267
5.82819383259912,1.0994856599445082
5.848017621145375,0.9744185419010177
5.867841409691631,0.8636393020131015
5.887665198237886,0.7738687628291858
5.907488986784142,0.7135317801288821
5.927312775330397,0.6906854587478425
5.9471365638766525,0.7090910589682736
5.966960352422908,0.7657481981181684
5.986784140969164,0.8529062935314793
6.00660792951542,0.9620501743775137
6.026431718061675,1.0862374863128146
6.04625550660793,1.2204945031479115
6.066079295154186,1.3614143368460037
6.085903083700441,1.5066673170739988
6.105726872246697,1.6546289347140735
6.125550660792952,1.8041325924767284
6.145374449339208,1.9543121196150577
6.1651982378854635,2.104502101656231
6.185022026431718,2.2541742162520046
6.204845814977975,2.4028959154836333
6.224669603524229,2.550303113533897
6.244493392070486,2.696081790642999
6.264317180616741,2.8399553765774583
6.284140969162996,2.9816759505595103
6.303964757709252,3.121018007713694
6.323788546255507,3.2577739818007596
6.3436123348017635,3.39175098968077
6.363436123348018,3.522768438760377
6.3832599118942746,3.6506562527258124
6.403083700440529,3.7752535460693237
6.422907488986785,3.8964076282975246
6.44273127753304,4.013973252968648
6.462555066079296,4.127812050333593
6.482378854625551,4.237792098869662
6.502202643171807,4.3437876026858815
6.5220264317180625,4.445678650150754
6.541850220264318,4.543351035158011
6.561674008810574,4.636696126885367
6.581497797356829,4.725610777183359
6.601321585903085,4.80999725718222
6.62114537444934,4.889763216549463
6.640969162995596,4.964821660233589
6.6607929515418505,5.035090938603287
6.680616740088107,5.100494747720968
6.700440528634362,5.160962137135192
6.720264317180618,5.2164275230828645
6.740088105726873,5.266830705392241
6.759911894273129,5.312116886696861
6.779735682819384,5.352236692826054
6.799559471365639,5.387146193445825
6.819383259911895,5.416806922192539
6.83920704845815,5.441185895682966
6.859030837004407,5.460255630900465
6.8788546255506615,5.473994160557305
6.898678414096917,5.482385046117813
6.918502202643173,5.4854173882431185
6.938325991189428,5.4830858344851645
6.958149779735684,5.475390584120108
6.977973568281939,5.4623373900705925
6.997797356828195,5.443937557923454
7.01762114537445,5.420207942108214
7.037444933920705,5.391170939362458
7.0572687224669615,5.3568544796748725
7.077092511013216,5.317292014969281
7.096916299559473,5.272522505873832
7.116740088105728,5.222590407013463
7.136563876651983,5.167545651374063
7.156387665198239,5.107443634417963
7.176211453744494,5.042345198789506
7.19603524229075,4.972316620643466
7.215859030837005,4.897429598868992
7.235682819383261,4.817761248780328
7.255506607929516,4.733394102221698
7.275330396475772,4.644416116508964
7.295154185022027,4.550920695239607
7.314977973568283,4.453006724785355
7.334801762114538,4.3507786312992
7.354625550660794,4.2443464643997535
7.374449339207049,4.133826015455047
7.394273127753305,4.019338980730505
7.4140969162995605,3.901013182818507
7.433920704845816,3.778982868048089
7.453744493392072,3.653389103451302
7.473568281938327,3.5243803050203377
7.493392070484583,3.3921129404467685
7.513215859030838,3.2567524658249263
7.533039647577093,3.1184745792810764
7.552863436123348,2.9774669088068215
7.572687224669605,2.8339313025048964
7.59251101321586,2.688086966263829
7.612334801762115,2.5401748117238654
7.6321585903083715,2.3904635615196153
7.651982378854627,2.239258452003109
7.671806167400882,2.0869138499364244
7.691629955947137,1.9338518888982497
7.711453744493394,1.7805905644122182
7.731277533039649,1.6277870166280721
7.751101321585904,1.4763057017284233
7.7709251101321595,1.3273280113208032
7.790748898678416,1.1825312747431684
7.81057268722467,1.044381496219447
7.830396475770926,0.9165967774585927
7.850220264317182,0.8047970459809516
7.870044052863436,0.7170886574330727
7.889867841409693,0.6635567294852562
7.909691629955948,0.6529478856992201
7.929515418502204,0.687348064389959
7.9493392070484585,0.7606047413520053
7.969162995594715,0.8626774341131119
7.9889867841409705,0.9843493560382677
8.008810572687224,1.1188818886362486
8.02863436123348,1.2617539149803532
8.048458149779737,1.40998092209617
8.068281938325994,1.5615592635437572
8.088105726872246,1.7151006036658238
8.107929515418503,1.8696062847966104
8.12775330396476,2.0243295737142843
8.147577092511014,2.178690689383311
8.167400881057269,2.332223391458577
8.187224669603525,2.484540669616521
8.207048458149782,2.63531221305764
8.226872246696036,2.784249301627507
8.246696035242293,2.9310944748763
8.266519823788547,3.0756143422827984
8.286343612334802,3.217594499974154
8.306167400881058,3.356835886505143
8.325991189427315,3.4931521387504425
8.345814977973568,3.6263676539213923
8.365638766519824,3.7563161574084734
8.38546255506608,3.8828396377836576
8.405286343612337,4.005787551519701
8.42511013215859,4.125016227988624
8.444933920704846,4.240388424608767
8.464757709251103,4.35177299550269
8.484581497797357,4.459044646581332
8.504405286343614,4.562083756814888
8.524229074889869,4.660776250411929
8.544052863436125,4.7550135082624285
8.56387665198238,4.844692309690069
8.583700440528636,4.929714797568118
8.60352422907489,5.009988461368558
8.623348017621145,5.085426133865915
8.643171806167402,5.155945998101643
8.662995594713658,5.221471601897552
8.682819383259913,5.281931877739916
8.702643171806168,5.337261166273702
8.722466960352424,5.387399241978047
8.74229074889868,5.432291339857854
8.762114537444935,5.471888182199602
8.78193832599119,5.506146004611603
8.801762114537446,5.535026580710901
8.821585903083701,5.558497244936179
8.841409691629957,5.576530913064428
8.861233480176212,5.589106100093055
8.881057268722468,5.596206935221492
8.900881057268723,5.597823173730731
8.92070484581498,5.593950205616551
8.940528634361234,5.584589060886326
8.960352422907489,5.569746411480253
8.980176211453745,5.5494345698281435
9.000000000000002,5.523671484104093
9.019823788546258,5.492480730294831
9.039647577092511,5.455891501255324
9.059471365638768,5.413938592988912
9.079295154185024,5.366662388462135
9.099118942731279,5.314108839347818
9.118942731277533,5.256329446189102
9.13876651982379,5.193381237595389
9.158590308370046,5.125326749224065
9.1784140969163,5.052234003477598
9.198237885462555,4.97417649106286
9.218061674008812,4.891233155831091
9.237885462555067,4.803488384659306
9.257709251101323,4.711032004569345
9.27753303964758,4.61395928983923
9.297356828193834,4.512370982583079
9.317180616740089,4.406373331217242
9.337004405286345,4.296078152468217
9.356828193832602,4.181602924220788
9.376651982378855,4.063070918705767
9.396475770925111,3.940611388504286
9.416299559471367,3.814359821916283
9.436123348017622,3.6844582898668583
9.455947136563877,3.5510559143927916
9.475770925110133,3.4143094998934678
9.49559471365639,3.2743843843208755
9.515418502202644,3.131455590762319
9.5352422907489,2.985709394283518
9.555066079295155,2.837345470621817
9.57488986784141,2.686579872446414
9.594713656387666,2.5336492022860284
9.614537444933923,2.378816547601887
9.634361233480178,2.222380062963442
9.654185022026432,2.0646856162836804
9.674008810572689,1.9061458238449918
9.693832599118945,1.7472693869056986
9.713656387665198,1.5887074885743133
9.733480176211454,1.4313292148559655
9.75330396475771,1.276347583995325
9.773127753303967,1.1255352868015849
9.792951541850222,0.9815985657912736
9.812775330396477,0.8488121141463645
9.832599118942733,0.7339833318859943
9.852422907488988,0.647383439331092
9.872246696035244,0.6018128948302638
9.892070484581499,0.6068600386443914
9.911894273127754,0.661425641077837
9.93171806167401,0.7547319334934663
9.951541850220266,0.8742228881123966
9.971365638766521,1.0103211316104785
9.991189427312776,1.1567853631143803
10.011013215859032,1.3097008657016762
10.030837004405289,1.466575004954087
10.050660792951543,1.6257608697248873
10.070484581497798,1.7861204521271825
10.090308370044054,1.9468301026399322
10.11013215859031,2.10726641192358
10.129955947136565,2.2669375655537225
10.14977973568282,2.425440893005774
10.169603524229077,2.5824358923677155
10.189427312775331,2.7376266483827627
10.209251101321588,2.8907501051108215
10.229074889867842,3.0415680803101965
10.248898678414099,3.1898617275678753
10.268722466960353,3.3354276344100118
10.28854625550661,3.478075035515284
10.308370044052865,3.617623799724004
10.32819383259912,3.7539029628117477
10.348017621145376,3.8867496509119728
10.367841409691632,4.016008287298983
10.387665198237887,4.141530007167618
10.407488986784141,4.263172226705341
10.427312775330398,4.380798327671969
10.447136563876654,4.494277429124772
10.466960352422909,4.603484225304514
10.486784140969164,4.708298873985687
10.50660792951542,4.808606923426976
10.526431718061675,4.9042992688681935
10.546255506607931,4.995272131599434
10.566079295154186,5.081427055184529
10.585903083700442,5.162670914593984
10.605726872246697,5.238915934896945
10.625550660792953,5.310079716847273
10.645374449339208,5.376085267230664
10.665198237885463,5.436861032253957
10.685022026431719,5.492340932584272
10.704845814977975,5.542464398904109
10.724669603524232,5.5871764070557335
10.744493392070485,5.626427512014682
10.764317180616741,5.660173880068587
