Time (s),Filtered Signal
0.0,0.017011817928458545
0.033370165745856356,-0.17642650206270563
0.06674033149171271,-0.35290084336149136
0.10011049723756907,-0.4969792897147377
0.13348066298342542,-0.5963730775881152
0.16685082872928178,-0.6445275449398102
0.20022099447513814,-0.6424093492043992
0.2335911602209945,-0.598125301888108
0.26696132596685085,-0.5243393379493055
0.30033149171270723,-0.43492707310873163
0.33370165745856356,-0.34260694716403617
0.3670718232044199,-0.25815037078154573
0.4004419889502763,-0.19023968764912083
0.43381215469613266,-0.14451823187679685
0.467182320441989,-0.12139207528267232
0.5005524861878453,-0.11388836241059126
0.5339226519337017,-0.10784968567385028
0.5672928176795581,-0.08593946339687465
0.6006629834254145,-0.034633751338037304
0.6340331491712707,0.048972964897907256
0.6674033149171271,0.15444060163586398
0.7007734806629835,0.26153494483381967
0.7341436464088398,0.34887313611359233
0.7675138121546962,0.40333657333496253
0.8008839779005525,0.4250657392454239
0.8342541436464089,0.42508932689873125
0.8676243093922653,0.4168625873257242
0.9009944751381216,0.40669179603153577
0.934364640883978,0.38885866093448396
0.9677348066298344,0.3485999891897143
1.0011049723756906,0.2714798985694645
1.0344751381215471,0.15385857808455447
1.0678453038674034,0.008372342960306728
1.1012154696132597,-0.13896721283008595
1.1345856353591162,-0.25885534704989577
1.1679558011049724,-0.3308836931126923
1.201325966850829,-0.3517160019687844
1.2346961325966852,-0.3353504590272494
1.2680662983425415,-0.30569779384107193
1.301436464088398,-0.28545699182769835
1.3348066298342542,-0.2867473521708711
1.3681767955801105,-0.30760826013429393
1.401546961325967,-0.33525351947244975
1.4349171270718233,-0.35366114041417046
1.4682872928176796,-0.35133184316025245
1.501657458563536,-0.3255289303033289
1.5350276243093923,-0.2814856351490982
1.5683977900552488,-0.22763341014129304
1.601767955801105,-0.1696049707341683
1.6351381215469614,-0.10602776245614247
1.6685082872928179,-0.028161367186789757
1.7018784530386741,0.07615237738913781
1.7352486187845306,0.21542866969926852
1.768618784530387,0.3869730058013863
1.8019889502762432,0.5721860711324346
1.8353591160220997,0.737772015189671
1.868729281767956,0.8440434931257669
1.9020994475138122,0.8584446159537952
1.9354696132596687,0.769314525074893
1.968839779005525,0.5935848448900758
2.0022099447513813,0.3738592888633413
2.0355801104972375,0.16486506922626595
2.0689502762430942,0.014437379374340597
2.1023204419889505,-0.0528995200160204
2.135690607734807,-0.0428366205952668
2.169060773480663,0.013652237043803766
2.2024309392265193,0.07397371440860881
2.235801104972376,0.09986044557921168
2.2691712707182323,0.06930063900179226
2.3025414364640886,-0.01893832684732404
2.335911602209945,-0.14798770720250773
2.369281767955801,-0.29017230806751115
2.402651933701658,-0.4158256639099636
2.436022099447514,-0.5012565578399338
2.4693922651933704,-0.5343951260458343
2.5027624309392267,-0.5171442697941631
2.536132596685083,-0.46382668476952993
2.5695027624309392,-0.3959649266159602
2.602872928176796,-0.3350774268450525
2.636243093922652,-0.2964271428749659
2.6696132596685085,-0.2865386113223169
2.7029834254143648,-0.30531244377671507
2.736353591160221,-0.350623405132204
2.7697237569060777,-0.42132228955646606
2.803093922651934,-0.5152351959353059
2.8364640883977903,-0.6221581701032805
2.8698342541436466,-0.7161450710978402
2.903204419889503,-0.7537432984192062
2.936574585635359,-0.6831394300337589
2.969944751381216,-0.4635998973150537
3.003314917127072,-0.0878885840654554
3.0366850828729284,0.40346785716056205
3.0700552486187846,0.925242297949259
3.103425414364641,1.3696372986043188
3.1367955801104976,1.6399237429019375
3.170165745856354,1.6818755777467391
3.20353591160221,1.499801965038824
3.2369060773480665,1.1511020589685486
3.2702762430939227,0.7232760431591072
3.3036464088397794,0.30481874225202193
3.3370165745856357,-0.037562875953110454
3.370386740331492,-0.2684696293525829
3.4037569060773483,-0.3811711559303186
3.4371270718232045,-0.38922097244450427
3.4704972375690613,-0.318520555521258
3.5038674033149175,-0.2018345174518822
3.537237569060774,-0.07386786302791068
3.57060773480663,0.03526971010282362
3.6039779005524863,0.10734141386886328
3.6373480662983426,0.1400564553078072
3.6707182320441993,0.1442154454339286
3.7040883977900556,0.13419284023921024
3.737458563535912,0.11690924331756755
3.770828729281768,0.08630949640773343
3.8041988950276244,0.027376441540160494
3.837569060773481,-0.07234045630643848
3.8709392265193374,-0.21074413061292788
3.9043093922651937,-0.36648504659848796
3.93767955801105,-0.5051681645985517
3.9710497237569062,-0.5938481833257849
4.0044198895027625,-0.6164152824104733
4.037790055248619,-0.581699537243805
4.071160220994475,-0.5196053018752878
4.104530386740332,-0.46652743870497637
4.1379005524861885,-0.4468385468916028
4.171270718232044,-0.4596732780303158
4.204640883977901,-0.4781779130503761
4.238011049723757,-0.46250498726839284
4.271381215469614,-0.38079002720738636
4.30475138121547,-0.2277400401919824
4.338121546961326,-0.03097479230889236
4.371491712707183,0.1589525206464772
4.404861878453039,0.2906297728245568
4.438232044198895,0.3352898164443585
4.471602209944752,0.30006965072106434
4.504972375690608,0.22445095923657926
4.538342541436465,0.16182796159853646
4.5717127071823205,0.15551242230092302
4.605082872928177,0.22080152648744422
4.638453038674034,0.34097214780520924
4.67182320441989,0.47757856879432575
4.7051933701657465,0.5884989080470189
4.738563535911602,0.6444365887191036
4.771933701657459,0.6369560789457902
4.805303867403316,0.5765258277990867
4.8386740331491715,0.4839698332766423
4.872044198895028,0.3806574235598705
4.905414364640884,0.28152389276534223
4.938784530386741,0.19239351629151738
4.972154696132597,0.11106578203350656
5.005524861878453,0.030932347042817637
5.03889502762431,-0.054141742350344496
5.072265193370166,-0.14517891205753716
5.105635359116023,-0.2356212511152129
5.1390055248618784,-0.3127142541991527
5.172375690607735,-0.362873046292133
5.205745856353592,-0.3788332121776385
5.239116022099448,-0.3647829554576212
5.272486187845304,-0.33613451198609473
5.30585635359116,-0.3131817430168552
5.339226519337017,-0.3112221710907013
5.372596685082874,-0.33186374852364803
5.4059668508287295,-0.35995914178191635
5.439337016574586,-0.36808900659583627
5.472707182320442,-0.3271024956018681
5.506077348066299,-0.21857067305210923
5.5394475138121555,-0.04419540466804464
5.572817679558011,0.17162139191548717
5.606187845303868,0.38732661085575704
5.639558011049724,0.5562468032989166
5.672928176795581,0.6411032723859605
5.706298342541437,0.6259551447276911
5.739668508287293,0.5211604799740288
5.77303867403315,0.3592126738008201
5.806408839779006,0.18256860489859972
5.839779005524862,0.027761246462460167
5.873149171270718,-0.08805600052453184
5.906519337016575,-0.17242273056501944
5.939889502762432,-0.2519813358765452
5.9732596685082875,-0.35782405161171243
6.006629834254144,-0.5079979206535046
6.04,-0.6953070297222743
6.073370165745857,-0.8865677447503156
6.1067403314917135,-1.034059993895865
6.140110497237569,-1.0936744055387952
6.173480662983426,-1.0406980991862471
6.206850828729282,-0.8756198557703129
6.240220994475139,-0.6182024555460504
6.273591160220995,-0.2949808936369353
6.306961325966851,0.07097709098443564
6.340331491712708,0.46124565481756796
6.373701657458564,0.854014497525976
6.40707182320442,1.2138191765772959
6.440441988950277,1.4887403316913697
6.473812154696133,1.6210137630245336
6.50718232044199,1.568690688341956
6.5405524861878455,1.3281996237442115
6.573922651933702,0.9453242819184469
6.607292817679559,0.5069202129527951
6.640662983425415,0.1150432960986656
6.674033149171271,-0.14618128836720598
6.707403314917127,-0.23728954388502774
6.740773480662984,-0.1734939536466013
6.774143646408841,-0.015344525404200223
6.8075138121546965,0.15479424142138212
6.840883977900553,0.260785166475538
6.874254143646409,0.25554596860628565
6.907624309392266,0.1321894305166752
6.9409944751381225,-0.07846215438627924
6.974364640883978,-0.3218058639103634
7.007734806629835,-0.5397039257700419
7.041104972375691,-0.6903152498783612
7.074475138121548,-0.7607503278993816
7.107845303867403,-0.7678276001162284
7.14121546961326,-0.7464485289814462
7.174585635359117,-0.7304229333370611
7.207955801104973,-0.7345334691585254
7.241325966850829,-0.7467243710428761
7.274696132596685,-0.7347590458527934
7.308066298342542,-0.6644167333394052
7.341436464088399,-0.5200764362761298
7.3748066298342545,-0.3168857308904026
7.408176795580111,-0.09775276786867304
7.441546961325967,0.08389900656063042
7.474917127071824,0.1873887948828554
7.5082872928176805,0.20278092370172768
7.541657458563536,0.1550272450275062
7.575027624309393,0.0924400670408574
7.608397790055249,0.06505334464329676
7.641767955801106,0.10284041023987918
7.675138121546962,0.20343038868273133
7.708508287292818,0.33443284988879557
7.741878453038675,0.44898353641586064
7.775248618784531,0.5074588978842316
7.808618784530387,0.49573155625692406
7.841988950276244,0.4318517915060873
7.8753591160221,0.3580702257864397
7.908729281767957,0.3216384562115897
7.9420994475138125,0.35299894239990176
7.975469613259669,0.45131177183065446
8.008839779005525,0.5839140824061099
8.042209944751383,0.6997408393837489
8.075580110497238,0.7501950370857388
8.108950276243094,0.7077657411495251
8.14232044198895,0.574391500029037
8.175690607734808,0.3770431566053579
8.209060773480664,0.15419729529048581
8.24243093922652,-0.05941495375074691
8.275801104972377,-0.24276013403089142
8.309171270718233,-0.3898441875854123
8.342541436464089,-0.5038365243594988
8.375911602209946,-0.5885895567000774
8.409281767955802,-0.6426306357591021
8.442651933701658,-0.6586984757474088
8.476022099447514,-0.6287162948313882
8.509392265193371,-0.5512367045250465
8.542762430939227,-0.43703688699529875
8.576132596685083,-0.30928191728515364
8.60950276243094,-0.1972873587135252
8.642872928176796,-0.12623930998890082
8.676243093922652,-0.10754013958956972
8.709613259668508,-0.13438503142171174
8.742983425414366,-0.18469881372102787
8.776353591160222,-0.23006741810752893
8.809723756906077,-0.2466916228558962
8.843093922651935,-0.2238576500975934
8.87646408839779,-0.16684212634127846
8.909834254143647,-0.09353383646290164
8.943204419889504,-0.0263069458482121
8.97657458563536,0.017756585969959913
9.009944751381216,0.03452888188139837
9.043314917127072,0.035031242852024545
9.07668508287293,0.04053564279819063
9.110055248618785,0.07183763166946301
9.143425414364641,0.137080805179735
9.176795580110499,0.22421437610088316
9.210165745856354,0.3029859400163799
9.24353591160221,0.3371724321465924
9.276906077348068,0.30228842978589926
9.310276243093924,0.20025519629239252
9.34364640883978,0.0629517647778982
9.377016574585635,-0.0584760351022722
9.410386740331493,-0.11451252503016071
9.443756906077349,-0.07876833168051596
9.477127071823205,0.04035746211383912
9.510497237569062,0.2036821395722463
9.543867403314918,0.35898114602864756
9.577237569060774,0.46366925924039026
9.610607734806631,0.5013248330925972
9.643977900552487,0.48445971930315784
9.677348066298343,0.44325599768610396
9.710718232044199,0.40704947713898026
9.744088397790057,0.38836861695983355
9.777458563535912,0.3770755031883651
9.810828729281768,0.34639885511937935
9.844198895027626,0.26685763837188337
9.877569060773482,0.12112038914011183
9.910939226519337,-0.08649776783761426
9.944309392265193,-0.3291445553845516
9.97767955801105,-0.5648368541602019
10.011049723756907,-0.7491406383365053
10.044419889502763,-0.8486950979027313
10.07779005524862,-0.8510717529570418
10.111160220994476,-0.7676706777262118
10.144530386740332,-0.6286944748582619
10.17790055248619,-0.4721042329869188
10.211270718232045,-0.33077617012374205
10.244640883977901,-0.2227618168341463
10.278011049723757,-0.14818820695651683
10.311381215469615,-0.0934847724025767
10.34475138121547,-0.040560743959548125
10.378121546961326,0.023397635664306693
10.411491712707184,0.09988372188666221
10.44486187845304,0.1792671004429276
10.478232044198895,0.24667579394329053
10.511602209944753,0.2901857767478562
10.544972375690609,0.30678878979338303
10.578342541436465,0.30289738652768033
10.61171270718232,0.2893171434645463
10.645082872928178,0.27389827841712455
10.678453038674034,0.2564846762091079
10.71182320441989,0.22939908432794393
10.745193370165747,0.18335235605671277
10.778563535911603,0.11536925367081674
10.811933701657459,0.03403286131379086
10.845303867403315,-0.041241371999249245
10.878674033149172,-0.0869752833175521
10.912044198895028,-0.08534625368039411
10.945414364640884,-0.03232798947347184
10.978784530386742,0.05937233880217758
11.012154696132598,0.16369112933095983
11.045524861878453,0.24932565540878773
11.078895027624311,0.2894165547533883
11.112265193370167,0.26952189626840756
11.145635359116023,0.1916138468336128
11.179005524861878,0.07322434989400468
11.212375690607736,-0.057854490980175685
11.245745856353592,-0.17188461177820955
11.279116022099448,-0.2462739405780907
11.312486187845305,-0.27270715830156156
11.345856353591161,-0.25969827951680957
11.379226519337017,-0.22905487523596516
11.412596685082875,-0.20683812709107902
11.44596685082873,-0.21184275147680254
11.479337016574586,-0.24625743945221465
11.512707182320442,-0.292929743057292
11.5460773480663,-0.32125713424942265
11.579447513812156,-0.2999934781669846
11.612817679558011,-0.21187710906289112
11.646187845303869,-0.06365706878095465
11.679558011049725,0.1133647154742508
11.71292817679558,0.2732850833198879
11.746298342541436,0.37251122330466513
11.779668508287294,0.38687688662297043
11.81303867403315,0.32174162439955833
11.846408839779006,0.21043889962954282
11.879779005524863,0.10115820971295868
11.91314917127072,0.03736451740296854
11.946519337016575,0.040020601095001544
11.979889502762433,0.09954118737829527
12.013259668508288,0.18133166830465783
12.046629834254144,0.24254754269048637
12.08,0.25226541738278935
12.113370165745858,0.20539165828434844
12.146740331491714,0.12351065976073458
12.18011049723757,0.04225691797019143
12.213480662983427,-0.008424036110383762
12.246850828729283,-0.02102553810990149
12.280220994475139,-0.01545563318399855
12.313591160220996,-0.02928115037421044
12.346961325966852,-0.09772564881412267
12.380331491712708,-0.2331776595823359
12.413701657458564,-0.41438370834153493
12.447071823204421,-0.590918425390546
12.480441988950277,-0.7013427220971271
12.513812154696133,-0.6972476449774798
12.54718232044199,-0.5629575110845311
12.580552486187846,-0.3228094783666992
12.613922651933702,-0.03331681768621359
12.64729281767956,0.2363238163722837
12.680662983425416,0.42747467344382206
12.714033149171271,0.510010982546734
12.747403314917127,0.48845751116465413
12.780773480662985,0.39488039502176053
12.81414364640884,0.2726703070461807
12.847513812154697,0.15892832698732676
12.880883977900554,0.07310306239313716
12.91425414364641,0.015900633870072085
12.947624309392266,-0.022821158469067453
12.980994475138122,-0.05273330314523034
13.01436464088398,-0.07498506620406473
13.047734806629835,-0.08172324501717602
13.081104972375691,-0.06296147535183125
13.114475138121549,-0.01633551787922861
13.147845303867404,0.04648662478313134
13.18121546961326,0.10132006224218153
13.214585635359118,0.12120881210882571
13.247955801104974,0.0899910174109486
13.28132596685083,0.012631947114101254
13.314696132596685,-0.08374359744424076
13.348066298342543,-0.15987026344963332
13.381436464088399,-0.181570252203522
13.414806629834255,-0.13629133027051601
13.448176795580112,-0.040677980690783794
13.481546961325968,0.0653870816153846
13.514917127071824,0.13655580931602257
13.548287292817681,0.14387261371734517
13.581657458563537,0.09020268287166902
13.615027624309393,0.010936060948392518
13.648397790055249,-0.04160494906888175
13.681767955801106,-0.023398912036456054
13.715138121546962,0.07849781471497815
13.748508287292818,0.23713224283888154
13.781878453038676,0.39559777552628844
13.815248618784532,0.4911811238030597
13.848618784530387,0.4821529146686016
13.881988950276245,0.3646501623257558
13.9153591160221,0.1723712973255569
13.948729281767957,-0.03969933125492421
13.982099447513813,-0.21901525518487014
14.01546961325967,-0.33540789432353835
14.048839779005526,-0.3887647493263197
14.082209944751382,-0.4024108170340274
14.11558011049724,-0.4069641663052205
14.148950276243095,-0.42338748040187735
14.182320441988951,-0.4534247156026866
14.215690607734807,-0.4812137624123154
14.249060773480664,-0.48402280417765703
14.28243093922652,-0.4457173071706393
14.315801104972376,-0.3657546948968118
14.349171270718234,-0.2594048246381087
14.38254143646409,-0.14982360830492505
14.415911602209945,-0.05689900331881913
14.449281767955803,0.010841947367316354
14.482651933701659,0.057220582446475717
14.516022099447515,0.09274514458850332
14.54939226519337,0.1267586921889974
14.582762430939228,0.16279489037934258
14.616132596685084,0.19977172816518868
14.64950276243094,0.2370922163827764
14.682872928176797,0.27867979502947665
14.716243093922653,0.33177968200982066
14.749613259668509,0.40051983252752704
14.782983425414367,0.4787099825514938
14.816353591160222,0.5477886983098414
14.849723756906078,0.5829533487491882
14.883093922651934,0.5651030599502552
14.916464088397792,0.4918941466684361
14.949834254143648,0.38096838866016547
14.983204419889503,0.2626682509603688
15.016574585635361,0.16574939765743146
15.049944751381217,0.10384800427007214
15.083314917127073,0.0700671434860442
15.116685082872928,0.04229350068215831
15.150055248618786,-0.004224067195979912
15.183425414364642,-0.08417136974937524
15.216795580110498,-0.19573784967617722
15.250165745856355,-0.3226198466444479
15.283535911602211,-0.4418831980399556
15.316906077348067,-0.5327649345624456
15.350276243093925,-0.5824294850948198
15.38364640883978,-0.5875059569939413
15.417016574585636,-0.5526202890310027
15.450386740331492,-0.4877451438904288
15.48375690607735,-0.40539165837398844
15.517127071823205,-0.31780593370636634
15.550497237569061,-0.23432664631340122
15.583867403314919,-0.15965509233504555
15.617237569060775,-0.09401915396759239
15.65060773480663,-0.03545780979442427
15.683977900552488,0.016924912041497615
15.717348066298344,0.06082523710070277
15.7507182320442,0.0914188349448191
15.784088397790056,0.10484354526423965
15.817458563535913,0.10247177768230885
15.85082872928177,0.09302682162854004
15.884198895027625,0.09051932013304383
15.917569060773483,0.10833817679396006
15.950939226519338,0.15221829551540086
15.984309392265194,0.21576743613801844
16.01767955801105,0.28120699088390083
16.051049723756908,0.32556612346931124
16.084419889502765,0.3300147855664729
16.11779005524862,0.28847619297495586
16.151160220994477,0.21171067801288704
16.18453038674033,0.12467674796860097
16.21790055248619,0.05761092230806979
16.251270718232046,0.0339987445585808
16.2846408839779,0.06031664556945066
16.318011049723758,0.12218649807343845
16.351381215469615,0.18918485800842388
16.38475138121547,0.22680086464968738
16.418121546961327,0.21061025782833356
16.451491712707185,0.13640313055795183
16.48486187845304,0.021653145706839544
16.518232044198896,-0.10229049324058498
16.551602209944754,-0.20350688517258703
16.584972375690608,-0.2619534648775046
16.618342541436466,-0.275319067801327
16.651712707182323,-0.256035527570824
16.685082872928177,-0.2217929460974437
16.718453038674035,-0.18516086959834324
16.751823204419892,-0.14807441305439176
16.785193370165747,-0.10390538149389017
16.818563535911604,-0.04532585795254518
16.851933701657458,0.02719655033538987
16.885303867403316,0.10168170646555273
16.918674033149173,0.15813440676527885
16.952044198895027,0.17735204849047828
16.985414364640885,0.15007848225027304
17.018784530386743,0.08152735772305253
17.052154696132597,-0.010848997041948645
17.085524861878454,-0.1046587748236053
17.118895027624312,-0.18080760730937323
17.152265193370166,-0.22872000652801744
17.185635359116024,-0.24690171134886352
17.21900552486188,-0.23993433176649898
17.252375690607735,-0.21448962428999008
