Time (s),Filtered Signal
0.0,-0.02228349135037498
0.03337008452774715,0.05248133727450989
0.0667401690554943,0.12324260758679036
0.10011025358324147,0.18227638754324066
0.1334803381109886,0.2178781307182973
0.16685042263873576,0.21699424770509912
0.20022050716648293,0.17019622720625274
0.23359059169423008,0.07666758095515568
0.2669606762219772,-0.05311012499061836
0.30033076074972437,-0.19812366833492034
0.3337008452774715,-0.3307381694190708
0.36707092980521866,-0.4225315061117495
0.40044101433296586,-0.45071384250508506
0.433811098860713,-0.4040313024332134
0.46718118338846015,-0.28706717321350317
0.5005512679162073,-0.1215486054469167
0.5339213524439544,0.05680153804635189
0.5672914369717016,0.20643412977848039
0.6006615214994487,0.29173132110388883
0.6340316060271959,0.294643705450063
0.667401690554943,0.2214051554809149
0.7007717750826902,0.10075670868303459
0.7341418596104373,-0.026423741552056013
0.7675119441381845,-0.12205837276241553
0.8008820286659317,-0.16384200769705154
0.8342521131936789,-0.15049459913355262
0.867622197721426,-0.09744063961345446
0.9009922822491732,-0.02601062485038168
0.9343623667769203,0.047601338251149185
0.9677324513046675,0.11787483996141551
1.0011025358324146,0.18790743698789852
1.0344726203601617,0.2621216583575766
1.0678427048879089,0.33865245682663087
1.101212789415656,0.4058311209998694
1.1345828739434032,0.44445089168483387
1.1679529584711503,0.43447180108433625
1.2013230429988975,0.3630729360930295
1.2346931275266446,0.2308672364224848
1.2680632120543918,0.054056784527181344
1.301433296582139,-0.13841437834973294
1.334803381109886,-0.31231282281100414
1.3681734656376332,-0.4382699778887657
1.4015435501653803,-0.5012470685686261
1.4349136346931275,-0.5053022944696912
1.4682837192208746,-0.47090175369647036
1.5016538037486218,-0.42519279199165955
1.535023888276369,-0.3893183664583008
1.568393972804116,-0.3687714988187828
1.6017640573318634,-0.35155845347444237
1.6351341418596106,-0.3150840214011688
1.6685042263873577,-0.23835637277979546
1.7018743109151049,-0.11367468302320465
1.735244395442852,0.04751867120273791
1.7686144799705992,0.21708911516232443
1.8019845644983463,0.35985752544947247
1.8353546490260935,0.4465503445303608
1.8687247335538406,0.46496178871506344
1.9020948180815878,0.4248173475988036
1.935464902609335,0.3540376824963678
1.968834987137082,0.2874395657740264
2.002205071664829,0.252272797691458
2.0355751561925763,0.2568094919725661
2.0689452407203235,0.28724083970264747
2.1023153252480706,0.3144764740328174
2.1356854097758178,0.3077589875543613
2.169055494303565,0.24875543089380409
2.202425578831312,0.1397468654089017
2.235795663359059,0.002688259097606287
2.2691657478868064,-0.1295756442833719
2.3025358324145535,-0.22528928844585247
2.3359059169423007,-0.26374649655174504
2.369276001470048,-0.2401073527466939
2.402646085997795,-0.16502366173375513
2.436016170525542,-0.06111678675829506
2.4693862550532892,0.04154583114882547
2.5027563395810364,0.11023478395473585
2.5361264241087835,0.11528000714191623
2.5694965086365307,0.03742449508968878
2.602866593164278,-0.12415607689481345
2.636236677692025,-0.3463272237907567
2.669606762219772,-0.5829831543964754
2.7029768467475193,-0.7748467723279538
2.7363469312752664,-0.8664704963745529
2.7697170158030135,-0.8247288659443238
2.8030871003307607,-0.651281423225511
2.836457184858508,-0.3833484276345705
2.869827269386255,-0.0820154789910887
2.903197353914002,0.1873039494247089
2.9365674384417493,0.37451885151831404
2.9699375229694964,0.4575982590860397
3.0033076074972436,0.44510773802279274
3.0366776920249907,0.3696188117628803
3.070047776552738,0.2757294576823649
3.103417861080485,0.20668411614996152
3.136787945608232,0.1924715167716252
3.1701580301359793,0.2414024268104368
3.203528114663727,0.33715199405880875
3.236898199191474,0.4432377746973178
3.270268283719221,0.5154598582747845
3.3036383682469683,0.5194986320417941
3.3370084527747155,0.4470812956415654
3.3703785373024626,0.3225859583346507
3.4037486218302098,0.1947268270502305
3.437118706357957,0.11469568372573306
3.470488790885704,0.10970568488583018
3.503858875413451,0.16498387694995367
3.5372289599411983,0.2249170923958233
3.5705990444689455,0.21558376640823432
3.6039691289966926,0.0800937772175177
3.63733921352444,-0.18945958455035097
3.670709298052187,-0.5396558218220505
3.704079382579934,-0.8709279282018496
3.7374494671076812,-1.0752343141532936
3.7708195516354284,-1.080023307298208
3.8041896361631755,-0.8787219993660789
3.8375597206909227,-0.5339904828176985
3.87092980521867,-0.15257321043481228
3.904299889746417,0.1565909434520974
3.937669974274164,0.3224956677490798
3.9710400588019112,0.333946093620427
4.004410143329658,0.2359089406026716
4.0377802278574055,0.10451964991498278
4.071150312385153,0.013286691480814352
4.1045203969129,0.005059199009473802
4.137890481440647,0.08008099173916591
4.171260565968394,0.20264381164935688
4.204630650496141,0.32114378385695125
4.238000735023888,0.3917074754632739
4.2713708195516356,0.3953091632440592
4.304740904079383,0.34200278912664767
4.33811098860713,0.2617772127838443
4.371481073134877,0.18724064167763377
4.404851157662624,0.13663562340777172
4.438221242190371,0.10524572625015646
4.471591326718118,0.06919199390272143
4.504961411245866,-0.000355197189210476
4.538331495773613,-0.11965458095281552
4.57170158030136,-0.2804215236361821
4.605071664829107,-0.44965998617395575
4.638441749356854,-0.5817904587340397
4.671811833884601,-0.6374753429767973
4.7051819184123485,-0.6001869929227847
4.738552002940096,-0.48267050561757424
4.771922087467843,-0.3204917511264028
4.80529217199559,-0.1562350148191649
4.838662256523337,-0.02229029203777605
4.872032341051084,0.06969532629449374
4.905402425578831,0.12861108061009946
4.9387725101065785,0.17454877801300178
4.972142594634326,0.22623688314201548
5.005512679162073,0.29182530669782153
5.03888276368982,0.3667705740301027
5.072252848217567,0.43823062656710937
5.105622932745314,0.49215530252271245
5.138993017273061,0.5187989916277674
5.1723631018008085,0.5144777034379209
5.205733186328556,0.48029934081828085
5.239103270856303,0.42028430139515527
5.27247335538405,0.34080219829669395
5.305843439911797,0.2512574347831355
5.339213524439544,0.16420366471354783
5.372583608967291,0.09304472326300128
5.4059536934950385,0.04729951328876909
5.439323778022786,0.027692605711853887
5.472693862550533,0.02422762936547629
5.50606394707828,0.019003746487649555
5.539434031606027,-0.007331944835970938
5.572804116133774,-0.06890587287422126
5.606174200661521,-0.17110417503398923
5.6395442851892685,-0.3111896170105599
5.672914369717016,-0.48096909427579543
5.706284454244763,-0.6681585717408468
5.73965453877251,-0.8547508066285975
5.773024623300257,-1.0141711607004678
5.806394707828004,-1.1115765692629533
5.839764792355751,-1.1109178579459498
5.873134876883499,-0.988189725617631
5.906504961411246,-0.7451470824063502
5.939875045938993,-0.4153554082741909
5.97324513046674,-0.05709082551338634
6.006615214994487,0.26558425915957834
6.039985299522234,0.5051779796608622
6.073355384049981,0.6454137808616932
6.106725468577729,0.7007768024553295
6.140095553105476,0.7019814473905804
6.173465637633223,0.6764242440631688
6.20683572216097,0.6353044268560076
6.240205806688717,0.5745012393212707
6.273575891216464,0.4873193308089205
6.3069459757442115,0.37958333947784145
6.340316060271959,0.2761711163650481
6.373686144799706,0.21370983338114907
6.407056229327454,0.22302642891712338
6.440426313855201,0.3113291401348483
6.473796398382948,0.45422228182420904
6.507166482910695,0.6019594957575208
6.540536567438442,0.6967264707368701
6.5739066519661895,0.6926875181955855
6.607276736493937,0.5703024996775459
6.640646821021684,0.3402205687990948
6.674016905549431,0.03716712826917437
6.707386990077178,-0.2920231839657631
6.740757074604925,-0.6009914845784262
6.774127159132672,-0.8530744328872287
6.8074972436604195,-1.0255348020952415
6.840867328188167,-1.1093709822233295
6.874237412715914,-1.1065178331978158
6.907607497243661,-1.0263741218620337
6.940977581771408,-0.882905299026736
6.974347666299155,-0.6926583782405833
7.007717750826902,-0.47344306853838347
7.0410878353546495,-0.24338026797104204
7.074457919882397,-0.02022741165607532
7.107828004410144,0.17909510646493482
7.141198088937891,0.33918365490041213
7.174568173465638,0.4477455183358823
7.207938257993385,0.49849857780442675
7.241308342521132,0.4946535207114595
7.27467842704888,0.4509361832472928
7.308048511576627,0.3916776530355705
7.341418596104374,0.34379043566411216
7.374788680632121,0.326261424743274
7.408158765159868,0.34068771803716946
7.441528849687615,0.36834316470223005
7.4748989342153624,0.37701658007182764
7.50826901874311,0.33601645426509796
7.541639103270857,0.23279833494231494
7.575009187798604,0.0826707393279883
7.608379272326351,-0.0744120906027236
7.641749356854098,-0.18982954261812807
7.675119441381845,-0.22831388522819757
7.7084895259095925,-0.18573686645600657
7.74185961043734,-0.0938458309849443
7.775229694965087,-0.00894973566202596
7.808599779492834,0.0110788846549793
7.841969864020581,-0.06826996342177803
7.875339948548328,-0.24198033448684209
7.908710033076075,-0.46498353092411254
7.9420801176038225,-0.667465660578087
7.97545020213157,-0.7797263498372551
8.008820286659317,-0.756765403806572
8.042190371187063,-0.5934221249153744
8.075560455714811,-0.32507723345300465
8.108930540242557,-0.01460961232975928
8.142300624770305,0.26887162063467945
8.175670709298052,0.47165606109137775
8.2090407938258,0.5701406232819942
8.242410878353546,0.5742520122927737
8.275780962881294,0.5193071295680217
8.30915104740904,0.44998910813424886
8.342521131936788,0.4027249755514078
8.375891216464534,0.3931192672105127
8.409261300992283,0.41295314227181507
8.442631385520029,0.43726269035388526
8.476001470047777,0.43775478136200796
8.509371554575523,0.39623610952374005
8.542741639103271,0.3120929735208424
8.57611172363102,0.20098640897377504
8.609481808158765,0.08620967073328104
8.642851892686513,-0.01255778112236653
8.67622197721426,-0.0875794801121385
8.709592061742008,-0.144809861753561
8.742962146269754,-0.19878016440996962
8.776332230797502,-0.2635867339231885
8.809702315325248,-0.3446220802875093
8.843072399852996,-0.43513905736460634
8.876442484380743,-0.519280696463548
8.90981256890849,-0.5799886875453721
8.943182653436237,-0.6077205700436078
8.976552737963985,-0.6053520678777967
9.009922822491731,-0.5863499252969444
9.04329290701948,-0.5665715537109449
9.076662991547225,-0.553436310873568
9.110033076074973,-0.5381248301189018
9.14340316060272,-0.49579414604759875
9.176773245130468,-0.3954495161240153
9.210143329658214,-0.2162602592108707
9.243513414185962,0.0370188482816244
9.276883498713708,0.3278473000456555
9.310253583241456,0.5958914239881368
9.343623667769203,0.7775649763507902
9.37699375229695,0.8308108043363337
9.410363836824697,0.7528251999089689
9.443733921352445,0.5820906792589835
9.477104005880191,0.38330548230665523
9.51047409040794,0.22189756563063662
9.543844174935685,0.13958868032016786
9.577214259463434,0.14156318947209034
9.61058434399118,0.1998934469310525
9.643954428518928,0.27020169061982074
9.677324513046674,0.31294973137943116
9.710694597574422,0.30965324468218924
9.744064682102168,0.26764725192015554
9.777434766629916,0.2126724899770182
9.810804851157663,0.17375136248997478
9.84417493568541,0.16754022145587777
9.877545020213157,0.1889217485362297
9.910915104740905,0.21164277784737048
9.944285189268651,0.19865091103454763
9.9776552737964,0.1179491943991744
10.011025358324146,-0.0424428795275994
10.044395442851894,-0.26664935003995505
10.07776552737964,-0.5137594087371202
10.111135611907388,-0.7305512093669035
10.144505696435134,-0.8692114140341399
10.177875780962882,-0.9030536566100404
10.211245865490628,-0.8341844411246933
10.244615950018376,-0.6905268684319825
10.277986034546123,-0.5139408552546296
10.31135611907387,-0.34452918705002
10.344726203601617,-0.2073561384445305
10.378096288129365,-0.10644376695984817
10.411466372657111,-0.02770363099763642
10.44483645718486,0.05123778177173046
10.478206541712606,0.14898778654134964
10.511576626240354,0.27123260519351017
10.5449467107681,0.4078114093564289
10.578316795295848,0.5363340523571238
10.611686879823594,0.6299668665366626
10.645056964351342,0.6658790876311298
10.678427048879088,0.6315175163748075
10.711797133406836,0.5275800179749541
10.745167217934583,0.36806951744783756
10.77853730246233,0.17828596487294296
10.811907386990077,-0.008904610267212886
10.845277471517825,-0.15887716972037597
10.878647556045571,-0.24336416385719195
10.91201764057332,-0.24976802312181343
10.945387725101066,-0.18857577078600798
10.978757809628814,-0.09459884415780613
11.01212789415656,-0.01882548015072552
11.045497978684308,-0.011347587907479242
11.078868063212054,-0.10071859539147458
11.112238147739802,-0.2785027288032622
11.145608232267548,-0.4971853469985437
11.178978316795297,-0.6844730480676318
11.212348401323043,-0.7694467944471379
11.24571848585079,-0.7099057359810597
11.279088570378537,-0.5089940015755201
11.312458654906285,-0.21378127906710312
11.345828739434031,0.1033404403630332
11.37919882396178,0.3719272657143094
11.412568908489526,0.5475390391898429
11.445938993017274,0.622987085397612
11.47930907754502,0.6236016110700798
11.512679162072768,0.5905522874018118
11.546049246600514,0.5608891256077613
11.579419331128262,0.5532240749964115
11.612789415656009,0.5642333536097587
11.646159500183757,0.5755825780897521
11.679529584711503,0.5662187733645231
11.71289966923925,0.5232833098596462
11.746269753766997,0.44664344832446845
11.779639838294745,0.3460050139870583
11.813009922822491,0.23355303627988183
11.84638000735024,0.1170204529622336
11.879750091877986,-0.0028586408642193193
11.913120176405734,-0.1296620708749929
11.94649026093348,-0.2658616852214717
11.979860345461228,-0.40873288797884516
12.013230429988974,-0.5504565001712013
12.046600514516722,-0.6821286599668306
12.079970599044469,-0.7984195601592765
12.113340683572217,-0.8989261392829037
12.146710768099963,-0.9844691224985175
12.180080852627711,-1.0503179313640656
12.213450937155457,-1.0810787060873581
12.246821021683205,-1.051774040662358
12.280191106210951,-0.9363719954229295
12.3135611907387,-0.7205672572936469
12.346931275266446,-0.4126779491510474
12.380301359794194,-0.04691825524025544
12.41367144432194,0.3231602466514323
12.447041528849688,0.6386590072411517
12.480411613377434,0.8512389952138424
12.513781697905182,0.9352506363469153
12.547151782432929,0.8927381490264015
12.580521866960677,0.7511016407959562
12.613891951488423,0.555391851553144
12.647262036016171,0.3577975783173677
12.680632120543917,0.2064048672631411
12.714002205071665,0.1348062215405789
12.747372289599411,0.1542500697384169
12.78074237412716,0.250480048545158
12.814112458654908,0.38728971873025936
12.847482543182654,0.5172821040850213
12.880852627710402,0.5974489073527497
12.914222712238148,0.6042309453205006
12.947592796765896,0.5415845014656436
12.980962881293642,0.43760284268679767
13.01433296582139,0.3301193606122683
13.047703050349137,0.24728561837719928
13.081073134876885,0.19236250530351684
13.114443219404631,0.14073891405344713
13.147813303932379,0.05162431035429784
13.181183388460125,-0.11046023632258214
13.214553472987873,-0.35454496369284194
13.24792355751562,-0.6528895025716795
13.281293642043368,-0.9469381964204463
13.314663726571114,-1.1672257409057851
13.348033811098862,-1.2583366751394567
13.381403895626608,-1.1979674571930754
13.414773980154356,-1.0024279360305997
13.448144064682102,-0.7175794415393175
13.48151414920985,-0.400680229020386
13.514884233737597,-0.10175493524568993
13.548254318265345,0.14816444972948314
13.581624402793091,0.33895274220344324
13.614994487320839,0.4753042164602166
13.648364571848585,0.5673894821260165
13.681734656376333,0.6231154897443069
13.71510474090408,0.6448489307794626
13.748474825431828,0.6307807383273526
13.781844909959574,0.5790107991580935
13.815214994487322,0.49158193521052634
13.848585079015068,0.376173653312765
13.881955163542816,0.2446365499766025
13.915325248070562,0.10934234934556379
13.94869533259831,-0.02040701575408538
13.982065417126057,-0.13964987351515654
14.015435501653805,-0.24586170442818778
14.048805586181551,-0.3352066718415681
14.082175670709299,-0.3999106891376923
14.115545755237045,-0.42954528998541064
14.148915839764793,-0.4167069047563775
14.18228592429254,-0.3642871569479495
14.215656008820288,-0.28939258477418467
14.249026093348034,-0.21980092520198302
14.282396177875782,-0.18274742616935444
14.315766262403528,-0.19079919248041471
14.349136346931276,-0.232476970182111
14.382506431459023,-0.273882815737448
14.41587651598677,-0.2721664864206263
14.449246600514517,-0.19509103288815866
14.482616685042265,-0.03708044235585068
14.515986769570011,0.17658354145900942
14.54935685409776,0.3997755877560389
14.582726938625505,0.5846966224064842
14.616097023153253,0.7004711166878295
14.649467107681,0.7421707517374235
14.682837192208748,0.7268780610016902
14.716207276736494,0.6804953171273289
14.749577361264242,0.6233990383301781
14.782947445791988,0.5624455576393893
14.816317530319736,0.4921696222494789
14.849687614847483,0.40254914629185046
14.88305769937523,0.2877086841204965
14.916427783902977,0.15065688356105933
14.949797868430725,0.0024313762051518303
14.983167952958471,-0.14255201211766605
15.01653803748622,-0.2715582448736943
15.049908122013965,-0.3763483399449943
15.083278206541713,-0.4531879532169769
15.11664829106946,-0.5013452776872932
15.150018375597208,-0.5218844294874877
15.183388460124954,-0.5176953652197134
15.216758544652702,-0.49435586132170867
15.250128629180448,-0.46064392704626306
15.283498713708196,-0.4277530692598583
15.316868798235943,-0.40713647581619744
15.35023888276369,-0.40766092537604226
15.383608967291437,-0.4329034980065232
15.416979051819185,-0.4791124743688046
15.450349136346931,-0.5341133707042909
15.48371922087468,-0.5776319792616912
15.517089305402425,-0.5839031894513215
15.550459389930174,-0.5273461837315605
15.58382947445792,-0.3909496289091664
15.617199558985668,-0.1750241282339229
15.650569643513414,0.09772133072618783
15.683939728041162,0.38471743871450675
15.717309812568908,0.6348964254993007
15.750679897096656,0.8055672861245464
15.784049981624403,0.8776527367646747
15.81742006615215,0.8617201765913782
15.850790150679897,0.7912573783878373
15.884160235207645,0.7062233680113899
15.917530319735391,0.6351885253128423
15.95090040426314,0.5850589868076723
15.984270488790886,0.5429985284964554
16.017640573318634,0.4883904810986522
16.05101065784638,0.40748689733097715
16.084380742374126,0.30252972017706536
16.117750826901876,0.1907108132635747
16.151120911429622,0.0941098012444577
16.18449099595737,0.026557143540705205
16.217861080485115,-0.015186281201102204
16.251231165012864,-0.05103922547070666
16.28460124954061,-0.10812337370411565
16.317971334068357,-0.20716608026279168
16.351341418596103,-0.35181370779555127
16.384711503123853,-0.526090090575439
16.4180815876516,-0.7006904323473896
16.451451672179346,-0.8442022869065524
16.484821756707092,-0.9333072605385949
16.51819184123484,-0.9574552565266494
16.551561925762588,-0.9171812820941229
16.584932010290334,-0.8187567026134525
16.61830209481808,-0.669294259224519
16.65167217934583,-0.4753296001075717
16.685042263873576,-0.2452725104420553
16.718412348401323,0.0064704491850805495
16.75178243292907,0.257141038637015
16.78515251745682,0.4777763154921059
16.818522601984565,0.6402247957885302
16.85189268651231,0.7264891349700955
16.885262771040058,0.7359676881128436
16.918632855567807,0.6865400353514396
16.952002940095554,0.6081494297186304
16.9853730246233,0.5312690803018248
17.018743109151046,0.47537167866115315
17.052113193678796,0.44270324565802766
17.085483278206542,0.4201447841630424
17.11885336273429,0.38803425461513597
17.15222344726204,0.33149860102158246
17.185593531789785,0.24870515526702366
17.21896361631753,0.15195235654555456
17.252333700845277,0.060922488408397826
17.285703785373027,-0.008814699122904104
17.319073869900773,-0.0564428625487033
17.35244395442852,-0.09993203142837279
