Time (s),Filtered Signal
0.0,-0.11148897181436151
0.03337004405286344,0.0021114682664695
0.06674008810572687,0.08804937320912076
0.10011013215859031,0.12577414026942707
0.13348017621145375,0.11026537157862566
0.16685022026431717,0.053749182887834465
0.20022026431718062,-0.018271235375943943
0.23359030837004408,-0.07557745522283531
0.2669603524229075,-0.09367270259512718
0.3003303964757709,-0.06249900554138129
0.33370044052863435,0.009856235430575616
0.3670704845814978,0.10014665742494529
0.40044052863436125,0.17880287353747212
0.43381057268722467,0.2212589365418354
0.46718061674008815,0.21708244232250404
0.5005506607929515,0.17293199930703188
0.533920704845815,0.10806227023751672
0.5672907488986785,0.04463903597576752
0.6006607929515418,-0.0022643318605941334
0.6340308370044053,-0.029921053369488256
0.6674008810572687,-0.04587762328377996
0.7007709251101322,-0.05994248296418481
0.7341409691629956,-0.07496704124671252
0.767511013215859,-0.08200411185499677
0.8008810572687225,-0.06322643701490581
0.834251101321586,-0.0017933897826948176
0.8676211453744493,0.10617782700306923
0.9009911894273128,0.24412822493788047
0.9343612334801763,0.37710396206554947
0.9677312775330397,0.46410711188737486
1.001101321585903,0.4763973547633912
1.0344713656387665,0.41372821580983
1.06784140969163,0.31009747575464486
1.1012114537444935,0.22401536694854002
1.134581497797357,0.2146227338693221
1.1679515418502202,0.3119850293326892
1.2013215859030837,0.4945673064758503
1.2346916299559472,0.6865094913749373
1.2680616740088106,0.7806296453235333
1.3014317180616741,0.6815963348204982
1.3348017621145374,0.3521046307687924
1.3681718061674009,-0.1603933039809726
1.4015418502202643,-0.7330176860376855
1.4349118942731278,-1.2132013682318386
1.4682819383259913,-1.4819370633779296
1.5016519823788548,-1.5042601710728507
1.535022026431718,-1.3409512240813395
1.5683920704845815,-1.1143985704823154
1.601762114537445,-0.9453645987078768
1.6351321585903085,-0.8928411681544123
1.668502202643172,-0.9275797171509851
1.7018722466960352,-0.9521512757604167
1.7352422907488987,-0.856274585857913
1.7686123348017622,-0.5784494221505261
1.8019823788546256,-0.1424736818464724
1.8353524229074891,0.34921108348799723
1.8687224669603526,0.7614980111547675
1.9020925110132159,0.9886829002434558
1.9354625550660793,1.001932322586642
1.9688325991189428,0.8593660135883622
2.002202643171806,0.675048050134207
2.0355726872246698,0.5635958457520673
2.068942731277533,0.5883465209692351
2.1023127753303967,0.7375449003553446
2.13568281938326,0.9373841640636873
2.1690528634361232,1.0919438448382164
2.202422907488987,1.1281731116243516
2.23579295154185,1.0244138653776436
2.269162995594714,0.8117845427839931
2.302533039647577,0.5521407873899199
2.3359030837004404,0.3067143779508223
2.369273127753304,0.11159040947976949
2.4026431718061674,-0.02972057769526787
2.436013215859031,-0.13626464864475477
2.4693832599118943,-0.23054628550699108
2.5027533039647576,-0.3221982826753159
2.5361233480176213,-0.40326055732939564
2.5694933920704845,-0.45640731274085644
2.6028634361233483,-0.46974328099145324
2.6362334801762115,-0.44820507468634224
2.6696035242290748,-0.41413027199137037
2.7029735682819385,-0.3965540930862742
2.7363436123348017,-0.415903875777003
2.7697136563876654,-0.47356624597195435
2.8030837004405287,-0.5525998153929601
2.8364537444933924,-0.6287509820226815
2.8698237885462556,-0.6844359091356124
2.903193832599119,-0.7165733235487951
2.9365638766519826,-0.7332158054775869
2.969933920704846,-0.7413373332110641
3.0033039647577096,-0.7342960595248053
3.036674008810573,-0.6884323857754089
3.070044052863436,-0.5730340781208916
3.1034140969162998,-0.36933239225684816
3.136784140969163,-0.08748848951410108
3.1701541850220267,0.22976154028660198
3.20352422907489,0.5211482542487922
3.2368942731277532,0.7325070278813708
3.270264317180617,0.8404522052280928
3.30363436123348,0.8608923771069671
3.337004405286344,0.8374282104257508
3.370374449339207,0.8159213613789634
3.4037444933920704,0.8191816436601858
3.437114537444934,0.8354966042231685
3.4704845814977974,0.8269585653140242
3.503854625550661,0.7526913402114483
3.5372246696035243,0.5940860288288703
3.5705947136563876,0.3682520097997985
3.6039647577092513,0.12242620711497561
3.6373348017621145,-0.08758038968697504
3.6707048458149782,-0.22331549315839727
3.7040748898678415,-0.28029057492699494
3.737444933920705,-0.28683361809024416
3.7708149779735685,-0.28647339907564556
3.8041850220264317,-0.3139647493471699
3.8375550660792954,-0.3782309550356379
3.8709251101321587,-0.4612972863256433
3.9042951541850224,-0.533003448198225
3.9376651982378856,-0.5720451285665495
3.971035242290749,-0.5799929935928876
4.004405286343612,-0.578888292875274
4.037775330396476,-0.5929446692510939
4.0711453744493395,-0.6252483470125231
4.104515418502203,-0.6448590937065798
4.137885462555066,-0.5950664642471901
4.171255506607929,-0.42173135310224363
4.2046255506607935,-0.10816865807732509
4.237995594713657,0.30268392739123345
4.27136563876652,0.7131880451724663
4.304735682819383,1.0041454456274104
4.3381057268722465,1.0827233957683902
4.371475770925111,0.9236479226257351
4.404845814977974,0.5846641543535184
4.438215859030837,0.1887941544497991
4.4715859030837,-0.11950570106850669
4.504955947136564,-0.22645014773352232
4.538325991189428,-0.08892718608297397
4.571696035242291,0.25202133807443416
4.605066079295154,0.6875261212509134
4.638436123348018,1.0789423534203788
4.671806167400881,1.3023840169590977
4.705176211453745,1.2838505548807873
4.738546255506608,1.014473952816365
4.7719162995594715,0.544117354794925
4.805286343612335,-0.04029809803390247
4.838656387665198,-0.641062906694113
4.872026431718062,-1.1708047691510735
4.905396475770925,-1.5638211188273698
4.938766519823789,-1.7791659748009832
4.972136563876652,-1.8007713794271525
5.005506607929515,-1.6390226651800874
5.038876651982379,-1.3335353244450536
5.072246696035243,-0.9519662115265269
5.105616740088106,-0.5787521743820454
5.138986784140969,-0.2925220904985419
5.172356828193832,-0.13914894963872523
5.2057268722466965,-0.11338378980657891
5.23909691629956,-0.1606218369970376
5.272466960352423,-0.20090210677219014
5.305837004405286,-0.16472857783141598
5.3392070484581495,-0.02265807644421159
5.372577092511014,0.20655578816735023
5.405947136563877,0.47210637066336947
5.43931718061674,0.7200986489087985
5.4726872246696034,0.9170523358616008
5.506057268722468,1.0550472606460903
5.539427312775331,1.1394815035696668
5.572797356828194,1.1728520653427075
5.606167400881057,1.1498468498087686
5.639537444933921,1.0687667489948047
5.672907488986785,0.9493646985935531
5.706277533039648,0.8390697030824246
5.739647577092511,0.7954196068749053
5.7730176211453745,0.8495602263738486
5.806387665198238,0.9723841202003224
5.839757709251102,1.0687546109362973
5.873127753303965,1.011654223819177
5.9064977973568284,0.704123164996753
5.939867841409692,0.13730244021767166
5.973237885462555,-0.5891421013452645
6.006607929515419,-1.2996533325147954
6.039977973568282,-1.8150758579363562
6.073348017621146,-2.028621688283366
6.106718061674009,-1.9468035465583888
6.140088105726872,-1.675664239379165
6.173458149779736,-1.3622354303895996
6.2068281938325995,-1.124051983234545
6.240198237885463,-1.0030400964030883
6.273568281938326,-0.9635248583349499
6.306938325991189,-0.9284520392823451
6.3403083700440535,-0.8284614488390979
6.373678414096917,-0.6354688903460773
6.40704845814978,-0.36571019919494047
6.440418502202643,-0.05722125515472428
6.4737885462555065,0.25895098057442084
6.507158590308371,0.573642302152076
6.540528634361234,0.8920275600623924
6.573898678414097,1.2110014479676339
6.60726872246696,1.4990468584610095
6.640638766519824,1.6947719354392923
6.674008810572688,1.7286172305717427
6.707378854625551,1.5575731423318924
6.740748898678414,1.1939500660860276
6.774118942731278,0.7114153147327862
6.807488986784141,0.2231517229224395
6.840859030837005,-0.15872082144675054
6.874229074889868,-0.36415564395092864
6.9075991189427315,-0.3885834202101116
6.940969162995595,-0.28943467665401246
6.974339207048458,-0.1588444642966705
7.007709251101322,-0.085530629213953
7.041079295154185,-0.1221291381538987
7.074449339207049,-0.2701323288762262
7.107819383259912,-0.48570872910059726
7.141189427312775,-0.7007757416666177
7.174559471365639,-0.8489188673972327
7.207929515418503,-0.8864940925748491
7.241299559471366,-0.8036224651783418
7.274669603524229,-0.6243729462935073
7.308039647577092,-0.39796529331748726
7.3414096916299565,-0.18354054416040544
7.37477973568282,-0.031666432266379836
7.408149779735683,0.03273693378961859
7.441519823788546,0.019974117988130653
7.47488986784141,-0.027480068655767118
7.508259911894274,-0.05136161039392523
7.541629955947137,-0.0016116308413126842
7.575,0.14241446802739793
7.608370044052863,0.36352163117597447
7.641740088105728,0.6150840788248986
7.675110132158591,0.8418670699325285
7.708480176211454,1.0025154479875376
7.741850220264317,1.0822780097354772
7.775220264317181,1.0899200755882494
7.808590308370045,1.0415242791061459
7.841960352422908,0.9415184677683469
7.875330396475771,0.7735836767243958
7.9087004405286345,0.509207454525488
7.942070484581498,0.13142259640477078
7.975440528634362,-0.3389840075750739
8.008810572687224,-0.8315482420674751
8.042180616740088,-1.239627359503071
8.075550660792953,-1.4572275015299279
8.108920704845815,-1.4233273236102186
8.142290748898679,-1.1518516352459822
8.175660792951541,-0.7313299945108694
8.209030837004406,-0.2931580615882114
8.24240088105727,0.03710115369145355
8.275770925110132,0.18336290185515253
8.309140969162996,0.13951025846540818
8.342511013215859,-0.039139189698355246
8.375881057268723,-0.26589633837141485
8.409251101321587,-0.458900458529726
8.44262114537445,-0.5682101337008362
8.475991189427313,-0.5849688646964243
8.509361233480176,-0.5324961453143929
8.54273127753304,-0.44625816697000714
8.576101321585904,-0.3530191413692198
8.609471365638766,-0.2584987061983988
8.64284140969163,-0.14822541961513447
8.676211453744493,0.00020498157133432156
8.709581497797357,0.20074368286966743
8.742951541850221,0.4473093031864597
8.776321585903084,0.7127601211610172
8.809691629955948,0.957999759961169
8.84306167400881,1.145425588859286
8.876431718061674,1.2494834175040657
8.909801762114538,1.2600334315025974
8.9431718061674,1.1792887238768484
8.976541850220265,1.0169363195881354
9.009911894273127,0.7883478414917037
9.043281938325991,0.517406114501284
9.076651982378856,0.2405956160190338
9.110022026431718,0.006062233019343559
9.143392070484582,-0.13699720546148644
9.176762114537445,-0.15720404037376282
9.210132158590309,-0.05982943574016103
9.243502202643173,0.10557484443966576
9.276872246696035,0.2560911098989955
9.3102422907489,0.30338417381366384
9.343612334801762,0.1882239643354496
9.376982378854626,-0.09300809435455533
9.41035242290749,-0.4818183757147242
9.443722466960352,-0.8753665421330601
9.477092511013216,-1.1633522961577156
9.510462555066079,-1.2711278109059165
9.543832599118943,-1.192462259515986
9.577202643171807,-0.9973601476598198
9.61057268722467,-0.8083888376821211
9.643942731277534,-0.7513406185459404
9.677312775330396,-0.8982590405957319
9.71068281938326,-1.2270039410483715
9.744052863436124,-1.6173172285029838
9.777422907488987,-1.8890547122317258
9.81079295154185,-1.8695531991781016
9.844162995594713,-1.4628388778085535
9.877533039647577,-0.6910661257385597
9.910903083700441,0.3098647678292376
9.944273127753304,1.3382865507549744
9.977643171806168,2.196954480068864
10.01101321585903,2.7553205374416994
10.044383259911895,2.9792732320416113
10.077753303964759,2.9200373456652082
10.111123348017621,2.672588324378842
10.144493392070485,2.3260885719247697
10.177863436123348,1.9295571663452407
10.211233480176212,1.4861235079567676
10.244603524229076,0.974398473455372
10.277973568281938,0.38288589237430554
10.311343612334802,-0.2617242117747286
10.344713656387665,-0.8875739524268372
10.378083700440529,-1.3964814127499694
10.411453744493393,-1.7005938078044363
10.444823788546255,-1.7599414304720176
10.47819383259912,-1.6027917840228996
10.511563876651982,-1.3180545881491585
10.544933920704846,-1.0217608870563941
10.57830396475771,-0.8118593185321461
10.611674008810573,-0.7312565995102621
10.645044052863437,-0.7553248740235357
10.678414096916299,-0.8088315300451204
10.711784140969163,-0.803906669673438
10.745154185022027,-0.6814974404820822
10.77852422907489,-0.43776356665936306
10.811894273127754,-0.1242162671519139
10.845264317180618,0.17734436160763803
10.87863436123348,0.39243383026529244
10.912004405286345,0.48583288635227023
10.945374449339207,0.47299804240223864
10.978744493392071,0.4066678235037568
11.012114537444935,0.3469063047580843
11.045484581497798,0.3307272939201881
11.078854625550662,0.3567740370910364
11.112224669603524,0.39198575137423086
11.145594713656388,0.39552721382480854
11.178964757709252,0.34654962489791097
11.212334801762115,0.26076082439937653
11.245704845814979,0.18673436526527404
11.279074889867841,0.18321030902501123
11.312444933920705,0.2882815999429222
11.34581497797357,0.4956917099173252
11.379185022026432,0.7503605961626723
11.412555066079296,0.966165530288228
11.445925110132158,1.0584293664692215
11.479295154185023,0.9767778446490827
11.512665198237887,0.7241917455397943
11.546035242290749,0.3546645010051155
11.579405286343613,-0.04868486218197965
11.612775330396476,-0.40524030123549637
11.64614537444934,-0.664993061816906
11.679515418502204,-0.8217492926554869
11.712885462555066,-0.9063556166286235
11.74625550660793,-0.9633089400818705
11.779625550660793,-1.0216686111593287
11.812995594713657,-1.0746034277308667
11.846365638766521,-1.0789972758352682
11.879735682819383,-0.97758562705617
11.913105726872248,-0.7345121577513849
11.94647577092511,-0.36659452872639164
11.979845814977974,0.047818347283677246
12.013215859030838,0.3911071152054386
12.0465859030837,0.5529799867495468
12.079955947136565,0.48085713673446656
12.113325991189427,0.20922154834238363
12.146696035242291,-0.14847191106621882
12.180066079295155,-0.4442306482511171
12.213436123348018,-0.5572731876767544
12.246806167400882,-0.44489333268806525
12.280176211453744,-0.15866766103674412
12.313546255506608,0.18173124221481907
12.346916299559473,0.44495222901073145
12.380286343612335,0.5482717687495278
12.413656387665199,0.4937694567543173
12.447026431718061,0.3639194899450026
12.480396475770926,0.27932040449194867
12.51376651982379,0.3388154185112582
12.547136563876652,0.5698722938900159
12.580506607929516,0.9116093836471231
12.613876651982379,1.2374926539863564
12.647246696035243,1.4070380491170487
12.680616740088107,1.3237373366546321
12.71398678414097,0.9746305288693091
12.747356828193833,0.4355447113462943
12.780726872246696,-0.1590779187391342
12.81409691629956,-0.6679990658370488
12.847466960352424,-0.9942556241907289
12.880837004405286,-1.1142009776628987
12.91420704845815,-1.0735508557296927
12.947577092511013,-0.9544808146361212
12.980947136563877,-0.8308202493614902
13.014317180616741,-0.7333506075289654
13.047687224669604,-0.6416804231861228
13.081057268722468,-0.5056462895851835
13.11442731277533,-0.2841848995273803
13.147797356828194,0.01943001659585843
13.181167400881058,0.3455292614935553
13.21453744493392,0.5971018157424282
13.247907488986785,0.6819385009450664
13.281277533039647,0.557624207676598
13.314647577092511,0.25698463290203344
13.348017621145376,-0.11926738996677988
13.381387665198238,-0.44011584974609863
13.414757709251102,-0.5950539389189635
13.448127753303964,-0.5353807762237095
13.481497797356829,-0.2887747286168338
13.514867841409693,0.0567283493574395
13.548237885462555,0.3894731806529535
13.58160792951542,0.6144320714212849
13.614977973568282,0.6813026704731686
13.648348017621146,0.5926199165604544
13.68171806167401,0.39303998847987925
13.715088105726872,0.14703877627977788
13.748458149779736,-0.08575931791505034
13.781828193832599,-0.2694607845284778
13.815198237885463,-0.39940300667431455
13.848568281938327,-0.4961538786280742
13.88193832599119,-0.5882908106423224
13.915308370044054,-0.6910246457031276
13.948678414096916,-0.7909089342245499
13.98204845814978,-0.8457720948737614
14.015418502202644,-0.8025016724482495
14.048788546255507,-0.6256688304898261
14.08215859030837,-0.3224232033472057
14.115528634361233,0.05123724185543559
14.148898678414097,0.4093120224218823
14.182268722466961,0.672824844609901
14.215638766519824,0.8069029033713353
14.249008810572688,0.8376342983144596
14.28237885462555,0.8376193874360656
14.315748898678414,0.885557604415407
14.349118942731279,1.0200991321558084
14.382488986784141,1.2128458337319707
14.415859030837005,1.376398706959964
14.449229074889868,1.4050218562540593
14.482599118942732,1.2277396593550314
14.515969162995596,0.8464508798949665
14.549339207048458,0.3391301130749814
14.582709251101322,-0.17362320145586263
14.616079295154185,-0.5814269076676376
14.649449339207049,-0.8294142298274482
14.682819383259913,-0.9336102893530739
14.716189427312775,-0.9601302249982467
14.74955947136564,-0.981053141547985
14.782929515418502,-1.03190740893201
14.816299559471366,-1.0943174335990387
14.84966960352423,-1.1130298539417585
14.883039647577093,-1.0368131062635888
14.916409691629957,-0.8585534088578303
14.94977973568282,-0.6296425948944441
14.983149779735683,-0.43819973934092726
15.016519823788547,-0.36187728122206136
15.04988986784141,-0.4216674275913241
15.083259911894274,-0.563786239422537
15.116629955947138,-0.6815770333721655
15.15,-0.6669885374269762
15.183370044052865,-0.46443536340784963
15.216740088105727,-0.09834984532472607
15.250110132158591,0.3397722605473677
15.283480176211455,0.7369428468751242
15.316850220264318,1.0117997169229693
15.350220264317182,1.1472864507640366
15.383590308370044,1.1872750438997401
15.416960352422908,1.2016212332358238
15.450330396475772,1.2405911037517674
15.483700440528635,1.3037646606010092
15.517070484581499,1.3391483755241798
15.550440528634361,1.271444967807353
15.583810572687225,1.0436619796765056
15.61718061674009,0.6507837499579672
15.650550660792952,0.1496807769161418
15.683920704845816,-0.3582930967076434
15.717290748898678,-0.7631963366204547
15.750660792951543,-0.9851677238638854
15.784030837004407,-1.000685304120731
15.817400881057269,-0.8475613862323574
15.850770925110133,-0.6084062704864275
15.884140969162996,-0.3797990082507287
15.91751101321586,-0.23875552150016732
15.950881057268724,-0.2184289023705185
15.984251101321586,-0.3013212595099018
16.01762114537445,-0.43160018539175443
16.050991189427315,-0.5406369986394993
16.084361233480177,-0.5747398161491155
16.11773127753304,-0.5137758259542378
16.151101321585905,-0.37421572830690375
16.184471365638768,-0.1975747855958151
16.21784140969163,-0.031360595273483234
16.251211453744492,0.08846939801616588
16.284581497797358,0.14717684794997227
16.31795154185022,0.15160671223053707
16.351321585903083,0.12394197860975613
16.38469162995595,0.0928903436216571
16.41806167400881,0.08510476839316684
16.451431718061674,0.11771642839215772
16.48480176211454,0.19225739480845472
16.518171806167402,0.29143664729839985
16.551541850220264,0.3816811660256381
16.584911894273127,0.42376228737369515
16.618281938325993,0.39016638835128914
16.651651982378855,0.2826743661486765
16.685022026431717,0.14041224154735713
16.718392070484583,0.03067019531315809
16.751762114537446,0.02245985629320334
16.785132158590308,0.15263386945298074
16.818502202643174,0.40070556435690613
16.851872246696036,0.6867618331530507
16.8852422907489,0.8968628616838399
16.91861233480176,0.9267843626404694
16.951982378854627,0.7250570695571998
16.98535242290749,0.31558804110213273
17.01872246696035,-0.2105327400054745
17.052092511013218,-0.7298138069978327
17.08546255506608,-1.1312543982113161
17.118832599118942,-1.3513760503989751
17.152202643171808,-1.3860712842966247
17.18557268722467,-1.2783711648845102
17.218942731277533,-1.0921606314217174
17.2523127753304,-0.8857517223923153
17.28568281938326,-0.6954537326478326
17.319052863436124,-0.5318386651360096
17.352422907488986,-0.3854539199266297
17.385792951541852,-0.2369281702190802
