Frequency (Hz),Amplitude
0.0,1.9996396781725658
0.019867549668874173,1.9997399103981564
0.039735099337748346,2.0000401873564018
0.059602649006622516,2.0005392520423877
0.07947019867549669,2.001235016598644
0.09933774834437085,2.0021245729783352
0.11920529801324503,2.0032042077489023
0.13907284768211922,2.004469420913662
0.15894039735099338,2.0059149485975407
0.17880794701986755,2.0075347894133926
0.1986754966887417,2.0093222342995842
0.2185430463576159,2.011269899595607
0.23841059602649006,2.0133697631032215
0.2582781456953642,2.015613202863742
0.27814569536423844,2.0179910383698783
0.2980132450331126,2.0204935739213683
0.31788079470198677,2.0231106438282964
0.33774834437086093,2.0258316591641585
0.3576158940397351,2.028645655772264
0.3774834437086093,2.031541343233432
0.3973509933774834,2.0345071545102407
0.4172185430463576,2.0375312959929097
0.4370860927152318,2.040601797683704
0.45695364238410596,2.043706563270243
0.4768211920529801,2.046833419853305
0.49668874172185434,2.049970167110647
0.5165562913907285,2.0531046256953203
0.5364238410596026,2.0562246846839387
0.5562913907284769,2.0593183479080315
0.5761589403973509,2.062373779018498
0.5960264900662252,2.0653793451501534
0.6158940397350993,2.0683236590695597
0.6357615894039735,2.0711956197047847
0.6556291390728477,2.073984450970366
0.6754966887417219,2.0766797388142995
0.695364238410596,2.079271466426386
0.7152317880794702,2.0817500475586974
0.7350993377483444,2.084106357919148
0.7549668874172186,2.0863317646081114
0.7748344370860927,2.088418153576066
0.7947019867549668,2.0903579550869775
0.8145695364238411,2.0921441671778163
0.8344370860927152,2.093770377109301
0.8543046357615894,2.0952307808066704
0.8741721854304636,2.0965202002920442
0.8940397350993378,2.0976340991121045
0.9139072847682119,2.098568595765752
0.9337748344370861,2.0993204751373717
0.9536423841059603,2.0998871979410163
0.9735099337748344,2.10026690818061
0.9933774834437087,2.10045843863021
1.0132450331125828,2.1004613143372866
1.033112582781457,2.1002757541504007
1.0529801324503312,2.099902670271418
1.0728476821192052,2.0993436658303257
1.0927152317880795,2.0986010304794394
1.1125827814569538,2.0976777340021626
1.1324503311258278,2.0965774179303223
1.1523178807947019,2.095304385162776
1.1721854304635762,2.093863587577776
1.1920529801324504,2.092260611631097
1.2119205298013245,2.090501661932512
1.2317880794701985,2.0885935427940607
1.2516556291390728,2.086543637745449
1.271523178807947,2.0843598870143794
1.2913907284768211,2.082050762973013
1.3112582781456954,2.0796252435562836
1.3311258278145695,2.077092783662895
1.3509933774834437,2.0744632845567557
1.370860927152318,2.071747061293799
1.390728476821192,2.0689548082081006
1.410596026490066,2.066097562501348
1.4304635761589404,2.063186665990483
1.4503311258278146,2.0602337250810407
1.4701986754966887,2.0572505690470106
1.4900662251655628,2.0542492067125395
1.5099337748344372,2.0512417816463313
1.5298013245033113,2.048240525995962
1.5496688741721854,2.045257713106273
1.5695364238410596,2.0423056090833906
1.5894039735099337,2.039396423483942
1.609271523178808,2.036542259326307
1.6291390728476822,2.0337550626388237
1.6490066225165563,2.0310465717759416
1.6688741721854303,2.0284282667499807
1.6887417218543048,2.0259113188401154
1.7086092715231789,2.0235065407536603
1.728476821192053,2.0212243376253163
1.7483443708609272,2.019074659148806
1.7682119205298013,2.0170669531411347
1.7880794701986755,2.0152101208425517
1.8079470198675496,2.013512474254921
1.8278145695364238,2.011981695817153
1.847682119205298,2.0106248007090004
1.8675496688741722,2.0094481020629504
1.8874172185430464,2.0084571793490937
1.9072847682119205,2.0076568501788787
1.9271523178807946,2.007051145751499
1.9470198675496688,2.0066432901409854
1.9668874172185429,2.0064356835933572
1.9867549668874174,2.006429889972039
2.0066225165562916,2.0066266284562935
2.0264900662251657,2.0070257695622953
2.0463576158940397,2.007626335520332
2.066225165562914,2.0084265050049144
2.086092715231788,2.0094236221778696
2.1059602649006623,2.0106142099686295
2.1258278145695364,2.011993987481032
2.1456953642384105,2.013557891383153
2.165562913907285,2.0153001011059235
2.185430463576159,2.0172140676482875
2.205298013245033,2.019292545761856
2.2251655629139075,2.0215276292663926
2.2450331125827816,2.0239107892295762
2.2649006622516556,2.026432914730253
2.2847682119205297,2.0290843559138123
2.3046357615894038,2.0318549690416257
2.324503311258278,2.0347341632332734
2.3443708609271523,2.0377109486005205
2.364238410596027,2.040773985475525
2.384105960264901,2.0439116344420203
2.403973509933775,2.04711200688739
2.423841059602649,2.0503630158046233
2.443708609271523,2.0536524265865315
2.463576158940397,2.056967907569113
2.4834437086092715,2.060297080097127
2.5033112582781456,2.063627567901602
2.52317880794702,2.066947045596294
2.543046357615894,2.0702432861177975
2.562913907284768,2.073504206951251
2.5827814569536423,2.0767179150009705
2.6026490066225163,2.079872749981852
2.622516556291391,2.0829573262232413
2.642384105960265,2.08596057279225
2.662251655629139,2.088871771857316
2.6821192052980134,2.0916805952259705
2.7019867549668874,2.0943771390025687
2.7218543046357615,2.0969519563225076
2.741721854304636,2.0993960881288434
2.76158940397351,2.101701091965714
2.781456953642384,2.1038590687699648
2.801324503311258,2.105862687648601
2.821192052980132,2.1077052086345893
2.8410596026490067,2.109380503417535
2.8609271523178808,2.1108830740488216
2.8807947019867552,2.1122080696230037
2.9006622516556293,2.1133513009385747
2.9205298013245033,2.1143092531420775
2.9403973509933774,2.1150790963594366
2.9602649006622515,2.1156586943181215
2.9801324503311255,2.1160466109627127
3.0,2.1162421150653428
3.0198675496688745,2.11624518283084
3.0397350993377485,2.1160564984948986
3.0596026490066226,2.115677452911559
3.0794701986754967,2.1151101401248273
3.0993377483443707,2.114357351917261
3.119205298013245,2.113422570327076
3.1390728476821192,2.112309958123914
3.1589403973509933,2.1110243472326142
3.1788079470198674,2.1095712250938434
3.198675496688742,2.107956718950523
3.218543046357616,2.106187578049767
3.23841059602649,2.1042711537514354
3.2582781456953644,2.102215377536611
3.2781456953642385,2.1000287369126407
3.2980132450331126,2.0977202492151967
3.3178807947019866,2.095299433313332
3.3377483443708607,2.0927762792294264
3.3576158940397347,2.0901612156937466
3.3774834437086096,2.0874650756616973
3.3973509933774837,2.0846990598320794
3.4172185430463577,2.081874698215598
3.437086092715232,2.079003809815592
3.456953642384106,2.0760984604964694
3.47682119205298,2.0731709191302596
3.4966887417218544,2.070233612127678
3.5165562913907285,2.067299076476912
3.5364238410596025,2.0643799114311387
3.556291390728477,2.061488729004044
3.576158940397351,2.0586381034513757
3.596026490066225,2.055840519935441
3.615894039735099,2.053108322588011
3.6357615894039736,2.050453662205514
3.6556291390728477,2.047888443827639
3.6754966887417218,2.0454242744666895
3.695364238410596,2.043072411269568
3.7152317880794703,2.040843710407043
3.7350993377483444,2.038748576995028
3.754966887417219,2.0367969163603163
3.774834437086093,2.0349980869675233
3.794701986754967,2.033360855325367
3.814569536423841,2.0318933531875083
3.834437086092715,2.030603037357326
3.854304635761589,2.029496652395271
3.8741721854304636,2.0285801965135124
3.8940397350993377,2.0278588909242177
3.9139072847682117,2.0273371528857465
3.9337748344370858,2.0270185726654235
3.9536423841059607,2.026905894608564
3.9735099337748347,2.027001002471454
3.993377483443709,2.0273049091416224
4.013245033112583,2.027817750832367
4.033112582781457,2.0285387858008304
4.052980132450331,2.029466397600237
4.072847682119205,2.030598102838531
4.0927152317880795,2.031930563377237
4.112582781456953,2.0334596028674805
4.132450331125828,2.035180227484813
4.152317880794702,2.03708665069124
4.172185430463576,2.039172321822737
4.19205298013245,2.041429958273113
4.211920529801325,2.0438515810215554
4.231788079470199,2.046428553231087
4.251655629139073,2.0491516216290795
4.271523178807947,2.052010960368892
4.291390728476821,2.054996217063412
4.311258278145695,2.058096560676956
4.33112582781457,2.061300730961337
4.3509933774834435,2.06459708912469
4.370860927152318,2.0679736694274755
4.390728476821192,2.0714182314090763
4.410596026490066,2.074918312459491
4.43046357615894,2.078461280464116
4.450331125827815,2.0820343862647093
4.470198675496689,2.0856248156961055
4.490066225165563,2.089219740975596
4.509933774834438,2.092806371240264
4.529801324503311,2.096372002045379
4.549668874172186,2.0999040636560014
4.569536423841059,2.1033901679813116
4.589403973509934,2.1068181540193405
4.6092715231788075,2.110176131696146
4.629139072847682,2.1134525239996846
4.649006622516556,2.1166361073235858
4.66887417218543,2.1197160499495165
4.688741721854305,2.122681948609889
4.708609271523179,2.1255238630837185
4.728476821192054,2.1282323487886496
4.748344370860927,2.13079848734114
4.768211920529802,2.1332139150643012
4.788079470198675,2.1354708494294363
4.80794701986755,2.137562113422668
4.827814569536423,2.1394811578321695
4.847682119205298,2.141222081454888
4.867549668874172,2.142779649223848
4.887417218543046,2.14414930825874
4.9072847682119205,2.14532720184297
4.927152317880794,2.1463101813306045
4.947019867549669,2.147095815985999
4.966887417218543,2.1476824007578696
4.986754966887418,2.148068961988096
5.006622516556291,2.148255261053881
5.026490066225166,2.148241795939875
5.04635761589404,2.148029800734816
5.066225165562914,2.1476212430450414
5.086092715231788,2.1470188193154423
5.105960264900662,2.146225948046099
5.125827814569536,2.1452467608916943
5.14569536423841,2.144086091629131
5.1655629139072845,2.1427494629781156
5.185430463576159,2.141243071259247
5.205298013245033,2.1395737688742136
5.225165562913908,2.1377490445941194
5.245033112582782,2.135777001643729
5.264900662251656,2.133666333572177
5.28476821192053,2.1314262979048104
5.304635761589404,2.129066687575699
5.324503311258278,2.1265978001464325
5.344370860927152,2.1240304048245795
5.364238410596027,2.121375707303631
5.3841059602649,2.1186453124566267
5.403973509933775,2.1158511849271355
5.4238410596026485,2.1130056076741015
5.443708609271523,2.110121138541576
5.463576158940397,2.107210564939746
5.483443708609272,2.104286856740806
5.503311258278146,2.101363117511041
5.52317880794702,2.0984525342195126
5.543046357615895,2.0955683255837045
5.562913907284768,2.0927236892325
5.582781456953643,2.0899317478878108
5.602649006622516,2.0872054947866
5.622516556291391,2.0845577385852825
5.642384105960264,2.082001048008194
5.662251655629139,2.079547696519843
5.682119205298013,2.077209607317902
5.701986754966887,2.0749982989582216
5.7218543046357615,2.072924831936036
5.741721854304636,2.0709997565567355
5.7615894039735105,2.069233062436112
5.781456953642384,2.06763412997269
5.801324503311259,2.0662116841335645
5.821192052980132,2.06497375089013
5.841059602649007,2.0639276166301856
5.860927152317881,2.063079790859337
5.880794701986755,2.062435972486075
5.900662251655629,2.0620010199624264
5.920529801324503,2.0617789255254233
5.940397350993377,2.0617727937543457
5.960264900662251,2.061984824624715
5.980132450331126,2.0624163012038217
6.0,2.0630675820930104
6.0198675496688745,2.063938098682036
6.039735099337749,2.0650263572386174
6.059602649006623,2.0663299458145343
6.079470198675497,2.0678455459081224
6.099337748344371,2.0695689487821545
6.119205298013245,2.0714950762977855
6.139072847682119,2.0736180060882
6.158940397350993,2.07593100086249
6.178807947019867,2.07842654159982
6.198675496688741,2.081096364367592
6.218543046357616,2.083931500474791
6.23841059602649,2.086922319653698
6.258278145695365,2.090058575949067
6.2781456953642385,2.0933294559845157
6.298013245033113,2.0967236292704396
6.317880794701987,2.1002293002167494
6.337748344370861,2.1038342615158965
6.357615894039735,2.107525948568275
6.377483443708609,2.1112914946307155
6.397350993377484,2.11511778638141
6.417218543046357,2.1189915196083597
6.437086092715232,2.1228992547450822
6.456953642384105,2.126827471995021
6.47682119205298,2.130762625804827
6.496688741721854,2.1346911984663346
6.516556291390729,2.1385997526470657
6.5364238410596025,2.142474982668687
6.556291390728477,2.1463037643728433
6.5761589403973515,2.150073203432407
6.596026490066225,2.1537706819847613
6.6158940397351,2.1573839034808215
6.635761589403973,2.160900935659691
6.655629139072848,2.164310251573873
6.675496688741721,2.1676007686033985
6.695364238410596,2.1707618854096435
6.715231788079469,2.1737835167904715
6.735099337748344,2.1766561264078232
6.754966887417219,2.179370757367075
6.774834437086093,2.181919060634292
6.794701986754967,2.1842933212833264
6.814569536423841,2.186486482568878
6.8344370860927155,2.1884921678251357
6.854304635761589,2.1903047001920233
6.874172185430464,2.1919191201722454
6.894039735099337,2.193331201023037
6.913907284768212,2.1945374619863616
6.933774834437086,2.1955351793603692
6.95364238410596,2.196322395413648
6.973509933774834,2.196897925141897
6.993377483443709,2.1972613608646556
7.013245033112583,2.1974130746569815
7.033112582781457,2.1973542186088615
7.052980132450331,2.1970867229019815
7.072847682119205,2.1966132916914063
7.0927152317880795,2.1959373967769333
7.112582781456954,2.195063269046918
7.132450331125828,2.193995887675365
7.152317880794702,2.1927409670520848
7.172185430463576,2.1913049414242716
7.19205298013245,2.1896949472285576
7.211920529801324,2.1879188030926042
7.231788079470198,2.1859849874872457
7.251655629139073,2.1839026140126143
7.271523178807947,2.181681404305464
7.291390728476822,2.1793316585597053
7.311258278145695,2.1768642236585647
7.33112582781457,2.174290458924125
7.3509933774834435,2.1716221994994185
7.370860927152318,2.168871717388527
7.390728476821192,2.1660516801926337
7.410596026490066,2.163175107593536
7.430463576158941,2.160255325651572
7.450331125827814,2.1573059190018853
7.470198675496689,2.154340681051176
7.490066225165562,2.151373562296969
7.509933774834438,2.148418616912206
7.52980132450331,2.1454899477600873
7.549668874172186,2.142601650026638
7.569536423841059,2.13976775368162
7.589403973509934,2.1370021650018716
7.6092715231788075,2.1343186074139964
7.629139072847682,2.1317305619359477
7.649006622516557,2.129251207517996
7.66887417218543,2.126893361603622
7.6887417218543055,2.1246694212482002
7.708609271523178,2.1225913051484944
7.728476821192054,2.1206703969479195
7.748344370860927,2.1189174901910115
7.768211920529802,2.1173427353049235
7.788079470198675,2.1159555889862043
7.80794701986755,2.1147647663664264
7.827814569536423,2.113778196321088
7.847682119205298,2.1130029802722623
7.8675496688741715,2.112445354815695
7.887417218543046,2.1121106584797094
7.907284768211921,2.1120033028941
7.927152317880795,2.1121267486142483
7.9470198675496695,2.112483485808904
7.966887417218543,2.1130750199794655
7.986754966887418,2.113901862835843
8.006622516556291,2.1149635284086
8.026490066225167,2.116258534430865
8.046357615894038,2.117784408976689
8.066225165562914,2.1195377022956587
8.086092715231787,2.1215140037386515
8.105960264900663,2.1237079636255896
8.125827814569536,2.126113319865363
8.14569536423841,2.128722929100333
8.165562913907285,2.1315288021137717
8.185430463576159,2.134522143208942
8.205298013245034,2.137693393243256
8.225165562913906,2.141032275980644
8.245033112582782,2.144527847409763
8.264900662251655,2.1481685476648305
8.28476821192053,2.151942255180431
8.304635761589404,2.1558363427099883
8.324503311258278,2.159837734840954
8.344370860927151,2.1639329666465015
8.364238410596027,2.168108243124268
8.3841059602649,2.1723494990861116
8.403973509933774,2.1766424591791957
8.42384105960265,2.180972697737054
8.443708609271523,2.1853256981792373
8.463576158940398,2.1896869116993707
8.483443708609272,2.1940418150035117
8.503311258278146,2.198375966882586
8.52317880794702,2.202675063425358
8.543046357615895,2.2069249916996982
8.562913907284768,2.211111881751469
8.582781456953642,2.2152221567901376
8.602649006622515,2.2192425814496417
8.62251655629139,2.2231603080304545
8.642384105960264,2.226962920645393
8.66225165562914,2.2306384772064987
8.682119205298013,2.234175549203475
8.701986754966887,2.2375632592361994
8.721854304635762,2.240791316273854
8.741721854304636,2.2438500486218595
8.76158940397351,2.2467304345852672
8.781456953642383,2.2494241308228826
8.801324503311259,2.2519234983910352
8.821192052980132,2.2542216264790924
8.841059602649008,2.2563123538411913
8.86092715231788,2.258190287929572
8.880794701986755,2.259850821735172
8.90066225165563,2.261290148340681
8.920529801324504,2.262505273189674
8.940397350993377,2.2634940240736805
8.960264900662251,2.2642550588366728
8.980132450331126,2.264787870793341
9.0,2.2650927918548325
9.019867549668875,2.2651709933519415
9.039735099337747,2.2650244845427734
9.059602649006623,2.2646561087881527
9.079470198675496,2.264069537375394
9.099337748344372,2.263269260967726
9.119205298013245,2.2622605786543577
9.139072847682119,2.2610495845741925
9.158940397350994,2.259643152084596
9.178807947019868,2.2580489154462264
9.198675496688743,2.2562752489949114
9.218543046357615,2.254331243772899
9.23841059602649,2.2522266815940375
9.258278145695364,2.2499720065210456
9.27814569536424,2.2475782937379516
9.298013245033111,2.2450572158071287
9.317880794701987,2.2424210063083607
9.33774834437086,2.2396824208670667
9.357615894039736,2.2368546955902704
9.37748344370861,2.2339515029419736
9.397350993377483,2.230986905104917
9.417218543046358,2.2279753048925213
9.437086092715232,2.2249313942936646
9.456953642384107,2.221870100753477
9.47682119205298,2.218806531315475
9.496688741721854,2.2157559147742125
9.516556291390728,2.2127335420122436
9.536423841059603,2.209754704721625
9.556291390728477,2.20683463273625
9.57615894039735,2.2039884302287334
9.596026490066224,2.201231011051957
9.6158940397351,2.1985770335318917
9.635761589403973,2.1960408350430227
9.655629139072847,2.1936363667213175
9.675496688741722,2.1913771286905694
9.695364238410596,2.1892761061962123
9.715231788079471,2.187345707055504
9.735099337748345,2.185597700843754
9.754966887417218,2.1840431602424926
9.774834437086092,2.1826924049769048
9.794701986754967,2.1815549487658963
9.814569536423841,2.1806394496984205
9.834437086092716,2.1799536644345796
9.854304635761588,2.179504406608744
9.874172185430464,2.1792975097850897
9.894039735099337,2.1793377952838733
9.913907284768213,2.179629045159106
9.933774834437086,2.1801739805664258
9.95364238410596,2.1809742457141446
9.973509933774835,2.1820303975410633
9.993377483443709,2.18334190121327
10.013245033112582,2.1849071314789392
10.033112582781456,2.1867233798666508
10.052980132450331,2.1887868676594056
10.072847682119205,2.1910927645245777
10.09271523178808,2.193635212630516
10.112582781456952,2.1964073560336037
10.132450331125828,2.1994013750770214
10.152317880794701,2.2026085255038406
10.172185430463577,2.2060191819536814
10.192052980132452,2.209622885484151
10.211920529801324,2.21340839473563
10.2317880794702,2.2173637403410673
10.251655629139073,2.2214762821714853
10.271523178807948,2.2257327690020565
10.29139072847682,2.230119400183222
10.311258278145695,2.2346218889060094
10.331125827814569,2.2392255266595393
10.350993377483444,2.243915248491743
10.370860927152318,2.248675698700917
10.390728476821192,2.253491296604769
10.410596026490065,2.258346302055587
10.43046357615894,2.2632248803933144
10.450331125827816,2.268111166553139
10.470198675496688,2.2729893280692526
10.490066225165563,2.2778436267423
10.509933774834437,2.28265847876302
10.529801324503312,2.28741851310961
10.549668874172186,2.2921086280599443
10.56953642384106,2.2967140456825916
10.589403973509933,2.3012203641917717
10.609271523178808,2.3056136080710137
10.629139072847682,2.309880275888469
10.649006622516556,2.314007385742798
10.66887417218543,2.3179825182933156
10.688741721854305,2.3217938573404098
10.70860927152318,2.3254302279333157
10.728476821192054,2.328881131991311
10.748344370860927,2.3321367814319522
10.7682119205298,2.3351881288057434
