Frequency (Hz),Amplitude
0.0,4.512754713466594
0.020066889632107024,4.5192135768977195
0.04013377926421405,4.538509723384579
0.060200668896321065,4.570405309579844
0.0802675585284281,4.614515191595183
0.10033444816053512,4.670322607335627
0.12040133779264213,4.737198936941178
0.14046822742474915,4.814425809373066
0.1605351170568562,4.901217851074237
0.1806020066889632,4.996744605675334
0.20066889632107024,5.100150512391899
0.22073578595317725,5.210572231527019
0.24080267558528426,5.327152980499656
0.2608695652173913,5.449053850292295
0.2809364548494983,5.575462292491078
0.3010033444816054,5.705598102860688
0.3210702341137124,5.838717291990546
0.34113712374581934,5.974114245056437
0.3612040133779264,6.111122549142993
0.3812709030100334,6.24911482305216
0.4013377926421405,6.3875018324801704
0.42140468227424743,6.525731120588595
0.4414715719063545,6.663285334960684
0.4615384615384615,6.799680389081265
0.4816053511705685,6.934463560615287
0.5016722408026756,7.06721159974846
0.5217391304347826,7.197528898033971
0.5418060200668896,7.325045750680431
0.5618729096989966,7.449416732091514
0.5819397993311036,7.570319194857886
0.6020066889632107,7.687451895544738
0.6220735785953176,7.800533745873162
0.6421404682274248,7.909302684739395
0.6622073578595318,8.013514664540395
0.6822742474916387,8.11294274415454
0.7023411371237458,8.20737628041812
0.7224080267558528,8.296620209855
0.7424749163879598,8.380494412621932
0.7625418060200668,8.458833151024091
0.7826086956521738,8.531484575461985
0.802675585284281,8.598310291240495
0.8227424749163879,8.659184980267774
0.8428093645484949,8.713996072271943
0.862876254180602,8.762643460751464
0.882943143812709,8.805039259441779
0.903010033444816,8.84110759562058
0.923076923076923,8.870784437086073
0.9431438127090299,8.894017450126624
0.963210702341137,8.910765886257938
0.983277591973244,8.92100049593911
1.0033444816053512,8.924703467894076
1.0234113712374582,8.921868393064917
1.0434782608695652,8.912500252611903
1.0635451505016722,8.896615429756858
1.0836120401337792,8.87424174564542
1.1036789297658862,8.845418519785067
1.1237458193979932,8.810196656003505
1.1438127090301002,8.768638755270599
1.1638795986622072,8.720819257140906
1.1839464882943145,8.666824612006932
1.2040133779264215,8.606753486808811
1.2240802675585283,8.540717007327565
1.2441471571906353,8.468839040698116
1.2642140468227423,8.391256522315148
1.2842809364548495,8.308119831868447
1.3043478260869565,8.219593223829493
1.3244147157190636,8.12585531830905
1.3444816053511706,8.02709965880108
1.3645484949832773,7.92353534389824
1.3846153846153846,7.815387740573961
1.4046822742474916,7.702899287024698
1.4247491638795986,7.58633039328381
1.4448160535117056,7.465960447755674
1.4648829431438126,7.342088937342057
1.4849498327759196,7.215036687760467
1.5050167224080266,7.085147228746098
1.5250836120401337,6.952788285770573
1.5451505016722407,6.818353395296841
1.5652173913043477,6.682263633909737
1.5852842809364547,6.544969442287383
1.605351170568562,6.406952512158104
1.625418060200669,6.268727687264242
1.6454849498327757,6.130844807007884
1.6655518394648827,5.993890392999923
1.6856187290969897,5.858489043497737
1.705685618729097,5.725304358511575
1.725752508361204,5.595039169910999
1.745819397993311,5.468434798384894
1.765886287625418,5.34626900702805
1.7859531772575248,5.229352277064527
1.806020066889632,5.118522005827372
1.826086956521739,5.014634235428757
1.846153846153846,4.918552580303553
1.866220735785953,4.831134151092724
1.8862876254180598,4.753212484967364
1.9063545150501673,4.6855777912938645
1.926421404682274,4.62895519067369
1.9464882943143813,4.583982024391307
1.966555183946488,4.55118567450855
1.9866220735785953,4.530963579910374
2.0066889632107023,4.523567180318909
2.026755852842809,4.529091316130203
2.0468227424749164,4.547470155686407
2.0668896321070234,4.578480074010296
2.0869565217391304,4.6217491807742235
2.1070234113712374,4.676772525389446
2.1270903010033444,4.742931512523788
2.1471571906354514,4.819515812887609
2.1672240802675584,4.905746060784867
2.1872909698996654,5.000795846432952
2.2073578595317724,5.103811860031513
2.2274247491638794,5.213931442481822
2.2474916387959865,5.330297175193147
2.267558528428094,5.452068453688045
2.2876254180602005,5.578430217067828
2.3076923076923075,5.708599148008835
2.3277591973244145,5.841827728288356
2.3478260869565215,5.977406550632099
2.367892976588629,6.114665266938551
2.3879598662207355,6.252972511077352
2.408026755852843,6.391735083174397
2.4280936454849495,6.530396629578234
2.4481605351170566,6.668436003427131
2.468227424749164,6.805365447439128
2.4882943143812706,6.940728704161529
2.508361204013378,7.074099129378407
2.5284280936454846,7.205077861070432
2.548494983277592,7.333292078389337
2.568561872909699,7.458393371628836
2.5886287625418056,7.580056234274063
2.608695652173913,7.69797668112271
2.6287625418060196,7.811870991544938
2.648829431438127,7.921474573655514
2.668896321070234,8.026540943090216
2.688963210702341,8.126840808880049
2.709030100334448,8.222161258350212
2.7290969899665547,8.31230503284559
2.749163879598662,8.397089886259504
2.769230769230769,8.476348018713693
2.789297658862876,8.549925578230189
2.809364548494983,8.617682223796221
2.82943143812709,8.679490743814847
2.849498327759197,8.735236724531326
2.869565217391304,8.784818263612241
2.8896321070234112,8.828145724620914
2.9096989966555182,8.86514152867368
2.9297658862876252,8.8957399800747
2.9498327759197323,8.919887123212515
2.9698996655518393,8.937540628461145
2.9899665551839463,8.948669705265116
3.0100334448160533,8.953255041004278
3.0301003344481603,8.951288764635677
3.0501672240802673,8.942774434498576
3.0702341137123748,8.92772705005137
3.0903010033444813,8.906173087688021
3.1103678929765888,8.87815056116288
3.1304347826086953,8.843709107539608
3.1505016722408024,8.802910099977547
3.1705685618729094,8.755826789080977
3.1906354515050164,8.702544474967386
3.210702341137124,8.64316071266373
3.2307692307692304,8.577785553917643
3.250836120401338,8.506541829014918
3.270903010033445,8.429565472726937
3.2909698996655514,8.347005899069236
3.311036789297659,8.259026430131032
3.3311036789297654,8.16580478482637
3.351170568561873,8.067533634005615
3.3712374581939795,7.964421228927865
3.391304347826087,7.856692110597253
3.411371237458194,7.744587907858544
3.4314381270903005,7.628368232360819
3.451505016722408,7.508311678435709
3.471571906354515,7.384716935466446
3.491638795986622,7.2579040192686755
3.511705685618729,7.128215627127799
3.531772575250836,6.996018618132662
3.551839464882943,6.8617056159158984
3.5719063545150496,6.725696724357274
3.591973244147157,6.588441337613559
3.612040133779264,6.45042001327316
3.632107023411371,6.312146360656064
3.652173913043478,6.174168874390537
3.672240802675585,6.037072615527094
3.692307692307692,5.901480607928327
3.712374581939799,5.7680547762978644
3.732441471571906,5.637496204658294
3.752508361204013,5.510544442463281
3.7725752508361197,5.38797553407671
3.7926421404682276,5.270598403208937
3.8127090301003346,5.159249197738637
3.832775919732441,5.054783206539949
3.852842809364548,4.958064015755646
3.872909698996655,4.869949695215254
3.8929765886287626,4.791276010311773
3.9130434782608696,4.722836944194989
3.933110367892976,4.6653631753908265
3.953177257525083,4.619499548866321
3.9732441471571907,4.585782941262422
3.9933110367892977,4.564622173469079
4.013377926421405,4.5562816863946045
4.033444816053511,4.560870514358507
4.053511705685618,4.578337659408532
4.073578595317726,4.608474343807529
4.093645484949833,4.650922904048861
4.113712374581939,4.7051914199097915
4.133779264214047,4.770672665566538
4.153846153846153,4.84666570113608
4.173913043478261,4.932398406608625
4.193979933110368,5.027049455940828
4.214046822742475,5.129768563252991
4.234113712374581,5.239694223375911
4.254180602006689,5.355968545439615
4.274247491638796,5.477749094112994
4.294314381270903,5.604217886707655
4.314381270903009,5.734587844002971
4.334448160535117,5.8681070695190245
4.354515050167224,6.0040613531152225
4.374581939799331,6.141775278008483
4.394648829431437,6.280612271070308
4.414715719063545,6.4199738865020874
4.434782608695651,6.559298560972067
4.454849498327759,6.698060029161289
4.474916387959866,6.835765545158568
4.494983277591973,6.9719540183581685
4.5150501672240795,7.106194142496026
4.535117056856188,7.2380825726668885
4.555183946488294,7.367242186775389
4.575250836120401,7.493320453988315
4.595317725752508,7.615987922510116
4.615384615384615,7.734936831628105
4.635451505016722,7.849879847815191
4.655518394648829,7.960548921198948
4.6755852842809364,8.066694256478764
4.695652173913043,8.168083391061634
4.71571906354515,8.26450037253429
4.735785953177258,8.355745027398864
4.7558528428093645,8.44163231312573
4.775919732441471,8.521991745912652
4.795986622073578,8.596666897006031
4.816053511705686,8.665514950982232
4.8361204013377925,8.728406319965892
4.856187290969899,8.785224308350859
4.8762541806020065,8.835864823171148
4.896321070234113,8.880236125832779
4.916387959866221,8.918258621456873
4.936454849498328,8.949864682597152
4.956521739130435,8.974998504580949
4.976588628762541,8.993615990183367
4.996655518394649,9.005684661781535
5.016722408026756,9.011183599554101
5.036789297658863,9.010103404692982
5.056856187290969,9.002446186984645
5.076923076923077,8.98822557650109
5.096989966555184,8.967466759520228
5.117056856187291,8.940206539176238
5.137123745819398,8.906493421726907
5.157190635451505,8.866387729721353
5.177257525083611,8.819961743761741
5.197324414715719,8.767299874980859
5.217391304347826,8.70849887080666
5.237458193979933,8.643668057058395
5.257525083612039,8.572929619917746
5.277591973244148,8.496418931843849
5.297658862876254,8.414284926049927
5.317725752508361,8.326690524728285
5.337792642140468,8.233813126789084
5.357859531772575,8.135845161452686
5.377926421404682,8.032994714582058
5.397993311036789,7.925486235126064
5.418060200668896,7.813561329418537
5.438127090301003,7.697479651271775
5.458193979933109,7.577519895721231
5.478260869565218,7.453980903791477
5.498327759197324,7.327182884586548
5.518394648829431,7.197468759129672
5.538461538461538,7.065205627387548
5.558528428093646,6.930786355424107
5.578595317725752,6.794631273153117
5.598662207357859,6.657189964098216
5.618729096989966,6.518943116211433
5.638795986622073,6.380404386333584
5.65886287625418,6.242122209431518
5.678929765886288,6.104681456480406
5.698996655518394,5.968704811129836
5.719063545150501,5.834853694911104
5.739130434782608,5.703828524364816
5.759197324414716,5.576368033127136
5.7792642140468224,5.453247341794192
5.799331103678929,5.335274415151085
5.8193979933110365,5.2232845203599725
5.839464882943144,5.118132304771257
5.8595317725752505,5.020681164798345
5.879598662207358,4.931789695027532
5.8996655518394645,4.852295203094101
5.919732441471571,4.782994554825398
5.9397993311036785,4.724622962880831
5.959866220735786,4.677831715027497
5.9799331103678925,4.643166195689878
5.999999999999999,4.621045809724783
6.020066889632107,4.611747492949821
6.040133779264214,4.615394334885735
6.060200668896321,4.631950436113282
6.080267558528428,4.661222524109551
6.100334448160535,4.702868157616921
6.120401337792642,4.756409687269867
6.1404682274247495,4.821252627208933
6.160535117056856,4.896706805727351
6.180602006688963,4.982008622375547
6.200668896321069,5.076342910393307
6.2207357859531776,5.178863217850367
6.240802675585284,5.288709698783138
6.260869565217391,5.4050241771778325
6.280936454849498,5.5269622637914475
6.301003344481605,5.653702644597719
6.321070234113712,5.7844538163246435
6.341137123745819,5.91845862864654
6.361204013377926,6.054997020122329
6.381270903010033,6.1933873232254095
6.40133779264214,6.332986478186019
6.421404682274248,6.473189447937928
6.441471571906354,6.613428075752254
6.461538461538461,6.753169578563355
6.481605351170568,6.891914825537926
6.501672240802676,7.029196514398412
6.521739130434782,7.164577327575647
6.54180602006689,7.297648125989438
6.561872909698996,7.428026219380215
6.581939799331103,7.5553537377777245
6.60200668896321,7.679296118046181
6.622073578595318,7.799540711727771
6.642140468227424,7.9157955149614825
6.662207357859531,8.027788017542239
6.682274247491639,8.135264165770458
6.702341137123746,8.237987432282805
6.722408026755852,8.335737985285368
6.742474916387959,8.4283119493307
6.762541806020066,8.515520749837366
6.782608695652174,8.597190533834661
6.80267558528428,8.673161659842727
6.822742474916388,8.74328825031217
6.842809364548494,8.80743780060559
6.862876254180601,8.865490839077395
6.882943143812709,8.917340633380304
6.903010033444816,8.96289293868355
6.9230769230769225,9.00206578402336
6.94314381270903,9.034789293516802
6.963210702341137,9.061005539655191
6.983277591973244,9.080668426353448
7.0033444816053505,9.093743599870098
7.023411371237458,9.100208386131138
7.0434782608695645,9.100051753394148
7.063545150501672,9.093274299580122
7.083612040133779,9.079888263984035
7.103678929765886,9.059917563455182
7.123745819397993,9.033397853519222
7.143812709030099,9.000376615299727
7.1638795986622075,8.96091326949221
7.183946488294314,8.915079319051939
7.204013377926421,8.862958522682009
7.224080267558528,8.804647101653456
7.2441471571906355,8.740253982957157
7.264214046822742,8.669901082279269
7.2842809364548495,8.593723630808322
7.304347826086956,8.51187055042026
7.324414715719063,8.424504882343038
7.34448160535117,8.33180427496474
7.364548494983278,8.233961537004273
7.384615384615384,8.131185262786975
7.404682274247491,8.02370053682533
7.424749163879598,7.91174972524819
7.444816053511706,7.795593361781257
7.464882943143812,7.6755111358628225
7.48494983277592,7.551802989952954
7.505016722408026,7.42479033198982
7.525083612040134,7.294817367036397
7.545150501672239,7.162252549149714
7.565217391304348,7.0274901500152644
7.585284280936455,6.890951934448333
7.605351170568561,6.753088923892325
7.625418060200669,6.614383216854645
7.645484949832775,6.475349819032428
7.665551839464882,6.336538414863601
7.685618729096991,6.198534985598939
7.705685618729096,6.061963146130757
7.725752508361204,5.92748503357835
7.74581939799331,5.795801535682919
7.765886287625418,5.667651598394435
7.785953177257525,5.543810303587849
7.806020066889631,5.425085366220818
7.826086956521739,5.312311675252583
7.846153846153847,5.206343507471958
7.866220735785952,5.108044093897191
7.88628762541806,5.0182723310655195
7.906354515050166,4.9378666174604104
7.926421404682274,4.8676260626059875
7.946488294314381,4.808289651295395
7.966555183946488,4.76051431490949
7.986622073578595,4.724853209893001
8.006688963210701,4.701735757475452
8.02675585284281,4.6914510841993
8.046822742474916,4.694136365384175
8.066889632107022,4.709771200925918
8.08695652173913,4.738178586944117
8.107023411371236,4.779032380013341
8.127090301003344,4.831870502999334
8.147157190635452,4.896112627470176
8.167224080267557,4.971080765548433
8.187290969899665,5.0560211386906255
8.207357859531772,5.150125834881958
8.227424749163879,5.2525530561120295
8.247491638795987,5.36244511887298
8.267558528428093,5.478943733237787
8.2876254180602,5.601202401838046
8.307692307692307,5.728396022759502
8.327759197324415,5.859727943893587
8.347826086956522,5.994434808154768
8.367892976588628,6.131789563823158
8.387959866220736,6.27110300862667
8.408026755852843,6.4117242051624155
8.42809364548495,6.5530400609974615
8.448160535117056,6.694474318032043
8.468227424749163,6.835486148145015
8.488294314381271,6.975568509037982
8.508361204013378,7.114246377071739
8.528428093645484,7.2510749431141495
8.548494983277592,7.385637832676819
8.568561872909697,7.517545392235012
8.588628762541806,7.646433068791545
8.608695652173914,7.771959898644193
8.628762541806019,7.893807113198364
8.648829431438127,8.011676863881032
8.668896321070234,8.125291064216182
8.68896321070234,8.234390344475079
8.709030100334449,8.338733112668441
8.729096989966555,8.43809471472979
8.749163879598662,8.53226668634277
8.769230769230768,8.621056088832022
8.789297658862875,8.704284921751471
8.809364548494983,8.781789605178703
8.82943143812709,8.853420525198306
8.849498327759196,8.919041636585764
8.869565217391303,8.97853011725637
8.889632107023411,9.031776069600099
8.909698996655518,9.078682264369617
8.929765886287624,9.11916392331704
8.949832775919733,9.153148537281249
8.96989966555184,9.180575716910027
8.989966555183946,9.201397073660573
9.010033444816054,9.21557612915989
9.030100334448159,9.22308825142564
9.050167224080267,9.223920616851812
9.070234113712376,9.218072197255598
9.09030100334448,9.205553771666137
9.110367892976589,9.186387962916205
9.130434782608695,9.160609299478974
9.150501672240802,9.128264303377295
9.17056856187291,9.089411605386832
9.190635451505017,9.044122089160513
9.210702341137123,8.99247906632358
9.23076923076923,8.934578485029132
9.250836120401337,8.870529174925561
9.270903010033445,8.800453131971013
9.290969899665551,8.724485847035394
9.311036789297658,8.642776682755342
9.331103678929765,8.55548930364562
9.351170568561873,8.462802165012505
9.37123745819398,8.364909066744133
9.391304347826086,8.262019778546126
9.411371237458194,8.154360743612889
9.4314381270903,8.042175868026158
9.451505016722408,7.925727403284037
9.471571906354516,7.805296929190969
9.49163879598662,7.681186443754937
9.511705685618729,7.55371956557245
9.531772575250837,7.423242852212026
9.551839464882942,7.290127235044125
9.57190635451505,7.154769566442972
9.591973244147155,7.01759426884491
9.612040133779264,6.879055066230996
9.632107023411372,6.739636766551103
9.652173913043477,6.599857047680337
9.672240802675585,6.460268178914523
9.692307692307692,6.321458584033382
9.712374581939798,6.184054120050245
9.732441471571907,6.048718907825984
9.752508361204013,5.916155507444849
9.77257525083612,5.787104184595011
9.792642140468226,5.662340967993579
9.812709030100335,5.54267415846879
9.832775919732441,5.428938927003241
9.852842809364548,5.321989644337818
9.872909698996656,5.222689633594865
9.89297658862876,5.131898145274447
9.91304347826087,5.050454533265789
9.933110367892976,4.979159865124138
9.953177257525082,4.918756519073714
9.97324414715719,4.869906673389013
9.993311036789297,4.8331709290017315
10.013377926421404,4.808988555369201
10.033444816053512,4.797660942380243
10.053511705685617,4.799339724507055
10.073578595317725,4.814020702769025
10.093645484949834,4.841544161138537
10.113712374581938,4.881601540333861
10.133779264214047,4.933747805258434
10.153846153846153,4.99741833243163
10.17391304347826,5.0719488290013555
10.193979933110368,5.156596704706529
10.214046822742475,5.250562432174223
10.234113712374581,5.35300969314489
10.254180602006688,5.463083447665828
10.274247491638796,5.579925413537211
10.294314381270903,5.70268675496682
10.31438127090301,5.830538024535853
10.334448160535118,5.962676572577703
10.354515050167223,6.098331738142117
10.37458193979933,6.236768178761545
10.394648829431437,6.377287697734769
10.414715719063544,6.519229902251169
10.434782608695652,6.661971985462221
10.454849498327757,6.804927879486488
10.474916387959865,6.9475469802821985
10.494983277591974,7.0893126028989695
10.515050167224079,7.229740288610787
10.535117056856187,7.3683760544176415
10.555183946488295,7.504794650223832
10.5752508361204,7.638597869094491
10.595317725752508,7.7694129406194445
10.615384615384615,7.89689102580162
10.635451505016722,8.02070582330932
10.65551839464883,8.140552290746625
10.675585284280936,8.25614548026186
10.695652173913043,8.367219484886974
10.71571906354515,8.473526490125552
10.735785953177256,8.57483592420572
10.755852842809364,8.670933699871217
10.775919732441471,8.76162154043636
10.795986622073578,8.84671638295508
10.816053511705684,8.926049851660757
10.836120401337793,8.999467795255253
10.856187290969899,9.066829882114943
10.876254180602006,9.128009248005524
10.896321070234114,9.182892191432277
10.916387959866219,9.231377912283966
10.936454849498327,9.27337828994617
10.956521739130435,9.308817697559514
10.97658862876254,9.337632849575943
10.996655518394649,9.35977268022354
11.016722408026755,9.375198250926928
11.036789297658862,9.38388268514952
