Time (s),Filtered Signal
0.0,-0.016957021730917232
0.03337028824833703,-0.038732286755787416
0.06674057649667406,-0.06039759695323743
0.10011086474501109,-0.08401875784752028
0.13348115299334812,-0.11327124131923766
0.16685144124168516,-0.151103217134289
0.20022172949002218,-0.1963281986637715
0.2335920177383592,-0.24134603447912772
0.26696230598669624,-0.2728575640876324
0.3003325942350333,-0.2759132326417601
0.3337028824833703,-0.23982530974875538
0.3670731707317073,-0.16341421781269924
0.40044345898004435,-0.057258336340735565
0.4338137472283814,0.05817615790797493
0.4671840354767184,0.1581183578347397
0.5005543237250555,0.2211269379578357
0.5339246119733925,0.23638733758159267
0.5672949002217295,0.20813211925661998
0.6006651884700666,0.15517818280537246
0.6340354767184035,0.10495988633058455
0.6674057649667406,0.08355202283485724
0.7007760532150776,0.10528205669444624
0.7341463414634146,0.1664279889603408
0.7675166297117517,0.24624918072806487
0.8008869179600887,0.31535893487075434
0.8342572062084257,0.3477264925003575
0.8676274944567628,0.330544847085612
0.9009977827050998,0.26725760466133497
0.9343680709534368,0.17281988075133395
0.9677383592017739,0.06460617178333017
1.001108647450111,-0.04537592644015936
1.0344789356984478,-0.15254976191479142
1.067849223946785,-0.2556285331376715
1.101219512195122,-0.3499144264506049
1.134589800443459,-0.42338591675811854
1.167960088691796,-0.459093916313343
1.2013303769401331,-0.44315742546069475
1.23470066518847,-0.3737088580764274
1.268070953436807,-0.2650438994531411
1.3014412416851442,-0.14372874448410836
1.3348115299334813,-0.03797251000710927
1.3681818181818182,0.03456973932822023
1.4015521064301553,0.07440445704672412
1.4349223946784924,0.09926819854160984
1.4682926829268292,0.13470982858197134
1.5016629711751663,0.1999870167816897
1.5350332594235034,0.29509010411586967
1.5684035476718403,0.3945476148863999
1.6017738359201774,0.45164385983261
1.6351441241685145,0.41332742799596517
1.6685144124168514,0.2420532359495771
1.7018847006651885,-0.06289040871352232
1.7352549889135256,-0.45379334277212974
1.7686252771618625,-0.8401394325675632
1.8019955654101996,-1.1130675460024995
1.8353658536585367,-1.182021900088546
1.8687361419068735,-1.0098489999093943
1.9021064301552106,-0.6308593402057546
1.9354767184035477,-0.14206491183886807
1.9688470066518848,0.33081366201171863
2.002217294900222,0.6791160413451005
2.035587583148559,0.8491286181815944
2.0689578713968957,0.8555453328854101
2.102328159645233,0.7653069757752095
2.13569844789357,0.6606484219997059
2.1690687361419068,0.5997460271483398
2.202439024390244,0.5936157988781268
2.235809312638581,0.6089296828725443
2.269179600886918,0.5930260729406048
2.302549889135255,0.5065414542175725
2.335920177383592,0.34619694245785076
2.369290465631929,0.1464573569615383
2.4026607538802662,-0.03957747211043872
2.436031042128603,-0.1688514250391649
2.46940133037694,-0.23086146208460098
2.5027716186252773,-0.2519843671683483
2.536141906873614,-0.27935551458278374
2.569512195121951,-0.35274403821280204
2.6028824833702884,-0.47920858010152767
2.6362527716186253,-0.6241673725422207
2.6696230598669626,-0.7244042210311419
2.7029933481152995,-0.7174295420638395
2.7363636363636363,-0.5730980908650972
2.7697339246119737,-0.31190330034422875
2.8031042128603105,-0.0008765723498059863
2.8364745011086474,0.27079672982540604
2.8698447893569847,0.4245236007787824
2.9032150776053216,0.4184307552061027
2.9365853658536585,0.25690466584278454
2.969955654101996,-0.01695548531997029
3.0033259423503327,-0.3385820563370934
3.0366962305986696,-0.6394632407848496
3.070066518847007,-0.8592379771928026
3.1034368070953438,-0.9522708652774736
3.1368070953436806,-0.8918559337622611
3.170177383592018,-0.6743908554217753
3.203547671840355,-0.32268870239525843
3.2369179600886917,0.11473948271215995
3.270288248337029,0.5709951719409876
3.303658536585366,0.9741474161597743
3.337028824833703,1.262765446744313
3.37039911308204,1.3985001395804824
3.403769401330377,1.372002293081745
3.437139689578714,1.2013682849771599
3.470509977827051,0.9248370406431369
3.503880266075388,0.5905080301175777
3.537250554323725,0.24559785381399274
3.5706208425720622,-0.07282293496964395
3.603991130820399,-0.3438320953416654
3.637361419068736,-0.5635237668164942
3.6707317073170733,-0.7394315410152705
3.70410199556541,-0.8792299828061786
3.737472283813747,-0.9777014443550253
3.7708425720620844,-1.0087679746014717
3.8042128603104213,-0.9293504003162525
3.8375831485587586,-0.6974548333682576
3.8709534368070955,-0.29924677250897425
3.9043237250554323,0.2272509328942941
3.9376940133037697,0.7860591098867793
3.9710643015521065,1.2429333492842103
4.004434589800444,1.466985620882512
4.037804878048781,1.3783834647014392
4.071175166297118,0.9813062928723691
4.1045454545454545,0.3668418092019422
4.137915742793791,-0.31606847255683496
4.171286031042128,-0.9093134040516992
4.204656319290466,-1.293912584343156
4.238026607538803,-1.4199350718720454
4.27139689578714,-1.3095623985849867
4.304767184035477,-1.0363808334022406
4.3381374722838135,-0.6922940703822096
4.371507760532151,-0.35582537670332526
4.404878048780488,-0.07239659941264016
4.438248337028825,0.14917517534022962
4.471618625277162,0.32624747167351825
4.504988913525499,0.484588606186505
4.538359201773836,0.6409481520883631
4.571729490022173,0.7919405102467214
4.60509977827051,0.9122364630826492
4.638470066518847,0.9621335521141294
4.671840354767184,0.9021656778514419
4.705210643015521,0.7103191980027511
4.738580931263858,0.3958232297976157
4.771951219512196,0.003457650344006189
4.8053215077605325,-0.39497749687057615
4.838691796008869,-0.7202741431135328
4.872062084257206,-0.9095327248933506
4.905432372505543,-0.934676841919876
4.93880266075388,-0.8085663773563586
4.972172949002218,-0.5770038800294264
5.005543237250555,-0.3009129283183229
5.0389135254988915,-0.03655426043233937
5.072283813747228,0.1785136152326281
5.105654101995565,0.3293969220156493
5.139024390243902,0.4182327488272317
5.17239467849224,0.4535801075664476
5.205764966740577,0.4412219924790091
5.239135254988914,0.38141312167752894
5.2725055432372505,0.2737461402480161
5.305875831485587,0.12631286186582974
5.339246119733925,-0.03695385618345192
5.372616407982262,-0.17641217862147573
5.405986696230599,-0.24641247766375335
5.439356984478936,-0.21177344907765455
5.472727272727273,-0.06443592521868834
5.5060975609756095,0.16719527964224928
5.539467849223947,0.4213046613819132
5.572838137472284,0.6185969228172442
5.606208425720621,0.6866899581787199
5.639578713968958,0.5850995599531631
5.672949002217295,0.3219755688387598
5.706319290465632,-0.04436973137758062
5.7396895787139695,-0.4215613020206348
5.773059866962306,-0.7130605025368367
5.806430155210643,-0.8520155091866349
5.83980044345898,-0.8260220861696461
5.873170731707317,-0.6815576535879169
5.906541019955654,-0.5040470680311566
5.939911308203992,-0.3799171886077225
5.9732815964523285,-0.3562108744440695
6.006651884700665,-0.41650950773203643
6.040022172949002,-0.48627222421660976
6.073392461197339,-0.46761093742585924
6.106762749445676,-0.2887474447086539
6.140133037694014,0.055301934148099766
6.173503325942351,0.4914529625801471
6.2068736141906875,0.8935846154044395
6.240243902439024,1.1330272398492904
6.273614190687361,1.131368250114443
6.306984478935698,0.8919354867317859
6.340354767184036,0.49725648150956736
6.373725055432373,0.07578452366420792
6.40709534368071,-0.24604968164567542
6.4404656319290465,-0.3863528964242576
6.473835920177383,-0.329754817803745
6.507206208425721,-0.12393542127089748
6.540576496674058,0.1441425574918591
6.573946784922395,0.38092990694167045
6.607317073170732,0.5155245466443272
6.640687361419069,0.5164143087471403
6.674057649667406,0.39256502140952
6.707427937915743,0.18178140791576367
6.74079822616408,-0.06660057630004144
6.774168514412417,-0.30694151449377366
6.807538802660754,-0.5054877287561433
6.840909090909091,-0.6411602400758558
6.874279379157428,-0.7023499257032193
6.9076496674057655,-0.6840457191344963
6.941019955654102,-0.5876498747206028
6.974390243902439,-0.42283834120040065
7.007760532150776,-0.2090396113785017
7.041130820399113,0.025556748137678546
7.07450110864745,0.2478574699897219
7.107871396895788,0.4253626350016525
7.1412416851441245,0.5314451029273868
7.174611973392461,0.5489824962089127
7.207982261640798,0.4719421526927765
7.241352549889135,0.3055309110582843
7.274722838137472,0.06592517969976198
7.30809312638581,-0.2198946930636921
7.341463414634147,-0.5147489426462981
7.3748337028824835,-0.7736475159373339
7.40820399113082,-0.9491111460316826
7.441574279379157,-0.9993764362111516
7.474944567627494,-0.8979730481404145
7.508314855875832,-0.6422309499834582
7.541685144124169,-0.2581628212789905
7.575055432372506,0.20033645315665535
7.6084257206208425,0.659132988037968
7.641796008869179,1.0380977927884085
7.675166297117517,1.269655313063643
7.708536585365854,1.3170067879180565
7.741906873614191,1.1858970325170046
7.775277161862528,0.9244610642067234
7.808647450110865,0.6091146971749336
7.842017738359202,0.31977845056166543
7.875388026607539,0.11276865518326082
7.908758314855876,0.0019312264622542116
7.942128603104213,-0.04355986732500573
7.97549889135255,-0.08259664453277722
8.008869179600888,-0.17270071837914788
8.042239467849225,-0.34015138405986994
8.075609756097561,-0.5634803692101701
8.108980044345898,-0.7791374811151889
8.142350332594235,-0.9083053516459624
8.175720620842572,-0.8934628253918084
8.209090909090909,-0.7275727993101666
8.242461197339246,-0.46120160631845236
8.275831485587583,-0.183028271479472
8.30920177383592,0.01767075939966484
8.342572062084257,0.08874547333795747
8.375942350332595,0.03511367333306
8.409312638580932,-0.08793506174926967
8.442682926829269,-0.20344728539243145
8.476053215077606,-0.24837799644202926
8.509423503325943,-0.1987118940087646
8.54279379157428,-0.07354882959708724
8.576164079822616,0.08107320216318047
8.609534368070953,0.218172845028315
8.64290465631929,0.31190612761411174
8.676274944567627,0.3658611207684576
8.709645232815964,0.4057157586739758
8.743015521064303,0.46202294065746197
8.77638580931264,0.552519116949492
8.809756097560976,0.6720017722142191
8.843126385809313,0.7930948201301135
8.87649667405765,0.8760398280996582
8.909866962305987,0.8824632845025299
8.943237250554324,0.7876785876538208
8.97660753880266,0.5877326791162566
9.009977827050998,0.29978735512882315
9.043348115299334,-0.04339860629010053
9.076718403547671,-0.40247810639181913
9.110088691796008,-0.7406400070642343
9.143458980044347,-1.029555674211872
9.176829268292684,-1.2503973153068622
9.21019955654102,-1.3908797165838338
9.243569844789358,-1.4416854305698528
9.276940133037694,-1.3958984554853904
9.310310421286031,-1.2525794773789718
9.343680709534368,-1.0219702553999463
9.377050997782705,-0.7278918559891764
9.410421286031042,-0.4044689558643476
9.443791574279379,-0.08828042997119473
9.477161862527716,0.18986441779786428
9.510532150776053,0.4097495713350858
9.543902439024391,0.5628965249353446
9.577272727272728,0.6529607566101253
9.610643015521065,0.69794308509154
9.644013303769402,0.7327419522574574
9.677383592017739,0.806448783810323
9.710753880266076,0.9689929491113883
9.744124168514412,1.2476838941916926
9.77749445676275,1.6226370149416718
9.810864745011086,2.0151013385668324
9.844235033259423,2.2998692869376165
9.87760532150776,2.3424514749384007
9.910975609756099,2.048643840747537
9.944345898004435,1.4057225399316229
9.977716186252772,0.4960423264264876
10.01108647450111,-0.5245919797560896
10.044456762749446,-1.4753323182792506
10.077827050997783,-2.20494945908912
10.11119733924612,-2.630640021254899
10.144567627494457,-2.7481516673180617
10.177937915742794,-2.6146532638286883
10.21130820399113,-2.3168949169826933
10.244678492239467,-1.9401112913411798
10.278048780487804,-1.5482854805617663
10.311419068736143,-1.1783144460736152
10.34478935698448,-0.8442329663955228
10.378159645232817,-0.5454519949939832
10.411529933481154,-0.27439841369279017
10.44490022172949,-0.021739857927256613
10.478270509977827,0.22054512467697923
10.511640798226164,0.4573627994747189
10.545011086474501,0.6893569462082113
10.578381374722838,0.9121607925848876
10.611751662971175,1.11595277827133
10.645121951219512,1.2855204675653347
10.67849223946785,1.4016461052783782
10.711862527716187,1.4449768609080265
10.745232815964524,1.402696745482511
10.778603104212861,1.2761201020108142
10.811973392461198,1.085141907497018
10.845343680709535,0.8654491446572622
10.878713968957872,0.6575388194046946
10.912084257206208,0.4914607328142682
10.945454545454545,0.3746240791077436
10.978824833702882,0.2894031885788793
11.012195121951219,0.20264453606249733
11.045565410199556,0.0830649339152236
11.078935698447895,-0.08168610267135093
11.112305986696231,-0.27663643383034814
11.145676274944568,-0.4640946273025817
11.179046563192905,-0.5994104877452825
11.212416851441242,-0.6507173675430047
11.245787139689579,-0.6135489183848929
11.279157427937916,-0.5137080640289962
11.312527716186253,-0.3974758420084536
11.34589800443459,-0.31421795759458104
11.379268292682926,-0.2994974317943381
11.412638580931263,-0.36547083144758635
11.4460088691796,-0.5008439531698652
11.479379157427939,-0.6779632466981945
11.512749445676276,-0.862295894400406
11.546119733924613,-1.020150441660416
11.57949002217295,-1.1227097807313013
11.612860310421286,-1.1466588864134937
11.646230598669623,-1.0731609203224677
11.67960088691796,-0.8877191294800327
11.712971175166297,-0.5834331393732969
11.746341463414634,-0.16863063056746844
11.77971175166297,0.32348760079572597
11.813082039911308,0.8293246175503459
11.846452328159646,1.2608097184164957
11.879822616407983,1.5262138970335861
11.91319290465632,1.561105795363297
11.946563192904657,1.3566843508733488
11.979933481152994,0.9705703673816461
12.01330376940133,0.511613401332585
12.046674057649668,0.10282729579125649
12.080044345898004,-0.16160533297981028
12.113414634146341,-0.24537439865840638
12.146784922394678,-0.17219911265002075
12.180155210643015,-0.002587901828232776
12.213525498891352,0.1997540720640674
12.24689578713969,0.3923592396319555
12.280266075388028,0.5571367633573576
12.313636363636364,0.6845596753093519
12.347006651884701,0.7535913016461778
12.380376940133038,0.7244785523019226
12.413747228381375,0.5526696927870518
12.447117516629712,0.21766881912132077
12.480487804878049,-0.2502762992752825
12.513858093126386,-0.7633927350681151
12.547228381374723,-1.1972744970849747
12.58059866962306,-1.4326274581329652
12.613968957871396,-1.4001446242828457
12.647339246119735,-1.109072236516924
12.680709534368072,-0.6474171043112456
12.714079822616409,-0.15366196129425905
12.747450110864746,0.22933606051332373
12.780820399113082,0.4016663223135851
12.81419068736142,0.3384603888653037
12.847560975609756,0.0958884110841194
12.880931263858093,-0.2106858273968423
12.91430155210643,-0.4483508518142274
12.947671840354767,-0.5131083870040172
12.981042128603104,-0.36476807647883064
13.014412416851442,-0.038557208789128834
13.04778270509978,0.3695509912960108
13.081152993348116,0.737439499909737
13.114523281596453,0.9583939170634423
13.14789356984479,0.9748260935849172
13.181263858093127,0.7929353556151355
13.214634146341464,0.47456249398445194
13.2480044345898,0.1111133122420241
13.281374722838137,-0.20923599583623534
13.314745011086474,-0.42833283508514425
13.348115299334811,-0.5298546837427641
13.381485587583148,-0.53413302070933
13.414855875831487,-0.48091316573582227
13.448226164079824,-0.40885710371485184
13.48159645232816,-0.34032113182929846
13.514966740576497,-0.2764142916706236
13.548337028824834,-0.2026189239801725
13.581707317073171,-0.10127684424056453
13.615077605321508,0.03486413321149515
13.648447893569845,0.19380896587309487
13.681818181818182,0.34403711293105954
13.715188470066519,0.4434755267248246
13.748558758314855,0.4548379540669581
13.781929046563192,0.36160728976405215
13.815299334811531,0.17811754416541475
13.848669623059868,-0.050825460718417426
13.882039911308205,-0.2611488665821478
13.915410199556542,-0.38756491986375
13.948780487804878,-0.38231506706309154
13.982150776053215,-0.22926510645305434
14.015521064301552,0.049455197055087274
14.048891352549889,0.3950126261813993
14.082261640798226,0.7218815196424043
14.115631929046563,0.9365554729434962
14.1490022172949,0.9634659311789702
14.182372505543238,0.7722273340467014
14.215742793791575,0.39558008366344694
14.249113082039912,-0.073184371377735
14.282483370288249,-0.5078224754688007
14.315853658536586,-0.7940349141629873
14.349223946784923,-0.8729282632493477
14.38259423503326,-0.7621241064560352
14.415964523281596,-0.5431612669629212
14.449334811529933,-0.32073840917739355
14.48270509977827,-0.17413950860846003
14.516075388026607,-0.1251970412700505
14.549445676274944,-0.13789215562358312
14.582815964523283,-0.14743115586223746
14.61618625277162,-0.10117553376465423
14.649556541019956,0.011382448726901272
14.682926829268293,0.15498385338485254
14.71629711751663,0.2714231933217175
14.749667405764967,0.31452798411984695
14.783037694013304,0.2770890937495863
14.81640798226164,0.19480143772688865
14.849778270509978,0.12542422590703098
14.883148558758315,0.11512388997190083
14.916518847006651,0.1709198626092197
14.949889135254988,0.25466255812750116
14.983259423503327,0.3020951434794336
15.016629711751664,0.256926687663081
15.05,0.1019269909609054
15.083370288248338,-0.12911863531373619
15.116740576496674,-0.36463249708333634
15.150110864745011,-0.5269562535367764
15.183481152993348,-0.5670130896092203
15.216851441241685,-0.48536672699908545
15.250221729490022,-0.32992422966557866
15.283592017738359,-0.1717299664099731
15.316962305986696,-0.07078559932533386
15.350332594235034,-0.048791513307483096
15.383702882483371,-0.08253370701138982
15.417073170731708,-0.12135533171883121
15.450443458980045,-0.11948595783659599
15.483813747228382,-0.06548972969672255
15.517184035476719,0.008318079207100362
15.550554323725056,0.043581468208752215
15.583924611973393,-0.006887171548481976
15.61729490022173,-0.14180253168016216
15.650665188470066,-0.29573642269059813
15.684035476718403,-0.3576886441060393
15.71740576496674,-0.2196522248481286
15.750776053215079,0.16564665038132492
15.784146341463416,0.7462683355761202
15.817516629711752,1.3739917413073472
15.85088691796009,1.8524990686571123
15.884257206208426,2.012703687660614
15.917627494456763,1.7824965244411484
15.9509977827051,1.2187857716902928
15.984368070953437,0.4860184938314523
16.017738359201775,-0.2100511844961681
16.05110864745011,-0.7036575735479219
16.08447893569845,-0.928872332392073
16.117849223946784,-0.9323037478881446
16.151219512195123,-0.8359049851349241
16.184589800443458,-0.7705647460352092
16.217960088691797,-0.8133770695786823
16.251330376940132,-0.9571197134859478
16.28470066518847,-1.122853791998662
16.31807095343681,-1.2053830837230617
16.351441241685144,-1.127114703845497
16.384811529933483,-0.8746688699810685
16.418181818181818,-0.5034459675869704
16.451552106430157,-0.11165302020775004
16.48492239467849,0.2013250506130704
16.51829268292683,0.3726092603902982
16.551662971175165,0.3946491953449999
16.585033259423504,0.3105217865770784
16.61840354767184,0.1912202568896185
16.651773835920178,0.10624435731299776
16.685144124168513,0.09900840875311362
16.71851441241685,0.17472466503664508
16.75188470066519,0.3030632811323711
16.785254988913525,0.4330457674678861
16.818625277161864,0.5142421714403087
16.8519955654102,0.5167561691313052
16.885365853658538,0.4429752529698742
16.918736141906873,0.3267872825752585
16.95210643015521,0.22041999858377878
16.985476718403547,0.173801232285966
17.018847006651885,0.21440849009059304
17.05221729490022,0.3354985563159599
17.08558758314856,0.49725639543830474
17.118957871396898,0.6401895895037123
17.152328159645233,0.7053322982926599
17.18569844789357,0.6535941316533267
17.219068736141907,0.47768124222156333
17.252439024390245,0.20352190483262944
17.28580931263858,-0.11794844505836312
17.31917960088692,-0.4252362950199834
17.352549889135254,-0.6629058182319982
17.385920177383593,-0.7967376169727288
