Frequency (Hz),Amplitude
0.0,0.09553490259171848
0.020066889632107024,0.1494878677290282
0.04013377926421405,0.24890474758872635
0.060200668896321065,0.3574793464993348
0.0802675585284281,0.46861557719593433
0.10033444816053512,0.5805329684107293
0.12040133779264213,0.6925186363936022
0.14046822742474915,0.8041943868398257
0.1605351170568562,0.915313401049053
0.1806020066889632,1.0256891020164534
0.20066889632107024,1.1351659613383676
0.22073578595317725,1.2436060541759981
0.24080267558528426,1.350882310093724
0.2608695652173913,1.4568748965943714
0.2809364548494983,1.561469183832873
0.3010033444816054,1.664554558126582
0.3210702341137124,1.766023714904343
0.34113712374581934,1.8657722342306824
0.3612040133779264,1.963698328934193
0.3812709030100334,2.059702701372616
0.4013377926421405,2.153688470289208
0.42140468227424743,2.245561143799216
0.4414715719063545,2.335228623191118
0.4615384615384615,2.422601227505347
0.4816053511705685,2.507591732159911
0.5016722408026756,2.5901154170137093
0.5217391304347826,2.670090120648573
0.5418060200668896,2.747436298579867
0.5618729096989966,2.8220770837375375
0.5819397993311036,2.8939383479966097
0.6020066889632107,2.962948763843217
0.6220735785953176,3.0290398654812645
0.6421404682274248,3.0921461088430404
0.6622073578595318,3.1522049300832142
0.6822742474916387,3.209156802221742
0.7023411371237458,3.2629452896660545
0.7224080267558528,3.31351710039233
0.7424749163879598,3.3608221356039922
0.7625418060200668,3.4048135367153063
0.7826086956521738,3.4454477295320376
0.802675585284281,3.4826844655201477
0.8227424749163879,3.516486860069498
0.8428093645484949,3.546821427672535
0.862876254180602,3.5736581139491634
0.882943143812709,3.596970324458756
0.903010033444816,3.616734950248467
0.923076923076923,3.6329323900948345
0.9431438127090299,3.645546569402323
0.963210702341137,3.654564955728869
0.983277591973244,3.659978570914372
1.0033444816053512,3.6617819997936385
1.0234113712374582,3.659973395480758
1.0434782608695652,3.654554481217051
1.0635451505016722,3.645530548779868
1.0836120401337792,3.632910453454715
1.1036789297658862,3.616706605578286
1.1237458193979932,3.596934958665175
1.1438127090301002,3.5736149941365363
1.1638795986622072,3.5467697026745717
1.1839464882943145,3.516425562232499
1.2040133779264215,3.4826125127362273
1.2240802675585283,3.4453639275207197
1.2441471571906353,3.40471658155163
1.2642140468227423,3.3607106164914002
1.2842809364548495,3.313389502678619
1.3043478260869565,3.262799998100799
1.3244147157190636,3.2089921044540244
1.3444816053511706,3.1520190203987406
1.3645484949832773,3.091937092140657
1.3846153846153846,3.028805761489546
1.4046822742474916,2.96268751157933
1.4247491638795986,2.893647810471293
1.4448160535117056,2.821755052912468
1.4648829431438126,2.747080500586906
1.4849498327759196,2.669698221284865
1.5050167224080266,2.5896850275324543
1.5250836120401337,2.50712041538495
1.5451505016722407,2.422086504309011
1.5652173913043477,2.334667979390425
1.5852842809364547,2.2449520375481042
1.605351170568562,2.1530283400760823
1.625418060200669,2.058988974779022
1.6454849498327757,1.9629284323787788
1.6655518394648827,1.8649436040256038
1.6856187290969897,1.7651338101096894
1.705685618729097,1.6636008759374885
1.725752508361204,1.5604492786367692
1.745819397993311,1.4557864045059348
1.765886287625418,1.3497229819292156
1.7859531772575248,1.2423738018930144
1.806020066889632,1.1338589268288357
1.826086956521739,1.0243057647473748
1.846153846153846,0.9138527569747373
1.866220735785953,0.8026562669090291
1.8862876254180598,0.6909043214869427
1.9063545150501673,0.5788465017819321
1.926421404682274,0.4668669548749566
1.9464882943143813,0.355693787759869
1.966555183946488,0.2471575986350038
1.9866220735785953,0.1480952338302712
2.0066889632107023,0.09597593475494255
2.026755852842809,0.1515832285217229
2.0468227424749164,0.2513543698049108
2.0668896321070234,0.36008363973459434
2.0869565217391304,0.4713402196099545
2.1070234113712374,0.5833703367089741
2.1270903010033444,0.6954673242865125
2.1471571906354514,0.8072547471423741
2.1672240802675584,0.9184862917062192
2.1872909698996654,1.028975468702876
2.2073578595317724,1.1385666815136615
2.2274247491638794,1.2471218737351824
2.2474916387959865,1.354513815829922
2.267558528428094,1.4606225033822957
2.2876254180602005,1.5653331281052765
2.3076923076923075,1.6685348940979698
2.3277591973244145,1.7701203120024347
2.3478260869565215,1.8699847750609704
2.367892976588629,1.9680263074891362
2.3879598662207355,2.0641454213722206
2.408026755852843,2.1582450436201133
2.4280936454849495,2.2502304890546703
2.4481605351170566,2.340009464329182
2.468227424749164,2.4274920926473866
2.4882943143812706,2.5125909525518115
2.508361204013378,2.595221126170815
2.5284280936454846,2.6753002537028907
2.548494983277592,2.752748591845836
2.568561872909699,2.8274890745103622
2.5886287625418056,2.8994473745950127
2.608695652173913,2.9685519659067827
2.6287625418060196,3.0347341845308877
2.648829431438127,3.097928289111582
2.668896321070234,3.158071519622359
2.688963210702341,3.2151041542898304
2.709030100334448,3.2689695644008356
2.7290969899665547,3.3196142667716657
2.749163879598662,3.366987973696799
2.769230769230769,3.4110436402242232
2.789297658862876,3.451737508628788
2.809364548494983,3.4890291499738475
2.82943143812709,3.522881502667662
2.849498327759197,3.5532609079338733
2.869565217391304,3.580137142126964
2.8896321070234112,3.6034834458329272
2.9096989966555182,3.623276549704036
2.9297658862876252,3.6394966969841094
2.9498327759197323,3.6521276626876857
2.9698996655518393,3.6611567694025613
2.9899665551839463,3.666574899691429
3.0100334448160533,3.6683765050736614
3.0301003344481603,3.666559611573962
3.0501672240802673,3.661125821829662
3.0702341137123748,3.652080313753654
3.0903010033444813,3.6394318357552655
3.1103678929765888,3.623192698526318
3.1304347826086953,3.6033787634051357
3.1505016722408024,3.5800094273364707
3.1705685618729094,3.5531076044512617
3.1906354515050164,3.5226997042958987
3.210702341137124,3.488815606747183
3.2307692307692304,3.4514886336562802
3.250836120401338,3.410755517272449
3.270903010033445,3.3666563655061785
3.2909698996655514,3.3192346241012034
3.311036789297659,3.2685370357963577
3.3311036789297654,3.2146135965718083
3.351170568561873,3.157517509090507
3.3712374581939795,3.0973051334656376
3.391304347826087,3.034035935509484
3.411371237458194,2.967772432650244
3.4314381270903005,2.898580137743049
3.451505016722408,2.8265275010527056
3.471571906354515,2.7516858507533217
3.491638795986622,2.674129332379517
3.511705685618729,2.593934847784886
3.531772575250836,2.511181994328392
3.551839464882943,2.4259530052377776
3.5719063545150496,2.3383326924196712
3.591973244147157,2.24840839344257
3.612040133779264,2.156269925079557
3.632107023411371,2.062009546768817
3.652173913043478,1.9657219388052642
3.672240802675585,1.867504202298164
3.692307692307692,1.7674558913962148
3.712374581939799,1.6656790938191253
3.732441471571906,1.5622785848154808
3.752508361204013,1.4573620950014388
3.7725752508361197,1.3510407592996934
3.7926421404682276,1.2434298627009894
3.8127090301003346,1.1346500903366084
3.832775919732441,1.0248296718675496
3.852842809364548,0.9141081951770001
3.872909698996655,0.8026437353523818
3.8929765886287626,0.690627090867546
3.9130434782608696,0.5783127975250032
3.933110367892976,0.46609504012259634
3.953177257525083,0.3547259637240913
3.9732441471571907,0.24610934991956024
3.9933110367892977,0.1473963748183544
4.013377926421405,0.09724780352535492
4.033444816053511,0.15433172747194357
4.053511705685618,0.2544763070829614
4.073578595317726,0.36348456320207434
4.093645484949833,0.47502280517564077
4.113712374581939,0.5873429109704322
4.133779264214047,0.6997362678341131
4.153846153846153,0.8118243650819321
4.173913043478261,0.9233593128348534
4.193979933110368,1.0341534427373915
4.214046822742475,1.144050242679408
4.234113712374581,1.2529109114646788
4.254180602006689,1.360607586510492
4.274247491638796,1.4670197050468223
4.294314381270903,1.5720319515439356
4.314381270903009,1.6755330586964259
4.334448160535117,1.7774150915067308
4.354515050167224,1.8775730165934694
4.374581939799331,1.9759044459868733
4.394648829431437,2.072309490896556
4.414715719063545,2.1666906865234434
4.434782608695651,2.2589529636878205
4.454849498327759,2.349003651771405
4.474916387959866,2.4367525028040387
4.494983277591973,2.522111729870587
4.5150501672240795,2.6049960551607674
4.535117056856188,2.6853227643935167
4.555183946488294,2.7630117652891437
4.575250836120401,2.8379856484038486
4.595317725752508,2.910169749084901
4.615384615384615,2.9794922096167986
4.635451505016722,3.0458840408511714
4.655518394648829,3.1092791827741717
4.6755852842809364,3.1696145635831128
4.695652173913043,3.226830156931695
4.71571906354515,3.280869037069159
4.735785953177258,3.3316774316490827
4.7558528428093645,3.37920477202233
4.775919732441471,3.4234037408591873
4.795986622073578,3.4642303169699966
4.816053511705686,3.5016438172131785
4.8361204013377925,3.5356069353954576
4.856187290969899,3.566085778082715
4.8762541806020065,3.593049897251014
4.896321070234113,3.6164723197172792
4.916387959866221,3.6363295732976426
4.936454849498328,3.6526017096491685
4.956521739130435,3.6652723237574896
4.976588628762541,3.6743285700395254
4.996655518394649,3.6797611750361874
5.016722408026756,3.6815644466759196
5.036789297658863,3.6797362800950473
5.056856187290969,3.674278160006639
5.076923076923077,3.6651951596144237
5.096989966555184,3.652495936073788
5.117056856187291,3.6361927225069834
5.137123745819398,3.6163013165851265
5.157190635451505,3.5928410656949823
5.177257525083611,3.5658348487143936
5.197324414715719,3.535309054426229
5.217391304347826,3.5012935566073793
5.237458193979933,3.4638216858363284
5.257525083612039,3.422930198070799
5.277591973244148,3.378659240055856
5.297658862876254,3.3310523116330066
5.317725752508361,3.2801562250325134
5.337792642140468,3.226021061245351
5.357859531772575,3.168700123587797
5.377926421404682,3.1082498885924306
5.397993311036789,3.0447299543845774
5.418060200668896,2.978202986735605
5.438127090301003,2.908734663025434
5.458193979933109,2.8363936143999036
5.478260869565218,2.761251366478573
5.498327759197324,2.6833822790615036
5.518394648829431,2.602863485409107
5.538461538461538,2.5197748318403455
5.558528428093646,2.4341988186317667
5.578595317725752,2.346220543532888
5.598662207357859,2.2559276496877945
5.618729096989966,2.1634102804393787
5.638795986622073,2.0687610445026654
5.65886287625418,1.972074996506945
5.678929765886288,1.8734496402181626
5.698996655518394,1.7729849653609362
5.719063545150501,1.6707835347259041
5.739130434782608,1.566950647708011
5.759197324414716,1.4615946224046508
5.7792642140468224,1.3548272663150658
5.799331103678929,1.2467646562976014
5.8193979933110365,1.1375284442725435
5.839464882943144,1.027248095918782
5.8595317725752505,0.9160648723635008
5.879598662207358,0.8041392770787698
5.8996655518394645,0.6916659406006894
5.919732441471571,0.578906090086901
5.9397993311036785,0.4662671638347217
5.959866220735786,0.35453228948936405
5.9799331103678925,0.24569671276877597
5.999999999999999,0.14728406425237908
6.020066889632107,0.09915403123722225
6.040133779264214,0.15760421461643523
6.060200668896321,0.25819509807885416
6.080267558528428,0.36763018302151057
6.100334448160535,0.4796239525179343
6.120401337792642,0.5924190583253494
6.1404682274247495,0.7052991040796643
6.160535117056856,0.8178807134095077
6.180602006688963,0.9299128721862236
6.200668896321069,1.0412057657322353
6.2207357859531776,1.151601299884716
6.240802675585284,1.260959430716297
6.260869565217391,1.3691512655734221
6.280936454849498,1.4760553501225742
6.301003344481605,1.5815555707586701
6.321070234113712,1.6855399273700322
6.341137123745819,1.787899799246532
6.361204013377926,1.8885295024164033
6.381270903010033,1.9873260254163674
6.40133779264214,2.084188877611146
6.421404682274248,2.1790200102799577
6.441471571906354,2.2717237856954187
6.461538461538461,2.362206978334824
6.481605351170568,2.4503787978150564
6.501672240802676,2.536150926563202
6.521739130434782,2.619437567432624
6.54180602006689,2.7001554979158113
6.561872909698996,2.778224128570163
6.581939799331103,2.8535655639294113
6.60200668896321,2.9261046646284874
6.622073578595318,2.9957691097889403
6.642140468227424,3.0624894589405813
6.662207357859531,3.126199212919673
6.682274247491639,3.186834873305123
6.702341137123746,3.2443360000439925
6.722408026755852,3.2986452669853246
6.742474916387959,3.3497085150927814
6.762541806020066,3.3974748031463875
6.782608695652174,3.441896455775249
6.80267558528428,3.482929108687408
6.822742474916388,3.520531750983584
6.842809364548494,3.554666764457533
6.862876254180601,3.5852999597996713
6.882943143812709,3.6124006096321364
6.903010033444816,3.6359414783134323
6.9230769230769225,3.6558988484595525
6.94314381270903,3.672252544136239
6.963210702341137,3.6849859506842195
6.983277591973244,3.69408603114564
7.0033444816053505,3.6995433392660524
7.023411371237458,3.701352029052078
7.0434782608695645,3.6995098608704224
7.063545150501672,3.6940182040793106
7.083612040133779,3.6848820361886006
7.103678929765886,3.672109938550382
7.123745819397993,3.6557140885868726
7.143812709030099,3.6357102485681643
7.1638795986622075,3.61211775095773
7.183946488294314,3.584959480349739
7.204013377926421,3.554261852028116
7.224080267558528,3.52005478718432
7.2441471571906355,3.482371684837803
7.264214046822742,3.4412493905114565
7.2842809364548495,3.3967281617232747
7.304347826086956,3.3488516303659037
7.324414715719063,3.2976667620581925
7.34448160535117,3.2432238125667494
7.364548494983278,3.185576281413505
7.384615384615384,3.1247808628060048
7.404682274247491,3.060897394053792
7.424749163879598,2.9939888016677143
7.444816053511706,2.92412104538127
7.464882943143812,2.85136306038869
7.48494983277592,2.775786698166889
7.505016722408026,2.697466666345234
7.525083612040134,2.6164804682173153
7.545150501672239,2.5329083426674397
7.565217391304348,2.4468332055308006
7.585284280936455,2.358340593753376
7.605351170568561,2.267518614211299
7.625418060200669,2.174457899764394
7.645484949832775,2.079251576171011
7.665551839464882,1.9819952450682052
7.685618729096991,1.8827869906312453
7.705685618729096,1.781727421289251
7.725752508361204,1.6789197638895053
7.74581939799331,1.5744700375770624
7.765886287625418,1.4684873513467536
7.785953177257525,1.3610843983885366
7.806020066889631,1.2523782732628101
7.826086956521739,1.1424918381983664
7.846153846153847,1.0315560645296131
7.866220735785952,0.9197141973439068
7.88628762541806,0.8071295483421235
7.906354515050166,0.6940010855095464
7.926421404682274,0.5805974824453979
7.946488294314381,0.46734074304827006
7.966555183946488,0.35504773564255626
7.986622073578595,0.2458125125170855
8.006688963210701,0.14755515363862565
8.02675585284281,0.10133675886061752
8.046822742474916,0.16115394109334355
8.066889632107022,0.26234803854465855
8.08695652173913,0.37239665574456243
8.107023411371236,0.4850409892905408
8.127090301003344,0.5985091768253761
8.147157190635452,0.712075001581843
8.167224080267557,0.8253491941935566
8.187290969899665,0.9380769891549988
8.207357859531772,1.050065983892776
8.227424749163879,1.1611561569001259
8.247491638795987,1.2712059307822523
8.267558528428093,1.3800851253642084
8.2876254180602,1.4876711589988254
8.307692307692307,1.5938468993111161
8.327759197324415,1.698499403778094
8.347826086956522,1.8015191650219504
8.367892976588628,1.902799654643289
8.387959866220736,2.002237049992975
8.408026755852843,2.099730076425187
8.42809364548495,2.195179924271658
8.448160535117056,2.2884902151385176
8.468227424749163,2.37956700125821
8.488294314381271,2.4683187872156935
8.508361204013378,2.5546565668759103
8.528428093645484,2.638493870593697
8.548494983277592,2.719746819267288
8.568561872909697,2.798334182786421
8.588628762541806,2.874177441101034
8.608695652173914,2.947200846603419
8.628762541806019,3.0173314868452543
8.648829431438127,3.084499346845472
8.668896321070234,3.1486373704143693
8.68896321070234,3.2096815200438247
8.709030100334449,3.2675708350058366
8.729096989966555,3.3222474873711048
8.749163879598662,3.373656835712358
8.769230769230768,3.4217474762982265
8.789297658862875,3.4664712916153406
8.809364548494983,3.507783496081899
8.82943143812709,3.545642678836636
8.849498327759196,3.580010843503661
8.869565217391303,3.6108534448479745
8.889632107023411,3.638139422248048
8.909698996655518,3.661841229922213
8.929765886287624,3.681934863854459
8.949832775919733,3.69839988537331
8.96989966555184,3.7112194413444484
8.989966555183946,3.720380280944554
9.010033444816054,3.7258727689899804
9.030100334448159,3.7276908957996655
9.050167224080267,3.725832283577337
9.070234113712376,3.720298189303663
9.09030100334448,3.7110935041341566
9.110367892976589,3.6982267493042
9.130434782608695,3.6817100685479467
9.150501672240802,3.661559217043186
9.17056856187291,3.6377935469002836
9.190635451505017,3.610435989218961
9.210702341137123,3.5795130327432205
9.23076923076923,3.54505469915141
9.250836120401337,3.507094515025911
9.270903010033445,3.4656694805551793
9.290969899665551,3.420820035030141
9.311036789297658,3.372590019207631
9.331103678929765,3.3210266346260835
9.351170568561873,3.2661803999733254
9.37123745819398,3.2081051046242446
9.391304347826086,3.146857759487861
9.411371237458194,3.0824985453304783
9.4314381270903,3.0150907587758744
9.451505016722408,2.9447007562272747
9.471571906354516,2.8713978960127315
9.49163879598662,2.795254479130329
9.511705685618729,2.716345689069238
9.531772575250837,2.6347495313167624
9.551839464882942,2.5505467733453893
9.57190635451505,2.4638208861280706
9.591973244147155,2.3746579885872183
9.612040133779264,2.283146796892466
9.632107023411372,2.189378581259492
9.652173913043477,2.0934471339884477
9.672240802675585,1.995448754107829
9.692307692307692,1.8954822564783085
9.712374581939798,1.7936490170974535
9.732441471571907,1.6900530725625615
9.752508361204013,1.584801301856296
9.77257525083612,1.4780037358824687
9.792642140468226,1.3697740703595398
9.812709030100335,1.260230512473094
9.832775919732441,1.149497195576293
9.852842809364548,1.0377066033554458
9.872909698996656,0.9250038829930262
9.89297658862876,0.8115549213203561
9.91304347826087,0.6975625175187681
9.933110367892976,0.5833017548200823
9.953177257525082,0.46920703379745765
9.97324414715719,0.35612406894173954
9.993311036789297,0.24623327959603022
10.013377926421404,0.1478183154677842
10.033444816053512,0.1031994499350037
10.053511705685617,0.16458781159006003
10.073578595317725,0.2666776344405902
10.093645484949834,0.3775901316994752
10.113712374581938,0.49111467117634555
10.133779264214047,0.6054750518819424
10.153846153846153,0.7199394773805279
10.17391304347826,0.8341147139445825
10.193979933110368,0.9477431776131957
10.214046822742475,1.0606303338635237
10.234113712374581,1.1726144405642618
10.254180602006688,1.283552454134482
10.274247491638796,1.3933128918917461
10.294314381270903,1.5017719793573467
10.31438127090301,1.608811467926271
10.334448160535118,1.714317354663415
10.354515050167223,1.8181791142619803
10.37458193979933,1.9202892341908784
10.394648829431437,2.0205429357618896
10.414715719063544,2.1188380126363775
10.434782608695652,2.215074745368078
10.454849498327757,2.309155866168355
10.474916387959865,2.40098655735273
10.494983277591974,2.490474472603757
10.515050167224079,2.577529773751078
10.535117056856187,2.662065178061495
10.555183946488295,2.743996012537788
10.5752508361204,2.823240272732122
10.595317725752508,2.8997186842671185
10.615384615384615,2.9733547657328314
10.635451505016722,3.0440748919628278
10.65551839464883,3.1118083569310317
10.675585284280936,3.176487435684157
10.695652173913043,3.23804744485077
10.71571906354515,3.2964268013627556
10.735785953177256,3.3515670790952123
10.755852842809364,3.4034130631852886
10.775919732441471,3.4519128018319516
10.795986622073578,3.497017655411381
10.816053511705684,3.5386823427687197
