Frequency (Hz),Amplitude
0.0,0.33398067688928856
0.020066889632107024,0.34575080753146187
0.04013377926421405,0.37883189252942606
0.060200668896321065,0.42820363524900223
0.0802675585284281,0.4887949255556666
0.10033444816053512,0.5567589253955745
0.12040133779264213,0.6294900460888401
0.14046822742474915,0.7052739308367847
0.1605351170568562,0.7829698069302627
0.1806020066889632,0.8617958866336837
0.20066889632107024,0.9411962887068115
0.22073578595317725,1.0207600623418907
0.24080267558528426,1.1001715523785454
0.2608695652173913,1.1791794243719333
0.2809364548494983,1.2575769096012523
0.3010033444816054,1.335188920555022
0.3210702341137124,1.4118634641874492
0.34113712374581934,1.487465803295287
0.3612040133779264,1.5618744131620677
0.3812709030100334,1.634978135080861
0.4013377926421405,1.7066741431275045
0.42140468227424743,1.7768664733347999
0.4414715719063545,1.845464948152946
0.4615384615384615,1.9123843829004794
0.4816053511705685,1.9775439961302472
0.5016722408026756,2.0408669692784884
0.5217391304347826,2.102280116820492
0.5418060200668896,2.1617136390411336
0.5618729096989966,2.2191009371066057
0.5819397993311036,2.2743784754690557
0.6020066889632107,2.327485680453348
0.6220735785953176,2.3783648666330106
0.6421404682274248,2.426961184616872
0.6622073578595318,2.473222585354414
0.6822742474916387,2.517099797175495
0.7023411371237458,2.558546312613365
0.7224080267558528,2.597518382692003
0.7424749163879598,2.6339750168426663
0.7625418060200668,2.6678779869879046
0.7826086956521738,2.6991918346216104
0.802675585284281,2.727883879941445
0.8227424749163879,2.753924232269912
0.8428093645484949,2.77728580114373
0.862876254180602,2.7979443075664268
0.882943143812709,2.8158782950125363
0.903010033444816,2.8310691398483283
0.923076923076923,2.8435010608974576
0.9431438127090299,2.853161127933158
0.963210702341137,2.860039268923801
0.983277591973244,2.864128275898295
1.0033444816053512,2.8654238093320874
1.0234113712374582,2.8639244009865203
1.0434782608695652,2.8596314551633344
1.0635451505016722,2.8525492483643475
1.0836120401337792,2.8426849273741244
1.1036789297658862,2.8300485058118654
1.1237458193979932,2.8146528592286324
1.1438127090301002,2.7965137188583133
1.1638795986622072,2.7756496641668225
1.1839464882943145,2.7520821143849252
1.2040133779264215,2.7258353192573255
1.2240802675585283,2.6969363492968332
1.2441471571906353,2.6654150858990326
1.2642140468227423,2.6313042117538497
1.2842809364548495,2.594639202089418
1.3043478260869565,2.555458317405727
1.3244147157190636,2.5138025985080925
1.3444816053511706,2.4697158648416706
1.3645484949832773,2.423244717370885
1.3846153846153846,2.3744385475571166
1.4046822742474916,2.323349554386463
1.4247491638795986,2.2700327719161653
1.4448160535117056,2.214546110484257
1.4648829431438126,2.156950415618694
1.4849498327759196,2.0973095498688297
1.5050167224080266,2.0356905043762006
1.5250836120401337,1.9721635491637672
1.5451505016722407,1.9068024340862797
1.5652173913043477,1.8396846564905294
1.5852842809364547,1.770891817390541
1.605351170568562,1.700510096131918
1.625418060200669,1.628630885267022
1.6454849498327757,1.5553516444944018
1.6655518394648827,1.4807770578750281
1.6856187290969897,1.4050206166787509
1.705685618729097,1.3282068085564667
1.725752508361204,1.250474184587861
1.745819397993311,1.1719797199214355
1.765886287625418,1.0929051169773918
1.7859531772575248,1.013466085059899
1.806020066889632,0.9339262773937055
1.826086956521739,0.8546186727202499
1.846153846153846,0.7759790982682123
1.866220735785953,0.6985998745521377
1.8862876254180598,0.6233170022436544
1.9063545150501673,0.5513522348672092
1.926421404682274,0.4845380396901347
1.9464882943143813,0.4256369647631512
1.966555183946488,0.3786503932914292
1.9866220735785953,0.3486549009751339
2.0066889632107023,0.3403106727297947
2.026755852842809,0.35518752486002
2.0468227424749164,0.3905967803095595
2.0668896321070234,0.4415156039926018
2.0869565217391304,0.5030977204664735
2.1070234113712374,0.5717130670209485
2.1270903010033444,0.6449000698849678
2.1471571906354514,0.7210285488748761
2.1672240802675584,0.7990049738988498
2.1872909698996654,0.8780739185483799
2.2073578595317724,0.95769430138694
2.2274247491638794,1.0374635343644234
2.2474916387959865,1.1170706840998679
2.267558528428094,1.1962670394062964
2.2876254180602005,1.2748472229092331
2.3076923076923075,1.3526368035104532
2.3277591973244145,1.4294840004915594
2.3478260869565215,1.5052540183580763
2.367892976588629,1.5798251087227788
2.3879598662207355,1.653085788637026
2.408026755852843,1.724932847789351
2.4280936454849495,1.7952699031678132
2.4481605351170566,1.8640063397331255
2.468227424749164,1.9310565272567473
2.4882943143812706,1.9963392373822462
2.508361204013378,2.0597772076153116
2.5284280936454846,2.121296814313687
2.548494983277592,2.180827827328238
2.568561872909699,2.2383032263317766
2.5886287625418056,2.2936590640949417
2.608695652173913,2.346834365706591
2.6287625418060196,2.3977710554427207
2.648829431438127,2.4464139049685287
2.668896321070234,2.492710498022599
2.688963210702341,2.536611207825306
2.709030100334448,2.578069184276926
2.7290969899665547,2.6170403486368627
2.749163879598662,2.6534833938549727
2.769230769230769,2.6873597890966736
2.789297658862876,2.7186337872921937
2.809364548494983,2.747272434767047
2.82943143812709,2.7732455821901776
2.849498327759197,2.796525896219529
2.869565217391304,2.8170888713399296
2.8896321070234112,2.8349128414819793
2.9096989966555182,2.8499789910874487
2.9297658862876252,2.8622713653505953
2.9498327759197323,2.8717768794186522
2.9698996655518393,2.87848532638063
2.9899665551839463,2.882389383913782
3.0100334448160533,2.8834846194926405
3.0301003344481603,2.8817694940982266
3.0501672240802673,2.877245364395467
3.0702341137123748,2.8699164833764828
3.0903010033444813,2.8597899994969302
3.1103678929765888,2.8468759543629303
3.1304347826086953,2.8311872790584025
3.1505016722408024,2.812739789237915
3.1705685618729094,2.791552179149544
3.1906354515050164,2.7676460147974185
3.210702341137124,2.741045726506124
3.2307692307692304,2.7117786012114173
3.250836120401338,2.679874774876206
3.270903010033445,2.645367225521388
3.2909698996655514,2.6082917674720174
3.311036789297659,2.5686870475566015
3.3311036789297654,2.526594544168634
3.351170568561873,2.4820585703149227
3.3712374581939795,2.435126282048511
3.391304347826087,2.385847694033071
3.411371237458194,2.334275704434944
3.4314381270903005,2.2804661319225823
3.451505016722408,2.2244777683161656
3.471571906354515,2.166372451437478
3.491638795986622,2.1062151640507683
3.511705685618729,2.0440741665866673
3.531772575250836,1.9800211737848477
3.551839464882943,1.91413158874039
3.5719063545150496,1.846484812479264
3.591973244147157,1.7771646536919468
3.612040133779264,1.706259872481186
3.632107023411371,1.6338649052408303
3.652173913043478,1.5600808371059751
3.672240802675585,1.4850167169858715
3.692307692307692,1.4087913530956655
3.712374581939799,1.3315357923938511
3.732441471571906,1.2533967890264568
3.752508361204013,1.1745417276179955
3.7725752508361197,1.0951657259314598
3.7926421404682276,1.015502065106926
3.8127090301003346,0.93583780071586
3.832775919732441,0.8565375947413709
3.852842809364548,0.7780808111721572
3.872909698996655,0.7011202355653365
3.8929765886287626,0.6265759137745822
3.9130434782608696,0.5557839543023125
3.933110367892976,0.4907213050393823
3.953177257525083,0.43429616495436196
3.9732441471571907,0.3905526959652832
3.9933110367892977,0.36430332080508543
4.013377926421405,0.3595277735712285
4.033444816053511,0.37707731874595013
4.053511705685618,0.41407656468626625
4.073578595317726,0.4658037639626593
4.093645484949833,0.5277887348195052
4.113712374581939,0.5966503344198276
4.133779264214047,0.6700531820207392
4.153846153846153,0.7464210630971716
4.173913043478261,0.8246789333996652
4.193979933110368,0.9040740027128016
4.214046822742475,0.9840613532521453
4.234113712374581,1.0642323347062757
4.254180602006689,1.1442695659059487
4.274247491638796,1.2239182450381882
4.294314381270903,1.3029675133812562
4.314381270903009,1.3812381077513434
4.334448160535117,1.4585740192749674
4.354515050167224,1.5348367545603265
4.374581939799331,1.609901320317193
4.394648829431437,1.6836533707648325
4.414715719063545,1.7559871534607263
4.434782608695651,1.8268040124282068
4.454849498327759,1.896011286241178
4.474916387959866,1.9635214899658509
4.494983277591973,2.029251703750446
4.5150501672240795,2.093123113627026
4.535117056856188,2.1550606656235796
4.555183946488294,2.2149928050307066
4.575250836120401,2.2728512802012664
4.595317725752508,2.3285709956094283
4.615384615384615,2.3820899027374707
4.635451505016722,2.4333489201486804
4.655518394648829,2.4822918761530373
4.6755852842809364,2.528865468990453
4.695652173913043,2.573019240592586
4.71571906354515,2.614705560842111
4.735785953177258,2.653879619901879
4.7558528428093645,2.6904994266879925
4.775919732441471,2.724525811949607
4.795986622073578,2.7559224347212097
4.816053511705686,2.7846557911517755
4.8361204013377925,2.8106952249041757
4.856187290969899,2.834012938469489
4.8762541806020065,2.8545840048627107
4.896321070234113,2.872386379265678
4.916387959866221,2.887400910264742
4.936454849498328,2.899611350398734
4.956521739130435,2.909004365790297
4.976588628762541,2.915569544683014
4.996655518394649,2.9192994047499576
5.016722408026756,2.9201893990780547
5.036789297658863,2.9182379207681737
5.056856187290969,2.9134463061245386
5.076923076923077,2.9058188364398814
5.096989966555184,2.8953627384158485
5.117056856187291,2.8820881832924616
5.137123745819398,2.8660082847973767
5.157190635451505,2.8471390960660563
5.177257525083611,2.8254996057296506
5.197324414715719,2.8011117334198206
5.217391304347826,2.774000325001197
5.237458193979933,2.744193147914954
5.257525083612039,2.7117208871048413
5.277591973244148,2.6766171421035003
5.297658862876254,2.638918425988045
5.317725752508361,2.598664167075878
5.337792642140468,2.555896714434515
5.357859531772575,2.5106613485341045
5.377926421404682,2.463006298694768
5.397993311036789,2.412982769394296
5.418060200668896,2.3606449780338865
5.438127090301003,2.3060502074504177
5.458193979933109,2.249258877367198
5.478260869565218,2.1903346401668546
5.498327759197324,2.1293445079556554
5.518394648829431,2.0663590200170034
5.538461538461538,2.0014524626369674
5.558528428093646,1.9347031572342028
5.578595317725752,1.8661938381910668
5.598662207357859,1.796012149427923
5.618729096989966,1.7242512995863792
5.638795986622073,1.6510109312031311
5.65886287625418,1.576398281794208
5.678929765886288,1.5005297479654953
5.698996655518394,1.4235330132770951
5.719063545150501,1.3455499758663418
5.739130434782608,1.2667408278474253
5.759197324414716,1.1872898201199271
5.7792642140468224,1.1074135348634815
5.799331103678929,1.0273729529864142
5.8193979933110365,0.9474913602784764
5.839464882943144,0.8681813694835495
5.8595317725752505,0.789986319577465
5.879598662207358,0.7136443521832951
5.8996655518394645,0.6401874893053477
5.919732441471571,0.5710909443719958
5.9397993311036785,0.5084801182714919
5.959866220735786,0.45535409853667025
5.9799331103678925,0.4156345939801879
5.999999999999999,0.39360145117603007
6.020066889632107,0.3923607477549925
6.040133779264214,0.4121283407747858
6.060200668896321,0.4500965938119985
6.080267558528428,0.502044139551254
6.100334448160535,0.5639659148300349
6.120401337792642,0.6327501729533492
6.1404682274247495,0.7061781043813813
6.160535117056856,0.7827079980062446
6.180602006688963,0.861262841049277
6.200668896321069,0.9410742607165054
6.2207357859531776,1.0215782963495412
6.240802675585284,1.1023478795763493
6.260869565217391,1.1830492318483379
6.280936454849498,1.2634134467846883
6.301003344481605,1.3432176955655302
6.321070234113712,1.4222725871608366
6.341137123745819,1.5004135217486994
6.361204013377926,1.5774946776530998
6.381270903010033,1.6533847647847542
6.40133779264214,1.7279639829822608
6.421404682274248,1.8011218154970692
6.441471571906354,1.872755410193653
6.461538461538461,1.9427683802644455
6.481605351170568,2.0110699083796035
6.501672240802676,2.077574073004455
6.521739130434782,2.1421993392131577
6.54180602006689,2.204868172544961
6.561872909698996,2.265506745745121
6.581939799331103,2.324044716199722
6.60200668896321,2.38041505756027
6.622073578595318,2.4345539331586896
6.642140468227424,2.4864006018082327
6.662207357859531,2.535897348792697
6.682274247491639,2.5829894364885972
6.702341137123746,2.627625070298055
6.722408026755852,2.6697553765040767
6.742474916387959,2.709334389373388
6.762541806020066,2.7463190453813513
6.782608695652174,2.7806691828598726
6.80267558528428,2.8123475457026936
6.822742474916388,2.8413197900255205
6.842809364548494,2.8675544928871743
6.862876254180601,2.8910231623455798
6.882943143812709,2.9117002482575356
6.903010033444816,2.929563153341717
6.9230769230769225,2.9445922441155394
6.94314381270903,2.956770861392466
6.963210702341137,2.9660853300910217
6.983277591973244,2.9725249681623502
7.0033444816053505,2.976082094492037
7.023411371237458,2.976752035676168
7.0434782608695645,2.9745331316122474
7.063545150501672,2.969426739884659
7.083612040133779,2.9614372389624375
7.103678929765886,2.9505720302662186
7.123745819397993,2.936841539201733
7.143812709030099,2.920259215301468
7.1638795986622075,2.9008415316644895
7.183946488294314,2.8786079839399283
7.204013377926421,2.853581089163232
7.224080267558528,2.8257863848292124
7.2441471571906355,2.7952524286752682
7.264214046822742,2.762010799755718
7.2842809364548495,2.726096101519184
7.304347826086956,2.6875459677622024
7.324414715719063,2.646401072531898
7.34448160535117,2.6027051453001055
7.364548494983278,2.5565049930454853
7.384615384615384,2.507850531278528
7.404682274247491,2.4567948265531228
7.424749163879598,2.4033941536631502
7.444816053511706,2.3477080715716454
7.464882943143812,2.2897995232291044
7.48494983277592,2.229734965898937
7.505016722408026,2.1675845405487038
7.525083612040134,2.1034222914663996
7.545150501672239,2.0373264507778606
7.565217391304348,1.9693798073429587
7.585284280936455,1.899670186131037
7.605351170568561,1.8282910734078772
7.625418060200669,1.7553424360799998
7.645484949832775,1.6809318021012627
7.665551839464882,1.6051756956396999
7.685618729096991,1.528201559874273
7.705685618729096,1.4501503583071682
7.725752508361204,1.3711801325370707
7.74581939799331,1.2914709267724098
7.765886287625418,1.2112316929452478
7.785953177257525,1.130710106650862
7.806020066889631,1.0502067188440969
7.826086956521739,0.9700956409021934
7.846153846153847,0.8908551485906786
7.866220735785952,0.813113332924022
7.88628762541806,0.7377161779483883
7.906354515050166,0.6658273038632796
7.926421404682274,0.5990662830797893
7.946488294314381,0.5396743098755314
7.966555183946488,0.49063600138705044
7.986622073578595,0.45555776669194015
8.006688963210701,0.43798872578902753
8.02675585284281,0.44013248814899747
8.046822742474916,0.461735960028337
8.066889632107022,0.5002347434050725
8.08695652173913,0.5519977215215146
8.107023411371236,0.6135241622514999
8.127090301003344,0.6819893165348123
8.147157190635452,0.7552946842864107
8.167224080267557,0.8319276344593127
8.187290969899665,0.9107991524438304
8.207357859531772,0.9911138605801582
8.227424749163879,1.0722776992584981
8.247491638795987,1.1538352479245302
8.267558528428093,1.2354277277993573
8.2876254180602,1.3167648092482365
8.307692307692307,1.3976055117122772
8.327759197324415,1.4777451003748703
8.347826086956522,1.5570059716672047
8.367892976588628,1.6352312241947708
8.387959866220736,1.7122800623611973
8.408026755852843,1.7880244684923727
8.42809364548495,1.862346765305045
8.448160535117056,1.935137811796094
8.468227424749163,2.006295655599929
8.488294314381271,2.0757245183012105
8.508361204013378,2.1433340263708183
8.528428093645484,2.2090386252063676
8.548494983277592,2.272757130991255
8.568561872909697,2.3344123871992304
8.588628762541806,2.3939310011849013
8.608695652173914,2.45124314249363
8.628762541806019,2.5062823890242907
8.648829431438127,2.5589856104804065
8.668896321070234,2.609292880992493
8.68896321070234,2.657147414623677
8.709030100334449,2.7024955188509208
8.729096989966555,2.7452865621635594
8.749163879598662,2.785472952725643
8.769230769230768,2.8230101256704763
8.789297658862875,2.8578565370798374
8.809364548494983,2.889973663080425
8.82943143812709,2.919326002790279
8.849498327759196,2.945881084087342
8.869565217391303,2.9696094713646355
8.889632107023411,2.990484774592244
8.909698996655518,3.008483659133924
8.929765886287624,3.0235858558716835
8.949832775919733,3.035774171280104
8.96989966555184,3.045034497167505
8.989966555183946,3.0513558198661794
9.010033444816054,3.0547302287116223
9.030100334448159,3.0551529237029924
9.050167224080267,3.052622222285654
9.070234113712376,3.0471395652434876
9.09030100334448,3.038709521735065
9.110367892976589,3.0273397935552513
9.130434782608695,3.0130412187539584
9.150501672240802,2.9958277747983475
9.17056856187291,2.9757165815254796
9.190635451505017,2.9527279042016086
9.210702341137123,2.9268851570846013
9.23076923076923,2.8982149079805697
9.250836120401337,2.8667468843986548
9.270903010033445,2.832513982044378
9.290969899665551,2.795552276558138
9.311036789297658,2.755901039609899
9.331103678929765,2.7136027607146427
9.351170568561873,2.66870317644969
9.37123745819398,2.6212513091532585
9.391304347826086,2.5712995176880358
9.411371237458194,2.5189035634973296
9.4314381270903,2.464122696007942
9.451505016722408,2.4070197625042584
9.471571906354516,2.3476613489928373
9.49163879598662,2.2861179604097788
9.511705685618729,2.2224642509501833
9.531772575250837,2.156779318540047
9.551839464882942,2.0891470818363294
9.57190635451505,2.019656764073538
9.591973244147155,1.9484035162142648
9.612040133779264,1.8754892231358278
9.632107023411372,1.8010235523621776
9.652173913043477,1.7251253271571843
9.672240802675585,1.6479243376697958
9.692307692307692,1.5695637498513166
9.712374581939798,1.4902033390289318
9.732441471571907,1.4100238739759297
9.752508361204013,1.3292331243378777
9.77257525083612,1.2480741839710432
9.792642140468226,1.166837131457966
9.812709030100335,1.0858755374073679
9.832775919732441,1.005630037231451
9.852842809364548,0.9266621616545233
9.872909698996656,0.84970277880639
9.89297658862876,0.7757203437279109
9.91304347826087,0.7060129124607764
9.933110367892976,0.6423197321858467
9.953177257525082,0.586922694990161
9.97324414715719,0.5426510663956203
9.993311036789297,0.5126249909419902
10.013377926421404,0.49958246165721554
10.033444816053512,0.5049295259843489
10.053511705685617,0.5281226130186825
10.073578595317725,0.5669247670561012
10.093645484949834,0.6182985653893297
10.113712374581938,0.6792477768779376
10.133779264214047,0.7472486461698069
10.153846153846153,0.8203380232220293
10.17391304347826,0.8970405741695551
10.193979933110368,0.9762564188751315
10.214046822742475,1.057159621850759
10.234113712374581,1.1391200869318148
10.254180602006688,1.2216472600474804
10.274247491638796,1.3043506038311874
10.294314381270903,1.3869120532310777
10.31438127090301,1.4690667771869603
10.334448160535118,1.5505896435502817
10.354515050167223,1.6312856031321106
10.37458193979933,1.7109827839178315
10.394648829431437,1.7895274767810223
10.414715719063544,1.866780455472179
10.434782608695652,1.9426142484524567
10.454849498327757,2.0169110974790514
10.474916387959865,2.0895614171966943
10.494983277591974,2.1604626241420823
10.515050167224079,2.229518240900783
10.535117056856187,2.296637207165144
10.555183946488295,2.3617333477542535
10.5752508361204,2.4247249606862744
10.595317725752508,2.4855344977583864
10.615384615384615,2.5440883168879944
10.635451505016722,2.6003164904511147
10.65551839464883,2.6541526575387677
10.675585284280936,2.705533910801987
10.695652173913043,2.754400710625012
10.71571906354515,2.800696820936059
10.735785953177256,2.844369262165329
10.755852842809364,2.885368277784766
10.775919732441471,2.92364731158189
10.795986622073578,2.959162993381526
