Frequency (Hz),Amplitude
0.0,7.449214478077693
0.020066889632107024,7.450355204089578
0.04013377926421405,7.4537720042210625
0.060200668896321065,7.459448785799929
0.0802675585284281,7.467358863825628
0.10033444816053512,7.477465162787224
0.12040133779264213,7.489720494562185
0.14046822742474915,7.504067907925882
0.1605351170568562,7.520441104166317
0.1806020066889632,7.538764912428046
0.20066889632107024,7.55895581772241
0.22073578595317725,7.580922534050929
0.24080267558528426,7.604566614795815
0.2608695652173913,7.629783092432933
0.2809364548494983,7.65646113970583
0.3010033444816054,7.684484744646138
0.3210702341137124,7.71373339221515
0.34113712374581934,7.744082745847933
0.3612040133779264,7.775405322778381
0.3812709030100334,7.8075711576854
0.4013377926421405,7.840448449901042
0.42140468227424743,7.873904190137558
0.4414715719063545,7.9078047634009545
0.4615384615384615,7.942016525447043
0.4816053511705685,7.976406350786419
0.5016722408026756,8.010842150847624
0.5217391304347826,8.04519336145474
0.5418060200668896,8.079331399261575
0.5618729096989966,8.113130087208232
0.5819397993311036,8.146466049426323
0.6020066889632107,8.179219076318578
0.6220735785953176,8.211272460780503
0.6421404682274248,8.242513306719609
0.6622073578595318,8.272832811167143
0.6822742474916387,8.302126521372823
0.7023411371237458,8.330294568330475
0.7224080267558528,8.35724187820694
0.7424749163879598,8.38287836314271
0.7625418060200668,8.407119092866314
0.7826086956521738,8.429884448517905
0.802675585284281,8.451100260016979
0.8227424749163879,8.470697928235671
0.8428093645484949,8.488614533157584
0.862876254180602,8.504792929113364
0.882943143812709,8.519181828091625
0.903010033444816,8.531735872027864
0.923076923076923,8.542415694876663
0.9431438127090299,8.551187975174619
0.963210702341137,8.558025479703174
0.983277591973244,8.562907098763068
1.0033444816053512,8.565817873475257
1.0234113712374582,8.566749015426845
1.0434782608695652,8.56569791888522
1.0635451505016722,8.562668165708365
1.0836120401337792,8.557669522984881
1.1036789297658862,8.550717933342256
1.1237458193979932,8.541835497767133
1.1438127090301002,8.531050450685498
1.1638795986622072,8.518397126954673
1.1839464882943145,8.503915920321385
1.2040133779264215,8.487653232802316
1.2240802675585283,8.469661414344051
1.2441471571906353,8.44999869201986
1.2642140468227423,8.428729087920864
1.2842809364548495,8.405922324799828
1.3043478260869565,8.381653718428375
1.3244147157190636,8.356004055533601
1.3444816053511706,8.329059456090258
1.3645484949832773,8.300911218661822
1.3846153846153846,8.271655647409473
1.4046822742474916,8.241393859327667
1.4247491638795986,8.21023157021907
1.4448160535117056,8.178278857896904
1.4648829431438126,8.145649901101878
1.4849498327759196,8.11246269264975
1.5050167224080266,8.078838725388898
1.5250836120401337,8.044902649650776
1.5451505016722407,8.010781901025167
1.5652173913043477,7.976606297492368
1.5852842809364547,7.9425076052000705
1.605351170568562,7.9086190724888175
1.625418060200669,7.875074932149206
1.6454849498327757,7.842009872337595
1.6655518394648827,7.809558477085877
1.6856187290969897,7.777854637910884
1.705685618729097,7.747030938655792
1.725752508361204,7.7172180163705955
1.745819397993311,7.688543901749433
1.765886287625418,7.6611333433742015
1.7859531772575248,7.635107120747436
1.806020066889632,7.610581351811072
1.826086956521739,7.587666801317164
1.846153846153846,7.566468197014796
1.866220735785953,7.547083561117239
1.8862876254180598,7.529603564888692
1.9063545150501673,7.514110914413419
1.926421404682274,7.5006797756623005
1.9464882943143813,7.4893752468340375
1.966555183946488,7.480252885609429
1.9866220735785953,7.473358298415783
2.0066889632107023,7.4687267980564425
2.026755852842809,7.466383135133911
2.0468227424749164,7.4663413076037495
2.0668896321070234,7.468604451571619
2.0869565217391304,7.473164815122641
2.1070234113712374,7.480003815592841
2.1270903010033444,7.489092179299952
2.1471571906354514,7.500390161391063
2.1672240802675584,7.513847842179477
2.1872909698996654,7.529405495172837
2.2073578595317724,7.546994020971946
2.2274247491638794,7.566535440371514
2.2474916387959865,7.587943439338101
2.267558528428094,7.611123958086484
2.2876254180602005,7.635975816224685
2.3076923076923075,7.662391365882848
2.3277591973244145,7.690257164868298
2.3478260869565215,7.719454662179587
2.367892976588629,7.749860888641472
2.3879598662207355,7.78134914596603
2.408026755852843,7.813789688173775
2.4280936454849495,7.8470503899965935
2.4481605351170566,7.8809973976057695
2.468227424749164,7.915495757739484
2.4882943143812706,7.950410022025335
2.508361204013378,7.98560482398619
2.5284280936454846,8.02094542686984
2.548494983277592,8.056298241042747
2.568561872909699,8.091531310229465
2.5886287625418056,8.126514766357998
2.608695652173913,8.161121253184819
2.6287625418060196,8.195226319223924
2.648829431438127,8.228708780792187
2.668896321070234,8.261451056214351
2.688963210702341,8.29333947240748
2.709030100334448,8.324264545193778
2.7290969899665547,8.354121234776171
2.749163879598662,8.382809177859292
2.769230769230769,8.410232897914565
2.789297658862876,8.436301995076962
2.809364548494983,8.460931317127587
2.82943143812709,8.484041112964503
2.849498327759197,8.505557169897964
2.869565217391304,8.525410936029461
2.8896321070234112,8.543539628887965
2.9096989966555182,8.559886331405606
2.9297658862876252,8.57440007621955
2.9498327759197323,8.587035919188713
2.9698996655518393,8.597755002914747
2.9899665551839463,8.60652461095707
3.0100334448160533,8.613318213331866
3.0301003344481603,8.61811550378617
3.0501672240802673,8.6209024292395
3.0702341137123748,8.621671211687632
3.0903010033444813,8.620420362766119
3.1103678929765888,8.617154691073722
3.1304347826086953,8.611885302259626
3.1505016722408024,8.604629591780363
3.1705685618729094,8.595411230134985
3.1906354515050164,8.584260140288027
3.210702341137124,8.57121246689
3.2307692307692304,8.556310536803604
3.250836120401338,8.539602810341366
3.270903010033445,8.521143822516379
3.2909698996655514,8.500994113502705
3.311036789297659,8.479220147396807
3.3311036789297654,8.455894218265996
3.351170568561873,8.431094342366256
3.3712374581939795,8.40490413531108
3.391304347826087,8.377412672876698
3.411371237458194,8.348714334040507
3.4314381270903005,8.318908624769925
3.451505016722408,8.288099981013863
3.471571906354515,8.256397549299454
3.491638795986622,8.223914943310461
3.511705685618729,8.190769974822304
3.531772575250836,8.1570843574002
3.551839464882943,8.12298338133517
3.5719063545150496,8.088595558405078
3.591973244147157,8.054052235209177
3.612040133779264,8.019487174041826
3.632107023411371,7.985036100548559
3.652173913043478,7.950836217750779
3.672240802675585,7.917025686436771
3.692307692307692,7.883743072398434
3.712374581939799,7.851126761544567
3.732441471571906,7.819314344539574
3.752508361204013,7.788441973294596
3.7725752508361197,7.758643692367364
3.7926421404682276,7.730050749093441
3.8127090301003346,7.702790887058141
3.832775919732441,7.676987628304472
3.852842809364548,7.6527595504333865
3.872909698996655,7.630219565461086
3.8929765886287626,7.609474207925896
3.9130434782608696,7.5906229402531835
3.933110367892976,7.573757483762865
3.953177257525083,7.558961183912576
3.9732441471571907,7.5463084183880715
3.9933110367892977,7.535864056462917
4.013377926421405,7.527682977642261
4.033444816053511,7.52180965697823
4.053511705685618,7.5182778236050805
4.073578595317726,7.517110198005949
4.093645484949833,7.518318312318601
4.113712374581939,7.521902416645662
4.133779264214047,7.527851472899933
4.153846153846153,7.536143236230797
4.173913043478261,7.546744422593443
4.193979933110368,7.559610959586308
4.214046822742475,7.57468831633959
4.234113712374581,7.591911907030617
4.254180602006689,7.611207561563107
4.274247491638796,7.632492056104647
4.294314381270903,7.655673695544682
4.314381270903009,7.680652939523137
4.334448160535117,7.707323063484059
4.354515050167224,7.735570846220291
4.374581939799331,7.765277275575942
4.394648829431437,7.796318264341292
4.414715719063545,7.828565368882122
4.434782608695651,7.861886503663999
4.454849498327759,7.896146645531799
4.474916387959866,7.93120852235668
4.494983277591973,7.966933281440279
4.5150501672240795,8.003181133844624
4.535117056856188,8.03981197157534
4.555183946488294,8.076685955268491
4.575250836120401,8.113664070703898
4.595317725752508,8.150608653081271
4.615384615384615,8.187383878543017
4.635451505016722,8.22385622290656
4.655518394648829,8.259894887978597
4.6755852842809364,8.295372196165415
4.695652173913043,8.330163954371084
4.71571906354515,8.364149788392176
4.735785953177258,8.397213449180493
4.7558528428093645,8.429243092458599
4.775919732441471,8.460131533243208
4.795986622073578,8.489776476864728
4.816053511705686,8.518080728072606
4.8361204013377925,8.544952379791253
4.856187290969899,8.570304983045256
4.8762541806020065,8.594057699508808
4.896321070234113,8.616135438057828
4.916387959866221,8.63646897661612
4.936454849498328,8.654995070493035
4.956521739130435,8.671656548310635
4.976588628762541,8.686402396516382
4.996655518394649,8.699187833372873
5.016722408026756,8.709974373211635
5.036789297658863,8.718729881633012
5.056856187290969,8.725428622230147
5.076923076923077,8.730051295311329
5.096989966555184,8.732585068992455
5.117056856187291,8.733023602929304
5.137123745819398,8.731367064857825
5.157190635451505,8.727622140009045
5.177257525083611,8.72180203336377
5.197324414715719,8.713926464609788
5.217391304347826,8.704021655560842
5.237458193979933,8.692120309691838
5.257525083612039,8.678261583338081
5.277591973244148,8.662491047997825
5.297658862876254,8.644860643066473
5.317725752508361,8.625428618218457
5.337792642140468,8.604259464538254
5.357859531772575,8.581423833386568
5.377926421404682,8.556998441872198
5.397993311036789,8.53106596368527
5.418060200668896,8.503714903935577
5.438127090301003,8.475039456532386
5.458193979933109,8.445139342542568
5.478260869565218,8.414119627874
5.498327759197324,8.382090518556959
5.518394648829431,8.349167131839739
5.538461538461538,8.315469241282603
5.558528428093646,8.281120994031546
5.578595317725752,8.246250598486121
5.598662207357859,8.210989980650904
5.618729096989966,8.1754744075846
5.638795986622073,8.139842076541218
5.65886287625418,8.104233668641347
5.678929765886288,8.068791866223753
5.698996655518394,8.033660833414814
5.719063545150501,7.998985659917442
5.739130434782608,7.9649117685663695
5.759197324414716,7.9315842878201686
5.7792642140468224,7.899147391059012
5.799331103678929,7.867743605324242
5.8193979933110365,7.8375130929583205
5.839464882943144,7.808592910466881
5.8595317725752505,7.78111624980787
5.879598662207358,7.755211668190758
5.8996655518394645,7.731002313314185
5.919732441471571,7.708605151750048
5.9397993311036785,7.688130208863647
5.959866220735786,7.6696798292074115
5.9799331103678925,7.6533479667080035
5.999999999999999,7.639219514152341
6.020066889632107,7.627369681442295
6.040133779264214,7.617863431813516
6.060200668896321,7.610754984689664
6.080267558528428,7.606087393072743
6.100334448160535,7.603892202362213
6.120401337792642,7.604189196274887
6.1404682274247495,7.606986234135643
6.160535117056856,7.61227918226948
6.180602006688963,7.620051940596331
6.200668896321069,7.630276563866376
6.2207357859531776,7.642913475330782
6.240802675585284,7.65791176907559
6.260869565217391,7.675209595805692
6.280936454849498,7.694734625594894
6.301003344481605,7.716404580053062
6.321070234113712,7.740127825526488
6.341137123745819,7.7658040183574855
6.361204013377926,7.793324792887179
6.381270903010033,7.822574482783904
6.40133779264214,7.853430866403677
6.421404682274248,7.885765927214109
6.441471571906354,7.919446620811321
6.461538461538461,7.954335640698
6.481605351170568,7.990292175735386
6.501672240802676,8.027172653000635
6.521739130434782,8.064831460639386
6.54180602006689,8.103121646174628
6.561872909698996,8.141895586590513
6.581939799331103,8.18100562733216
6.60200668896321,8.220304688134343
6.622073578595318,8.259646834299105
6.642140468227424,8.298887812677929
6.662207357859531,8.337885552172267
6.682274247491639,8.376500629046518
6.702341137123746,8.414596697750023
6.722408026755852,8.45204088827378
6.742474916387959,8.488704171326747
6.762541806020066,8.52446169281286
6.782608695652174,8.55919307922903
6.80267558528428,8.59278271569337
6.822742474916388,8.625119998358478
6.842809364548494,8.656099562973493
6.862876254180601,8.685621491336628
6.882943143812709,8.71359149733309
6.903010033444816,8.739921094186426
6.9230769230769225,8.764527744468866
6.94314381270903,8.787334994322574
6.963210702341137,8.808272593240899
6.983277591973244,8.827276600651324
7.0033444816053505,8.844289480429696
7.023411371237458,8.859260184362203
7.0434782608695645,8.872144225457653
7.063545150501672,8.882903741898888
7.083612040133779,8.89150755230924
7.103678929765886,8.897931202898633
7.123745819397993,8.902157006943273
7.143812709030099,8.90417407694359
7.1638795986622075,8.90397834969655
7.183946488294314,8.90157260441026
7.204013377926421,8.896966473880466
7.224080267558528,8.890176448639552
7.2441471571906355,8.881225873878526
7.264214046822742,8.870144938830475
7.2842809364548495,8.85697065818973
7.304347826086956,8.841746845024364
7.324414715719063,8.824524074519255
7.34448160535117,8.80535963776464
7.364548494983278,8.78431748467849
7.384615384615384,8.761468155022488
7.404682274247491,8.73688869634067
7.424749163879598,8.710662567517401
7.444816053511706,8.682879526520027
7.464882943143812,8.653635500761892
7.48494983277592,8.623032438396601
7.505016722408026,8.59117813873768
7.525083612040134,8.558186059892337
7.545150501672239,8.524175101608789
7.565217391304348,8.48926936126924
7.585284280936455,8.453597860920137
7.605351170568561,8.417294243225667
7.625418060200669,8.380496434266504
7.645484949832775,8.34334627119165
7.665551839464882,8.305989092875263
7.685618729096991,8.268573291941305
7.705685618729096,8.231249826804465
7.725752508361204,8.194171692743932
7.74581939799331,8.157493351483199
7.765886287625418,8.121370119299218
7.785953177257525,8.085957514328747
7.806020066889631,8.051410564478537
7.826086956521739,8.017883078173242
7.846153846153847,7.985526881080855
7.866220735785952,7.954491022926066
7.88628762541806,7.924920959515714
7.906354515050166,7.89695771613319
7.926421404682274,7.870737039478235
7.946488294314381,7.846388546300174
7.966555183946488,7.824034877756646
7.986622073578595,7.803790869285411
8.006688963210701,7.785762746362938
8.02675585284281,7.770047356899946
8.046822742474916,7.756731451157579
8.066889632107022,7.74589101992982
8.08695652173913,7.737590701310315
8.107023411371236,7.731883265639032
8.127090301003344,7.728809187210403
8.147157190635452,7.728396310041486
8.167224080267557,7.73065961347832
8.187290969899665,7.735601081705346
8.207357859531772,7.743209679374287
8.227424749163879,7.753461433645021
8.247491638795987,7.7663196210013785
8.267558528428093,7.781735055334379
8.2876254180602,7.799646472039148
8.307692307692307,7.8199810013059805
8.327759197324415,7.842654722448131
8.347826086956522,7.867573290033602
8.367892976588628,7.894632621798476
8.387959866220736,7.923719637822666
8.408026755852843,7.954713040242034
8.42809364548495,7.987484122836906
8.448160535117056,8.021897600150988
8.468227424749163,8.05781244632276
8.488294314381271,8.09508273451661
8.508361204013378,8.133558468681407
8.528428093645484,8.173086400300248
8.548494983277592,8.213510823786791
8.568561872909697,8.25467434519594
8.588628762541806,8.296418619917302
8.608695652173914,8.338585055983174
8.628762541806019,8.381015480527616
8.648829431438127,8.423552767763674
8.668896321070234,8.46604142759178
8.68896321070234,8.50832815460746
8.709030100334449,8.55026233783892
8.729096989966555,8.591696532016362
8.749163879598662,8.632486891557653
8.769230769230768,8.672493568757057
8.789297658862875,8.71158107788971
8.809364548494983,8.749618627104502
8.82943143812709,8.786480420078545
8.849498327759196,8.822045929456607
8.869565217391303,8.856200144106289
8.889632107023411,8.888833792191626
8.909698996655518,8.919843542011346
8.929765886287624,8.94913218246885
8.949832775919733,8.97660878494443
8.96989966555184,9.00218884823159
8.989966555183946,9.025794428080884
9.010033444816054,9.047354252771438
9.030100334448159,9.066803826003186
9.050167224080267,9.084085518274714
9.070234113712376,9.099148647783746
9.09030100334448,9.111949551759967
9.110367892976589,9.122451649015115
9.130434782608695,9.130625494371936
9.150501672240802,9.136448825512193
9.17056856187291,9.139906602664782
9.190635451505017,9.140991041436749
9.210702341137123,9.139701638972756
9.23076923076923,9.136045193511505
9.250836120401337,9.130035817289729
9.270903010033445,9.121694942625552
9.290969899665551,9.111051320891557
9.311036789297658,9.098141013964057
9.331103678929765,9.083007377607315
9.351170568561873,9.065701036119883
9.37123745819398,9.046279847433782
9.391304347826086,9.024808857716513
9.411371237458194,9.001360244379718
9.4314381270903,8.976013246248638
9.451505016722408,8.948854079492229
9.471571906354516,8.91997583775795
9.49163879598662,8.889478374797573
9.511705685618729,8.857468167715465
9.531772575250837,8.824058158819534
9.551839464882942,8.789367573912815
9.57190635451505,8.753521714734674
9.591973244147155,8.716651723150356
9.612040133779264,8.678894314603177
9.632107023411372,8.640391478292855
9.652173913043477,8.601290141533791
9.672240802675585,8.561741795790097
9.692307692307692,8.521902081988191
9.712374581939798,8.48193033288461
9.732441471571907,8.44198907052673
9.752508361204013,8.402243457197798
9.77257525083612,8.36286069869501
9.792642140468226,8.324009399356953
9.812709030100335,8.285858868941364
9.832775919732441,8.248578382256394
9.852842809364548,8.212336393367147
9.872909698996656,8.177299707225583
9.89297658862876,8.143632612692652
9.91304347826087,8.111495982117072
9.933110367892976,8.081046343875835
9.953177257525082,8.052434935535512
9.97324414715719,8.025806746516691
9.993311036789297,8.001299560291859
10.013377926421404,7.979043007167296
10.033444816053512,7.959157639540183
10.053511705685617,7.941754042131436
10.073578595317725,7.92693199002522
10.093645484949834,7.914779667356683
10.113712374581938,7.905372959152417
10.133779264214047,7.898774828124905
10.153846153846153,7.895034787155717
10.17391304347826,7.894188476786551
10.193979933110368,7.896257355310106
10.214046822742475,7.90124850706257
10.234113712374581,7.9091545723346695
10.254180602006688,7.919953800013159
10.274247491638796,7.933610221724137
10.294314381270903,7.950073943958493
10.31438127090301,7.969281552500552
10.334448160535118,7.991156621528355
10.354515050167223,8.015610318071015
10.37458193979933,8.042542091143
10.394648829431437,8.071840433858652
10.414715719063544,8.103383706176233
10.434782608695652,8.137041005626601
10.454849498327757,8.172673073428223
10.474916387959865,8.210133223746716
10.494983277591974,8.249268284482469
10.515050167224079,8.289919538814903
10.535117056856187,8.33192365774753
10.555183946488295,8.375113615030244
10.5752508361204,8.419319577036454
10.595317725752508,8.464369761396547
10.615384615384615,8.510091259397171
10.635451505016722,8.556310818314135
10.65551839464883,8.602855580930648
10.675585284280936,8.649553780482242
10.695652173913043,8.69623539015309
10.71571906354515,8.742732727018938
10.735785953177256,8.788881010987724
10.755852842809364,8.834518879832437
10.775919732441471,8.87948886184704
10.795986622073578,8.9236378079949
10.816053511705684,8.966817285666293
10.836120401337793,9.008883936330621
10.856187290969899,9.049699799468348
10.876254180602006,9.089132605208126
10.896321070234114,9.127056038086595
10.916387959866219,9.163349974299686
10.936454849498327,9.197900694734791
10.956521739130435,9.230601075968563
10.97658862876254,9.261350761292926
10.996655518394649,9.290056313696732
11.016722408026755,9.31663135258713
11.036789297658862,9.340996675886647
11.05685618729097,9.363080368992053
