Frequency (Hz),Amplitude
0.0,1.2455070365866197
0.019867549668874173,1.256314555516697
0.039735099337748346,1.288151834422853
0.059602649006622516,1.3394010440679593
0.07947019867549669,1.4077555016519556
0.09933774834437085,1.4906160592757867
0.11920529801324503,1.5854118268709012
0.13907284768211922,1.6897957155142016
0.15894039735099338,1.8017284694244728
0.17880794701986755,1.9194890138691434
0.1986754966887417,2.0416464432941637
0.2185430463576159,2.167017465037131
0.23841059602649006,2.294622388370549
0.2582781456953642,2.423645576854827
0.27814569536423844,2.5534022823355125
0.2980132450331126,2.6833118513916805
0.31788079470198677,2.812876521280763
0.33774834437086093,2.941664820389887
0.3576158940397351,3.0692986366052875
0.3774834437086093,3.195443154633315
0.3973509933774834,3.3197990162969755
0.4172185430463576,3.442096196397904
0.4370860927152318,3.5620892017954553
0.45695364238410596,3.679553292750553
0.4768211920529801,3.7942814964386007
0.49668874172185434,3.9060822367439014
0.5165562913907285,4.014777445641135
0.5364238410596026,4.120201052690092
0.5562913907284769,4.222197772834274
0.5761589403973509,4.320622130663835
0.5960264900662252,4.415337672990463
0.6158940397350993,4.50621633204805
0.6357615894039735,4.593137909669747
0.6556291390728477,4.6759896589951895
0.6754966887417219,4.7546659450708635
0.695364238410596,4.8290679694564
0.7152317880794702,4.899103546887296
0.7350993377483444,4.9646869243591265
0.7549668874172186,5.025738634831231
0.7748344370860927,5.082185379207425
0.7947019867549668,5.133959931420515
0.8145695364238411,5.1810010623882405
0.8344370860927152,5.2232534793718965
0.8543046357615894,5.260667777890481
0.8741721854304636,5.2932004038550255
0.8940397350993378,5.320813624010623
0.9139072847682119,5.343475503128277
0.9337748344370861,5.36115988668718
0.9536423841059603,5.373846388044833
0.9735099337748344,5.381520379314826
0.9933774834437087,5.384172985369755
1.0132450331125828,5.381801080565549
1.033112582781457,5.374407287949723
1.0529801324503312,5.361999980874758
1.0728476821192052,5.344593287094065
1.0927152317880795,5.322207095576906
1.1125827814569538,5.294867066444629
1.1324503311258278,5.262604644609186
1.1523178807947019,5.225457077892427
1.1721854304635762,5.183467440627004
1.1920529801324504,5.13668466399581
1.2119205298013245,5.085163574665298
1.2317880794701985,5.0289649436216175
1.2516556291390728,4.968155547541085
1.271523178807947,4.902808245536434
1.2913907284768211,4.8330020747414615
1.3112582781456954,4.7588223689574
1.3311258278145695,4.6803609055233455
1.3509933774834437,4.597716086738486
1.370860927152318,4.5109931636190375
1.390728476821192,4.42030451159935
1.410596026490066,4.325769970092947
1.4304635761589404,4.2275172607555795
1.4503311258278146,4.125682503026324
1.4701986754966887,4.020410850311399
1.4900662251655628,3.9118572763482318
1.5099337748344372,3.800187549284625
1.5298013245033113,3.6855794414172456
1.5496688741721854,3.568224236143219
1.5695364238410596,3.4483286115389378
1.5894039735099337,3.326117003492243
1.609271523178808,3.201834582320685
1.6291390728476822,3.075751017702349
1.6490066225165563,2.948165260537322
1.6688741721854303,2.819411640639395
1.6887417218543048,2.689867669776306
1.7086092715231789,2.5599640536194315
1.728476821192053,2.4301975534779245
1.7483443708609272,2.3011474903325717
1.7682119205298013,2.1734968203190306
1.7880794701986755,2.048058759766228
1.8079470198675496,1.9258097406224
1.8278145695364238,1.8079287177246448
1.847682119205298,1.695840955585343
1.8675496688741722,1.5912604900193783
1.8874172185430464,1.4962184005270105
1.9072847682119205,1.4130534425437236
1.9271523178807946,1.3443301357306512
1.9470198675496688,1.2926466168525719
1.9668874172185429,1.2603178159648638
1.9867549668874174,1.2489814001993134
2.0066225165562916,1.2592523990892799
2.0264900662251657,1.2905790375361836
2.0463576158940397,1.341372890058603
2.066225165562914,1.4093470717444907
2.086092715231788,1.491911391252825
2.1059602649006623,1.5864951326735184
2.1258278145695364,1.6907458385876497
2.1456953642384105,1.8026162218379138
2.165562913907285,1.9203764722542727
2.185430463576159,2.042587339272205
2.205298013245033,2.1680580677286163
2.2251655629139075,2.29580252626613
2.2450331125827816,2.4249996203795603
2.2649006622516556,2.5549600118413522
2.2847682119205297,2.6850991901368566
2.3046357615894038,2.814916138903394
2.324503311258278,2.943976622719218
2.3443708609271523,3.0719001602099087
2.364238410596027,3.1983498835526305
2.384105960264901,3.323024636123959
2.403973509933775,3.4456527983237386
2.423841059602649,3.565987446843613
2.443708609271523,3.683802544381057
2.463576158940397,3.798889928018135
2.4834437086092715,3.911056919023057
2.5033112582781456,4.020124418305645
2.52317880794702,4.125925383207348
2.543046357615894,4.22830360515277
2.562913907284768,4.327112725803102
2.5827814569536423,4.422215443150998
2.6026490066225163,4.513482869549589
2.622516556291391,4.600794011773718
2.642384105960265,4.684035349466448
2.662251655629139,4.763100493175271
2.6821192052980134,4.837889906963654
2.7019867549668874,4.908310683547246
2.7218543046357615,4.974276362237829
2.741721854304636,5.0357067818273435
2.76158940397351,5.0925279620160255
2.781456953642384,5.144672008167847
2.801324503311258,5.19207703512564
2.821192052980132,5.2346871065878275
2.8410596026490067,5.272452187176007
2.8609271523178808,5.305328104838154
2.8807947019867552,5.333276521659291
2.9006622516556293,5.356264911507968
2.9205298013245033,5.374266543248944
2.9403973509933774,5.387260468510321
2.9602649006622515,5.395231513218151
2.9801324503311255,5.398170272310533
3.0,5.396073107223353
3.0198675496688745,5.388942145907271
3.0397350993377485,5.376785285295522
3.0596026490066226,5.359616196299385
3.0794701986754967,5.337454331568137
3.0993377483443707,5.310324936417343
3.119205298013245,5.278259063509214
3.1390728476821192,5.241293592067379
3.1589403973509933,5.199471252632056
3.1788079470198674,5.152840658618925
3.198675496688742,5.101456346245343
3.218543046357616,5.045378824742566
3.23841059602649,4.984674639197036
3.2582781456953644,4.919416448876315
3.2781456953642385,4.8496831245184895
3.2980132450331126,4.775559868827366
3.3178807947019866,4.697138365357951
3.3377483443708607,4.614516962145309
3.3576158940397347,4.527800897888502
3.3774834437086096,4.43710258033176
3.3973509933774837,4.342541928794579
3.4172185430463577,4.244246795731975
3.437086092715232,4.142353485941778
3.456953642384106,4.037007396823944
3.47682119205298,3.928363809265515
3.4966887417218544,3.8165888667101773
3.5165562913907285,3.701860790358582
3.5364238410596025,3.584371392013181
3.556291390728477,3.4643279638714395
3.576158940397351,3.3419556479650576
3.596026490066225,3.2175004187579677
3.615894039735099,3.0912328530018938
3.6357615894039736,2.963452914251767
3.6556291390728477,2.834496048958972
3.6754966887417218,2.704740980489675
3.695364238410596,2.5746196996393667
3.7152317880794703,2.444630284804297
3.7350993377483444,2.315353332666051
3.754966887417219,2.1874729114899485
3.774834437086093,2.0618029915066263
3.794701986754967,1.9393201034662808
3.814569536423841,1.8212022166230477
3.834437086092715,1.7088719513065254
3.854304635761589,1.6040383696622649
3.8741721854304636,1.5087246711548725
3.8940397350993377,1.4252587871485805
3.9139072847682117,1.3561927232792697
3.9337748344370858,1.304113768960551
3.9536423841059607,1.271333166911733
3.9735099337748347,1.2594978085027029
3.993377483443709,1.2692471526670206
4.013245033112583,1.3000650384071097
4.033112582781457,1.3504008141869217
4.052980132450331,1.4179984455237495
4.072847682119205,1.5002867817195584
4.0927152317880795,1.5947022990295396
4.112582781456953,1.6988907217075513
4.132450331125828,1.8107974219204892
4.152317880794702,1.9286826015398415
4.172185430463576,2.05109629466427
4.19205298013245,2.176837397388158
4.211920529801325,2.3049103204534536
4.231788079470199,2.4344855838460857
4.251655629139073,2.5648665334388174
4.271523178807947,2.6954623226174887
4.291390728476821,2.825766456622155
4.311258278145695,2.9553399533406948
4.33112582781457,3.083798199790409
4.3509933774834435,3.2108007094589777
4.370860927152318,3.3360431331895892
4.390728476821192,3.459251012651562
4.410596026490066,3.5801748799190145
4.43046357615894,3.6985863982462437
4.450331125827815,3.8142753104547245
4.470198675496689,3.9270470161013002
4.490066225165563,4.036720640312602
4.509933774834438,4.143127488850321
4.529801324503311,4.246109808021407
4.549668874172186,4.345519786332149
4.569536423841059,4.441218748726382
4.589403973509934,4.5330765049167665
4.6092715231788075,4.620970821516685
4.629139072847682,4.704786994010537
4.649006622516556,4.784417499511627
4.66887417218543,4.859761715086348
4.688741721854305,4.930725689425669
4.708609271523179,4.997221958009816
4.728476821192054,5.059169393786355
4.748344370860927,5.116493086873707
4.768211920529802,5.169124247997759
4.788079470198675,5.2170001313316385
4.80794701986755,5.260063973189321
4.827814569536423,5.29826494365987
4.847682119205298,5.3315581087921
4.867549668874172,5.359904401372636
4.887417218543046,5.3832705987022305
4.9072847682119205,5.401629306081175
4.927152317880794,5.414958944976821
4.947019867549669,5.423243745073773
4.966887417218543,5.426473739609612
4.986754966887418,5.424644763581337
5.006622516556291,5.417758454578101
5.026490066225166,5.40582225615743
5.04635761589404,5.3888494238423155
5.066225165562914,5.3668590339781135
5.086092715231788,5.339875995858006
5.105960264900662,5.307931067707835
5.125827814569536,5.271060877322399
5.14569536423841,5.2293079483716465
5.1655629139072845,5.182720733656273
5.185430463576159,5.131353656895274
5.205298013245033,5.075267164988157
5.225165562913908,5.014527793123085
5.245033112582782,4.949208245620506
5.264900662251656,4.879387496031524
5.28476821192053,4.80515091078149
5.304635761589404,4.726590401600073
5.324503311258278,4.64380461315819
5.344370860927152,4.556899153802812
5.364238410596027,4.465986879125013
5.3841059602649,4.371188240422106
5.403973509933775,4.272631713062408
5.4238410596026485,4.1704543235166875
5.443708609271523,4.0648022986299175
5.463576158940397,3.955831866896526
5.483443708609272,3.8437102495071125
5.503311258278146,3.7286168893332343
5.52317880794702,3.6107449795822597
5.543046357615895,3.490303371613481
5.562913907284768,3.3675189647199106
5.582781456953643,3.242639711328168
5.602649006622516,3.1159384113409847
5.622516556291391,2.9877175220929884
5.642384105960264,2.8583152789500903
5.662251655629139,2.728113509411767
5.682119205298013,2.5975476331785403
5.701986754966887,2.467119471039035
5.7218543046357615,2.3374136265871686
5.741721854304636,2.20911832623979
5.7615894039735105,2.0830516316924186
5.781456953642384,1.9601937186467153
5.801324503311259,1.841725140563756
5.821192052980132,1.729069121578563
5.841059602649007,1.6239321044467647
5.860927152317881,1.5283300316282353
5.880794701986755,1.44457786750924
5.900662251655629,1.375209269305665
5.920529801324503,1.3227909778720546
5.940397350993377,1.2896183591191235
5.960264900662251,1.2773360707141348
5.980132450331126,1.2866012611460729
6.0,1.3169338597202556
6.0198675496688745,1.3668280384400442
6.039735099337749,1.4340690210249012
6.059602649006623,1.516114820611598
6.079470198675497,1.6104166076255377
6.099337748344371,1.7146224887646988
6.119205298013245,1.8266718104366593
6.139072847682119,1.9448140418839712
6.158940397350993,2.0675865037616856
6.178807947019867,2.1937751091508693
6.198675496688741,2.3223719517501658
6.218543046357616,2.4525363287150066
6.23841059602649,2.5835615873939917
6.258278145695365,2.7148480780885142
6.2781456953642385,2.8458815948579317
6.298013245033113,2.9762164056331706
6.317880794701987,3.105461975834356
6.337748344370861,3.2332726025687926
6.357615894039735,3.3593393168119694
6.377483443708609,3.4833835435833995
6.397350993377484,3.6051521228003627
6.417218543046357,3.7244133843039955
6.437086092715232,3.8409540416707615
6.456953642384105,3.9545767242380645
6.47682119205298,4.065098008664485
6.496688741721854,4.172346843238427
6.516556291390729,4.276163282409657
6.5364238410596025,4.3763974674951385
6.556291390728477,4.472908803618231
6.5761589403973515,4.565565293749289
6.596026490066225,4.654242999031071
6.6158940397351,4.7388256009980765
6.635761589403973,4.819204046288737
6.655629139072848,4.8952762583424745
6.675496688741721,4.966946903627423
6.695364238410596,5.034127202352178
6.715231788079469,5.096734775522526
6.735099337748344,5.154693521724755
6.754966887417219,5.207933518234805
6.774834437086093,5.256390942034198
6.794701986754967,5.300008007109243
6.814569536423841,5.338732915059133
6.8344370860927155,5.3725198165721135
6.854304635761589,5.401328781770767
6.874172185430464,5.425125777797087
6.894039735099337,5.4438826523202675
6.913907284768212,5.457577121917744
6.933774834437086,5.46619276451267
6.95364238410596,5.469719015257202
6.973509933774834,5.468151165437672
6.993377483443709,5.461490364151358
7.013245033112583,5.449743622669971
7.033112582781457,5.432923821568345
7.052980132450331,5.411049720861919
7.072847682119205,5.384145973570089
7.0927152317880795,5.352243143308137
7.112582781456954,5.315377726715948
7.132450331125828,5.2735921817628375
7.152317880794702,5.226934963233486
7.172185430463576,5.175460567009801
7.19205298013245,5.119229585129189
7.211920529801324,5.0583087740374815
7.231788079470198,4.992771138981188
7.251655629139073,4.922696038124954
7.271523178807947,4.848169310763571
7.291390728476822,4.769283434964215
7.311258278145695,4.686137721171074
7.33112582781457,4.598838549796689
7.3509933774834435,4.507499662692978
7.370860927152318,4.412242520750185
7.390728476821192,4.313196742852821
7.410596026490066,4.210500645216999
7.430463576158941,4.104301904986354
7.450331125827814,3.994758378202122
7.470198675496689,3.8820391103176752
7.490066225165562,3.7663255878742836
7.509933774834438,3.647813293556486
7.52980132450331,3.5267136446145995
7.549668874172186,3.40325641790965
7.569536423841059,3.277692795337926
7.589403973509934,3.1502992033369654
7.6092715231788075,3.0213821722815264
7.629139072847682,2.8912845089692714
7.649006622516557,2.7603931611790378
7.66887417218543,2.6291492594137584
7.6887417218543055,2.498060945587387
7.708609271523178,2.3677197303448305
7.728476821192054,2.238821227887489
7.748344370860927,2.1121911249707543
7.768211920529802,1.98881699278653
7.788079470198675,1.8698857457404534
7.80794701986755,1.7568246627417357
7.827814569536423,1.65134011557474
7.847682119205298,1.5554415976501237
7.8675496688741715,1.4714291417964545
7.887417218543046,1.4018123830545033
7.907284768211921,1.3491278897190713
7.927152317880795,1.3156427922200167
7.9470198675496695,1.302987418215929
7.966887417218543,1.3118286603589544
7.986754966887418,1.3417214729877547
8.006622516556291,1.391210529439554
8.026490066225167,1.4581319591762723
8.046357615894038,1.5399830189061454
8.066225165562914,1.6342375498761583
8.086092715231787,1.7385509404387205
8.105960264900663,1.8508585195224028
8.125827814569536,1.9693988487498608
8.14569536423841,2.0926949500544314
8.165562913907285,2.2195173880956176
8.185430463576159,2.3488432351184305
8.205298013245034,2.4798177999142985
8.225165562913906,2.6117217637713197
8.245033112582782,2.743944185205214
8.264900662251655,2.8759608699751738
8.28476821192053,3.00731727553767
8.304635761589404,3.137615091994253
8.324503311258278,3.2665017363108895
8.344370860927151,3.3936621264406788
8.364238410596027,3.5188122288131423
8.3841059602649,3.6416939823002137
8.403973509933774,3.7620712911189167
8.42384105960265,3.879726849646739
8.443708609271523,3.994459616791817
8.463576158940398,4.1060827995252245
8.483443708609272,4.214422237248292
8.503311258278146,4.319315103131859
8.52317880794702,4.420608857242657
8.543046357615895,4.518160400563642
8.562913907284768,4.611835389984418
8.582781456953642,4.701507682790222
8.602649006622515,4.7870588857184115
8.62251655629139,4.8683779887355625
8.642384105960264,4.945361067660738
8.66225165562914,5.017911042877851
8.682119205298013,5.0859374838407145
8.701986754966887,5.149356451025495
8.721854304635762,5.20809036854102
8.741721854304636,5.262067921854797
8.76158940397351,5.311223976098272
8.781456953642383,5.35549951123003
8.801324503311259,5.3948415710020905
8.821192052980132,5.429203223221116
8.841059602649008,5.458543529250572
8.86092715231788,5.482827521079008
8.880794701986755,5.502026184600484
8.90066225165563,5.516116448028176
8.920529801324504,5.525081174601374
8.940397350993377,5.5289091589578865
8.960264900662251,5.527595126736132
8.980132450331126,5.521139737149443
9.0,5.509549588445796
9.019867549668875,5.492837226333591
9.039735099337747,5.471021155624618
9.059602649006623,5.444125855523284
9.079470198675496,5.412181799182374
9.099337748344372,5.375225478356932
9.119205298013245,5.333299434225146
9.139072847682119,5.2864522957182745
9.158940397350994,5.234738827019656
9.178807947019868,5.178219986268298
9.198675496688743,5.116962997951117
9.218543046357615,5.051041442008109
9.23841059602649,4.980535363330649
9.258278145695364,4.905531406135719
9.27814569536424,4.82612297868645
9.298013245033111,4.742410455052061
9.317880794701987,4.6545014221228005
9.33774834437086,4.562510982001314
9.357615894039736,4.466562122289228
9.37748344370861,4.366786169820507
9.397350993377483,4.2633233472461445
9.417218543046358,4.156323456796382
9.437086092715232,4.045946721860401
9.456953642384107,3.9323648251602963
9.47682119205298,3.815762192826329
9.496688741721854,3.696337587356395
9.516556291390728,3.5743060902580615
9.536423841059603,3.449901578424584
9.556291390728477,3.323379828660523
9.57615894039735,3.1950224243580196
9.596026490066224,3.0651416896779495
9.6158940397351,2.9340869425512244
9.635761589403973,2.8022524410316216
9.655629139072847,2.6700874992205406
9.675496688741722,2.5381093661847793
9.695364238410596,2.4069195811029944
9.715231788079471,2.277224606074634
9.735099337748345,2.1498615176285663
9.754966887417218,2.025829251777419
9.774834437086092,1.9063250495957709
9.794701986754967,1.7927838350128824
9.814569536423841,1.6869145304383202
9.834437086092716,1.5907209928041537
9.854304635761588,1.5064863164803097
9.874172185430464,1.4366903911787403
9.894039735099337,1.3838299455275163
9.913907284768213,1.3501313878082797
9.933774834437086,1.3371981866420606
9.95364238410596,1.345698099188174
9.973509933774835,1.375218692811786
9.993377483443709,1.4243594947461868
10.013245033112582,1.4910163699071726
10.033112582781456,1.572735786805164
10.052980132450331,1.6670226899039855
10.072847682119205,1.7715453806762458
10.09271523178808,1.8842379322828091
10.112582781456952,2.003328452098924
10.132450331125828,2.12732453187627
10.152317880794701,2.2549793095413735
10.172185430463577,2.385252283510682
10.192052980132452,2.5172720615196678
10.211920529801324,2.6503039762418044
10.2317880794702,2.7837232471045947
10.251655629139073,2.916993329791851
10.271523178807948,3.0496487121235583
10.29139072847682,3.1812813505238955
10.311258278145695,3.3115300125384564
10.331125827814569,3.4400719066809278
10.350993377483444,3.5666160996617484
10.370860927152318,3.690898326259365
10.390728476821192,3.8126768841322156
10.410596026490065,3.9317293752843057
10.43046357615894,4.0478501101316064
10.450331125827816,4.160848032005035
10.470198675496688,4.270545052089211
10.490066225165563,4.376774709434545
10.509933774834437,4.47938108955513
10.529801324503312,4.57821794960824
10.549668874172186,4.673148009296142
10.56953642384106,4.764042375235764
10.589403973509933,4.850780073213757
10.609271523178808,4.933247667939419
10.629139072847682,5.011338953971919
10.649006622516556,5.0849547046931045
10.66887417218543,5.1540024687209955
10.688741721854305,5.218396405162283
10.70860927152318,5.278057150701891
10.728476821192054,5.332911712810527
10.748344370860927,5.382893384386422
10.7682119205298,5.427941675987989
10.788079470198676,5.468002262500515
10.80794701986755,5.503026941644666
10.827814569536423,5.532973602203007
