Frequency (Hz),Amplitude
0.0,1.0662856899089883
0.019801980198019802,1.0657913234448697
0.039603960396039604,1.06430881469307
0.0594059405940594,1.0618399360020023
0.07920792079207921,1.058387642727209
0.09900990099009901,1.0539560754609056
0.1188118811881188,1.0485505632899832
0.13861386138613863,1.042177628224247
0.15841584158415842,1.0348449909843442
0.1782178217821782,1.026561578392996
0.19801980198019803,1.0173375326745937
0.21782178217821782,1.007184223040433
0.2376237623762376,0.9961142600215049
0.25742574257425743,0.9841415131114052
0.27722772277227725,0.9712811324036801
0.297029702970297,0.9575495750545079
0.31683168316831684,0.9429646375807179
0.33663366336633666,0.9275454952230094
0.3564356435643564,0.9113127498748124
0.37623762376237624,0.8942884884131501
0.39603960396039606,0.8764963536861081
0.4158415841584158,0.8579616309342335
0.43564356435643564,0.8387113530808128
0.45544554455445546,0.8187744291547805
0.4752475247524752,0.7981818011598827
0.495049504950495,0.7769666360371854
0.5148514851485149,0.755164561067528
0.5346534653465347,0.7328139532299602
0.5544554455445545,0.7099562958061505
0.5742574257425742,0.686636619066961
0.594059405940594,0.6629040464009885
0.613861386138614,0.6388124729890231
0.6336633663366337,0.6144214113564582
0.6534653465346534,0.589797047091664
0.6732673267326733,0.5650135588300231
0.6930693069306931,0.5401547690737372
0.7128712871287128,0.5153162056235011
0.7326732673267327,0.49060766491211527
0.7524752475247525,0.46615637302266427
0.7722772277227723,0.44211082698889326
0.7920792079207921,0.41864534826410266
0.8118811881188118,0.39596525754805084
0.8316831683168316,0.37431233090638294
0.8514851485148516,0.35396974693352223
0.8712871287128713,0.33526501140330217
0.891089108910891,0.3185683541518874
0.9108910891089109,0.30428307878296623
0.9306930693069307,0.29282402850887224
0.9504950495049505,0.2845819704263363
0.9702970297029703,0.2798764489830642
0.99009900990099,0.2789068432250536
1.00990099009901,0.2817169403860925
1.0297029702970297,0.2881867030585668
1.0495049504950495,0.29805467607500347
1.0693069306930694,0.31096186238312523
1.0891089108910892,0.32650145270083836
1.108910891089109,0.3442611910654118
1.1287128712871286,0.3638522058012213
1.1485148514851484,0.38492443516697367
1.1683168316831685,0.4071719589370654
1.188118811881188,0.43033207319743677
1.2079207920792079,0.454181169290326
1.227722772277228,0.4785294206000738
1.2475247524752475,0.503215407626505
1.2673267326732673,0.5281012263485579
1.2871287128712872,0.5530682810404255
1.3069306930693068,0.5780137821987149
1.3267326732673268,0.6028478873815534
1.3465346534653466,0.6274913931829295
1.3663366336633662,0.6518738835658402
1.3861386138613863,0.6759322484992023
1.405940594059406,0.6996094995633996
1.4257425742574257,0.722853822193668
1.4455445544554455,0.7456178159389513
1.4653465346534653,0.7678578840150997
1.4851485148514851,0.7895337415207608
1.504950495049505,0.8106080181580521
1.5247524752475248,0.8310459364207726
1.5445544554455446,0.8508150502350148
1.5643564356435644,0.869885032185953
1.5841584158415842,0.8882274999279463
1.6039603960396038,0.9058158743021
1.6237623762376237,0.9226252631968842
1.6435643564356437,0.9386323663744446
1.6633663366336633,0.9538153974219397
1.683168316831683,0.9681540197274561
1.7029702970297032,0.9816292939687362
1.7227722772277227,0.994223635071724
1.7425742574257426,1.005920776972061
1.7623762376237624,1.0167057438149012
1.782178217821782,1.026564826472994
1.801980198019802,1.0354855634617972
1.8217821782178218,1.0434567254927058
1.8415841584158414,1.0504683030394457
1.8613861386138615,1.0565114964029807
1.881188118811881,1.0615787078530554
1.900990099009901,1.0656635355021624
1.920792079207921,1.0687607686343639
1.9405940594059405,1.0708663842684918
1.9603960396039604,1.0719775447861044
1.98019801980198,1.072092596499179
2.0,1.0712110690744607
2.01980198019802,1.0693336757697414
2.0396039603960396,1.066462314475391
2.0594059405940595,1.0626000695916609
2.0792079207920793,1.0577512148109467
2.099009900990099,1.0519212169149637
2.118811881188119,1.0451167407409088
2.1386138613861387,1.037345655519958
2.1584158415841586,1.0286170428474284
2.1782178217821784,1.0189412066083108
2.1980198019801978,1.0083296852576193
2.217821782178218,0.9967952669446727
2.237623762376238,0.9843520080777997
2.257425742574257,0.9710152560558861
2.2772277227722775,0.9568016770510609
2.297029702970297,0.9417292899205848
2.3168316831683167,0.9258175075644243
2.336633663366337,0.9090871873411052
2.3564356435643563,0.8915606925227858
2.376237623762376,0.8732619672320618
2.3960396039603964,0.8542166278836768
2.4158415841584158,0.8344520748884003
2.4356435643564356,0.8139976293076207
2.455445544554456,0.7928847003353586
2.4752475247524752,0.7711469910036411
2.495049504950495,0.7488207514587103
2.514851485148515,0.7259450916672022
2.5346534653465347,0.702562368651636
2.5544554455445545,0.6787186675358452
2.5742574257425743,0.6544644010712967
2.594059405940594,0.6298550592363962
2.6138613861386135,0.604952149318547
2.633663366336634,0.5798243779655526
2.6534653465346536,0.5545491402720775
2.673267326732673,0.5292143969171513
2.6930693069306932,0.5039210376536101
2.712871287128713,0.47878584509125033
2.7326732673267324,0.4539451798482664
2.7524752475247527,0.4295594925819979
2.7722772277227725,0.4058187029943611
2.792079207920792,0.3829483224935869
2.811881188118812,0.3612158585109503
2.8316831683168315,0.3409364196550385
2.8514851485148514,0.3224754471847467
2.8712871287128716,0.3062451703477465
2.891089108910891,0.29269016290286404
2.910891089108911,0.28225744127305874
2.9306930693069306,0.2753497290748
2.9504950495049505,0.27226794048084474
2.9702970297029703,0.27315824330980876
2.99009900990099,0.27798331099846146
3.00990099009901,0.2865301889861852
3.0297029702970297,0.2984512266970428
3.0495049504950495,0.3133211693460319
3.0693069306930694,0.330691448560087
3.089108910891089,0.35013007395311513
3.108910891089109,0.3712446490164376
3.128712871287129,0.39369169847998275
3.148514851485148,0.41717714323154287
3.1683168316831685,0.4414520925772516
3.1881188118811883,0.4663067695130478
3.2079207920792077,0.4915641776278526
3.227722772277228,0.5170742907241971
3.2475247524752473,0.5427090592028491
3.267326732673267,0.5683582735338306
3.2871287128712874,0.5939262101645143
3.3069306930693068,0.6193289448560971
3.3267326732673266,0.6444922145213131
3.346534653465347,0.6693497203164626
3.366336633663366,0.6938417814501047
3.386138613861386,0.7179142659844338
3.4059405940594063,0.7415177398229534
3.4257425742574257,0.7646067875240441
3.4455445544554455,0.7871394686185702
3.4653465346534653,0.8090768810495454
3.485148514851485,0.8303828095618857
3.504950495049505,0.851023441698001
3.5247524752475248,0.8709671377983708
3.5445544554455446,0.8901842443070428
3.564356435643564,0.9086469419333891
3.5841584158415842,0.9263291219717826
3.603960396039604,0.9432062854463595
3.6237623762376234,0.9592554608169879
3.6435643564356437,0.9744551368224085
3.6633663366336635,0.9887852076993289
3.683168316831683,1.002226928541852
3.702970297029703,1.014762878983767
3.722772277227723,1.0263769337212798
3.7425742574257423,1.0370542386626522
3.762376237623762,1.0467811917090657
3.7821782178217824,1.0555454273476854
3.801980198019802,1.0633358043825845
3.8217821782178216,1.0701423962481362
3.841584158415842,1.0759564834482869
3.8613861386138613,1.080770547747517
3.881188118811881,1.084578267809024
3.9009900990099013,1.0873745160355512
3.9207920792079207,1.0891553564195486
3.9405940594059405,1.0899180432556115
3.96039603960396,1.0896610206086341
3.98019801980198,1.088383922470024
4.0,1.0860875735693867
4.01980198019802,1.0827739908451264
4.03960396039604,1.078446385612609
4.0594059405940595,1.0731091665053358
4.079207920792079,1.0667679433042738
4.099009900990099,1.0594295318134974
4.118811881188119,1.0511019599890943
4.138613861386139,1.041794475583856
4.158415841584159,1.0315175556351617
4.178217821782178,1.020282918199919
4.198019801980198,1.0081035368319655
4.217821782178218,0.9949936584075082
4.237623762376238,0.9809688250384482
4.257425742574258,0.966045900977545
4.2772277227722775,0.9502431056228285
4.297029702970297,0.9335800539796816
4.316831683168317,0.9160778062543505
4.336633663366336,0.8977589286468679
4.356435643564357,0.8786475679107513
4.376237623762377,0.8587695428796845
4.3960396039603955,0.838152456969295
4.415841584158416,0.8168258366994133
4.435643564356436,0.7948213026180131
4.455445544554455,0.7721727807403705
4.475247524752476,0.7489167648703481
4.4950495049504955,0.725092643117117
4.514851485148514,0.7007431057841839
4.534653465346535,0.6759146568901949
4.554455445544555,0.650658258272707
4.574257425742574,0.625030144034037
4.594059405940594,0.599092854636059
4.613861386138614,0.5729165549668006
4.633663366336633,0.546580719922907
4.653465346534653,0.5201762949638311
4.673267326732674,0.4938084673230056
4.693069306930693,0.4676002135442141
4.712871287128713,0.44169681327067073
4.732673267326733,0.4162715200815571
4.752475247524752,0.39153252024635965
4.772277227722772,0.3677311170386443
4.792079207920793,0.3451706245108437
4.811881188118812,0.3242145493300812
4.8316831683168315,0.3052910782743224
4.851485148514852,0.2888886783929422
4.871287128712871,0.2755355120084927
4.891089108910891,0.2657556048450363
4.910891089108912,0.2600008165626009
4.930693069306931,0.2585712297752574
4.9504950495049505,0.2615512845326353
4.97029702970297,0.26879058917092175
4.99009900990099,0.27993907039330096
5.00990099009901,0.2945189372464872
5.02970297029703,0.312002845912562
5.0495049504950495,0.3318748874875005
5.069306930693069,0.35366664336864045
5.089108910891089,0.37697195869038597
5.108910891089109,0.4014479852363563
5.128712871287129,0.42680921634543595
5.148514851485149,0.45281895479345163
5.1683168316831685,0.47928062583684233
5.188118811881188,0.5060300133503316
5.207920792079208,0.5329287583261367
5.227722772277227,0.5598591045843372
5.247524752475248,0.5867197352169988
5.267326732673268,0.613422507479503
5.2871287128712865,0.6398899042519252
5.306930693069307,0.6660530470193378
5.326732673267327,0.6918501448720229
5.346534653465346,0.7172252807611047
5.366336633663367,0.7421274584716547
5.3861386138613865,0.7665098514654726
5.405940594059405,0.7903292084934977
5.425742574257426,0.8135453814221848
5.445544554455446,0.8361209487501736
5.465346534653465,0.8580209143949288
5.485148514851486,0.8792124659660218
5.504950495049505,0.899664780270312
5.524752475247524,0.9193488664888274
5.544554455445545,0.9382374395285974
5.564356435643565,0.9563048176414218
5.584158415841584,0.9735268396291713
5.603960396039604,0.9898807979090871
5.623762376237624,1.005345384457583
5.643564356435643,1.0199006472352756
5.663366336633663,1.033527955157182
5.683168316831684,1.0462099700378569
5.702970297029703,1.0579306242326865
5.7227722772277225,1.0686751029302604
5.742574257425743,1.0784298302396693
5.762376237623762,1.0871824583687615
5.782178217821782,1.0949218593149317
5.801980198019803,1.1016381185921944
5.821782178217822,1.10732253060341
5.841584158415841,1.1119675953378039
5.861386138613861,1.1155670161338713
5.881188118811881,1.1181156982993457
5.900990099009901,1.1196097484246517
5.920792079207921,1.1200464742659344
5.9405940594059405,1.1194243851096826
5.96039603960396,1.117743192564308
5.98019801980198,1.1150038117559167
6.0,1.1112083629368952
6.01980198019802,1.1063601735477937
6.03960396039604,1.1004637808065418
6.0594059405940595,1.0935249349348954
6.079207920792079,1.0855506031721875
6.099009900990099,1.0765489747713557
6.118811881188119,1.0665294672248873
6.138613861386139,1.0555027340292045
6.158415841584159,1.0434806743690592
6.178217821782178,1.0304764451914905
6.198019801980198,1.0165044762451618
6.217821782178218,1.001580488791859
6.237623762376237,0.9857215188583468
6.257425742574258,0.9689459460976934
6.2772277227722775,0.9512735295805832
6.297029702970296,0.932725452154102
6.316831683168317,0.91332437540805
6.336633663366337,0.8930945078010601
6.356435643564356,0.8720616891585642
6.376237623762377,0.8502534956053347
6.396039603960396,0.8276993701029008
6.415841584158415,0.8044307852104573
6.435643564356436,0.7804814465962056
6.455445544554456,0.7558875483544051
6.475247524752475,0.7306880945564186
6.495049504950495,0.7049253059887612
6.514851485148515,0.6786451371367552
6.534653465346534,0.6518979367517391
6.554455445544554,0.6247392966091855
6.574257425742575,0.5972311484391587
6.594059405940594,0.5694431899738676
6.6138613861386135,0.5414547495082374
6.633663366336634,0.5133572365402412
6.653465346534653,0.4852573760834685
6.673267326732673,0.45728148687656445
6.693069306930694,0.4295811350542052
6.712871287128713,0.4023405587673111
6.732673267326732,0.37578627107924933
6.752475247524753,0.3501991027012432
6.772277227722772,0.3259284206939457
6.792079207920792,0.30340694558873516
6.811881188118813,0.2831618917961652
6.8316831683168315,0.26581364861806944
6.851485148514851,0.25204794105641887
6.871287128712871,0.24254630010927672
6.891089108910891,0.23787220954954902
6.910891089108911,0.2383412948067173
6.930693069306931,0.24393453383662464
6.9504950495049505,0.25430498431517007
6.97029702970297,0.2688736762338684
6.99009900990099,0.2869598410120554
7.00990099009901,0.3078893179243796
7.02970297029703,0.3310577645626667
7.0495049504950495,0.3559540863796687
7.069306930693069,0.3821595729663507
7.089108910891089,0.4093360899214855
7.108910891089109,0.4372113644698548
7.128712871287128,0.4655651614097519
7.148514851485149,0.4942176858429398
7.1683168316831685,0.5230203784608775
7.188118811881187,0.5518488143428577
7.207920792079208,0.5805973000755307
7.227722772277228,0.6091747856376191
7.247524752475247,0.6375017727777074
7.267326732673268,0.6655079712811981
7.287128712871287,0.6931305147676984
7.306930693069306,0.7203125954571329
7.326732673267327,0.7470024136992248
7.346534653465347,0.7731523651227596
7.366336633663366,0.7987184081936138
7.3861386138613865,0.8236595695926479
7.405940594059406,0.8479375555484618
7.425742574257425,0.8715164451458058
7.445544554455446,0.8943624474502693
7.465346534653466,0.9164437086085097
7.485148514851485,0.9377301583045557
7.504950495049505,0.9581933873712135
7.524752475247524,0.9778065501816652
7.544554455445544,0.9965442868347768
7.564356435643565,1.0143826612092515
7.584158415841584,1.031299111779144
7.603960396039604,1.0472724127161475
7.623762376237624,1.0622826432974248
7.643564356435643,1.076311164024381
7.663366336633663,1.089340598162949
7.683168316831684,1.1013548176578964
7.702970297029703,1.1123389325670092
7.7227722772277225,1.1222792833162383
7.742574257425743,1.1311634352023479
7.762376237623762,1.1389801746718855
7.782178217821782,1.145719506989189
7.801980198019803,1.151372654975197
7.821782178217822,1.155932058557182
7.841584158415841,1.1593913749180362
7.861386138613862,1.1617454790757995
7.881188118811881,1.1629904647606633
7.900990099009901,1.1631236454886875
7.92079207920792,1.162143555761016
7.9405940594059405,1.1600499523446166
7.96039603960396,1.1568438156166254
7.980198019801979,1.1525273509803509
8.0,1.1471039903874103
8.01980198019802,1.1405783940281804
8.03960396039604,1.1329564522831665
8.05940594059406,1.1242452880612221
8.07920792079208,1.1144532596893317
8.099009900990099,1.1035899645627054
8.118811881188119,1.0916662438169111
8.138613861386139,1.0786941883465055
8.158415841584159,1.06468714657144
8.178217821782178,1.0496597344449698
8.198019801980198,1.0336278483135066
8.217821782178218,1.0166086813812085
8.237623762376238,0.998620744713286
8.257425742574258,0.979683893939216
8.277227722772277,0.9598193631072431
8.297029702970297,0.9390498075129514
8.316831683168317,0.9173993578044964
8.336633663366337,0.8948936882908219
8.356435643564357,0.8715601031962339
8.376237623762377,0.8474276456833479
8.396039603960396,0.8225272359015481
8.415841584158416,0.796891846242666
8.435643564356436,0.7705567245892204
8.455445544554456,0.743559679892457
8.475247524752476,0.7159414493060076
8.495049504950495,0.6877461728908473
8.514851485148515,0.659022011421068
8.534653465346535,0.6298219562711521
8.554455445544555,0.600204899541183
8.574257425742575,0.57023706012153
8.594059405940595,0.5399939011979599
8.613861386138613,0.5095627323887013
8.633663366336634,0.4790462731957067
8.653465346534654,0.4485675740983833
8.673267326732672,0.41827685881009696
8.693069306930694,0.38836107202321296
8.712871287128714,0.3590571720180481
8.732673267326732,0.33067039704954526
8.752475247524753,0.30359854387209523
8.772277227722773,0.2783619126418778
8.792079207920791,0.25563424298702486
8.811881188118813,0.23625993658172684
8.831683168316832,0.22122603507132102
8.85148514851485,0.21154427000881304
8.871287128712872,0.2080234156479894
8.891089108910892,0.2110058477826943
8.91089108910891,0.2202353088278572
8.930693069306932,0.2349611107872461
8.950495049504951,0.2541941384406012
8.97029702970297,0.27694481023539136
8.990099009900991,0.30235472240156397
9.00990099009901,0.329733709290435
9.029702970297029,0.35854663885457955
9.04950495049505,0.3883835606275501
9.06930693069307,0.41892960520441225
9.089108910891088,0.44994018717918044
9.10891089108911,0.4812222096290805
9.12871287128713,0.512620338338577
9.148514851485148,0.5440071285048884
9.16831683168317,0.5752759470348553
9.188118811881187,0.6063358840815769
9.207920792079207,0.6371080714279083
9.227722772277229,0.6675229970798644
9.247524752475247,0.6975185290909073
9.267326732673267,0.7270384481873765
9.287128712871288,0.7560313486509033
9.306930693069306,0.7844498082474282
9.326732673267326,0.8122497565961174
9.346534653465348,0.8393899912766902
9.366336633663366,0.8658318049270555
9.386138613861386,0.8915386964454531
9.405940594059407,0.9164761464434165
9.425742574257425,0.9406114421551233
9.445544554455445,0.9639135406808929
9.465346534653467,0.9863529621318881
9.485148514851485,1.0079017062297064
9.504950495049505,1.0285331873939725
9.524752475247526,1.048222184462143
9.544554455445544,1.0669448020268175
9.564356435643564,1.0846784410167616
9.584158415841586,1.1014017766407027
9.603960396039604,1.117094742193827
9.623762376237623,1.1317385175239987
9.643564356435645,1.1453155211872286
9.663366336633663,1.1578094055060228
9.683168316831683,1.1692050538902143
9.702970297029704,1.1794885798967383
9.722772277227723,1.188647327599021
9.742574257425742,1.1966698729132057
9.762376237623764,1.2035460255907493
9.782178217821782,1.209266831638684
9.801980198019802,1.2138245759718163
9.821782178217823,1.2172127851371686
9.841584158415841,1.219426229982251
9.861386138613861,1.2204609281653263
9.881188118811881,1.2203141464297884
9.900990099009901,1.2189844025861798
9.92079207920792,1.2164714671655221
9.94059405940594,1.2127763647265415
9.96039603960396,1.2079013748184522
9.98019801980198,1.2018500326200605
10.0,1.1946271292962316
10.01980198019802,1.1862387121347011
10.03960396039604,1.1766920845506805
10.05940594059406,1.1659958060745272
10.07920792079208,1.1541596924702
10.099009900990099,1.141194816170795
10.118811881188119,1.1271135072634633
10.138613861386139,1.1119293553123697
10.158415841584159,1.0956572123774573
10.178217821782178,1.0783131976729121
10.198019801980198,1.0599147044166013
10.217821782178218,1.040480409558391
10.237623762376238,1.0200302872484839
10.257425742574258,0.9985856271299502
10.277227722772277,0.9761690588283158
10.297029702970297,0.9528045843874827
10.316831683168317,0.9285176208977325
10.336633663366337,0.9033350562190261
10.356435643564357,0.8772853215851385
10.376237623762377,0.8503984860662989
10.396039603960396,0.8227063794962789
10.415841584158416,0.7942427527169867
10.435643564356436,0.7650434871285381
10.455445544554454,0.7351468699581698
10.475247524752476,0.704593957984374
10.495049504950495,0.6734290616056452
10.514851485148514,0.6417003945734434
10.534653465346535,0.609460954697348
10.554455445544555,0.5767697310237995
10.574257425742573,0.5436933792933895
10.594059405940595,0.5103085795806557
10.613861386138614,0.47670540394442396
10.633663366336632,0.442992204293857
