Time (s),Filtered Signal
0.0,0.009823591211716104
0.033370165745856356,-0.11179183543055
0.06674033149171271,-0.18679925878095074
0.10011049723756907,-0.18245784886372965
0.13348066298342542,-0.08802232766402886
0.16685082872928178,0.08466388129981814
0.20022099447513814,0.30758901070740285
0.2335911602209945,0.5462864392873301
0.26696132596685085,0.7683854540382393
0.30033149171270723,0.948317200468882
0.33370165745856356,1.068412211476685
0.3670718232044199,1.1185749610432267
0.4004419889502763,1.0964756702715466
0.43381215469613266,1.0083354950719592
0.467182320441989,0.8686828816180647
0.5005524861878453,0.6974262982579521
0.5339226519337017,0.5143170178526881
0.5672928176795581,0.33308358970046836
0.6006629834254145,0.15851982603393616
0.6340331491712707,-0.011346737821751314
0.6674033149171271,-0.17876059140592412
0.7007734806629835,-0.3391441678829125
0.7341436464088398,-0.47822672154836965
0.7675138121546962,-0.5763484386563329
0.8008839779005525,-0.6187066366331473
0.8342541436464089,-0.6061202104062998
0.8676243093922653,-0.5594276422900719
0.9009944751381216,-0.5132986111441215
0.934364640883978,-0.5009524648214669
0.9677348066298344,-0.536894695557308
1.0011049723756906,-0.6069240872488969
1.0344751381215471,-0.6717998937780222
1.0678453038674034,-0.6843725324448118
1.1012154696132597,-0.6130113808105179
1.1345856353591162,-0.46034450519421866
1.1679558011049724,-0.2676273441997842
1.201325966850829,-0.1010759244379881
1.2346961325966852,-0.024713917719572855
1.2680662983425415,-0.07106677178169152
1.301436464088398,-0.223096058708284
1.3348066298342542,-0.4166443185212775
1.3681767955801105,-0.5637274755006078
1.401546961325967,-0.5872472598958064
1.4349171270718233,-0.45195191270148016
1.4682872928176796,-0.17790833239864445
1.501657458563536,0.16909891601471744
1.5350276243093923,0.5050155070410005
1.5683977900552488,0.7596458243095556
1.601767955801105,0.899179465222786
1.6351381215469614,0.9307378859160463
1.6685082872928179,0.8899146321758455
1.7018784530386741,0.8199137187203531
1.7352486187845306,0.7530870140983854
1.768618784530387,0.7021707057574689
1.8019889502762432,0.662240953681803
1.8353591160220997,0.6192515343263296
1.868729281767956,0.5593881656020064
1.9020994475138122,0.4751821763466945
1.9354696132596687,0.3673332606845661
1.968839779005525,0.2433711275972614
2.0022099447513813,0.11479619108110603
2.0355801104972375,-0.006235011138761925
2.0689502762430942,-0.11016047049990346
2.1023204419889505,-0.19260632466827854
2.135690607734807,-0.25533789854159866
2.169060773480663,-0.3046289335299702
2.2024309392265193,-0.34706393495207816
2.235801104972376,-0.38437900207147757
2.2691712707182323,-0.41023533126556105
2.3025414364640886,-0.4117155856688882
2.335911602209945,-0.37631871737372546
2.369281767955801,-0.30193495074270754
2.402651933701658,-0.20445472293116507
2.436022099447514,-0.11731518747302229
2.4693922651933704,-0.08041229731057571
2.5027624309392267,-0.12146534366491168
2.536132596685083,-0.238349792463757
2.5695027624309392,-0.39278940378960114
2.602872928176796,-0.5221039674571929
2.636243093922652,-0.5672151269563769
2.6696132596685085,-0.5055275112676634
2.7029834254143648,-0.3717735153650223
2.736353591160221,-0.2524399760715466
2.7697237569060777,-0.2503843479385067
2.803093922651934,-0.43151474789202143
2.8364640883977903,-0.7775347592602494
2.8698342541436466,-1.170539609626808
2.903204419889503,-1.4237694418841638
2.936574585635359,-1.351870742802222
2.969944751381216,-0.8531934469435527
3.003314917127072,0.03299427970038139
3.0366850828729284,1.1234222763181003
3.0700552486187846,2.147454207590126
3.103425414364641,2.8412104149707202
3.1367955801104976,3.039108839367835
3.170165745856354,2.7244952674367147
3.20353591160221,2.0213278732098807
3.2369060773480665,1.1365116036347758
3.2702762430939227,0.2827726502680116
3.3036464088397794,-0.38453838966726867
3.3370165745856357,-0.7959399141756935
3.370386740331492,-0.9603840195293396
3.4037569060773483,-0.9359673130532805
3.4371270718232045,-0.7973475221252743
3.4704972375690613,-0.6128281807716646
3.5038674033149175,-0.4343023324955525
3.537237569060774,-0.2957962338589676
3.57060773480663,-0.2145387279121875
3.6039779005524863,-0.19141022386886805
3.6373480662983426,-0.21177695738963007
3.6707182320441993,-0.24963470665145232
3.7040883977900556,-0.27640679876151186
3.737458563535912,-0.27208552148189086
3.770828729281768,-0.2335701797996754
3.8041988950276244,-0.17537528700569396
3.837569060773481,-0.12156852733718489
3.8709392265193374,-0.09275749927850965
3.9043093922651937,-0.09506392952912882
3.93767955801105,-0.11715932215651816
3.9710497237569062,-0.13690456980702648
4.0044198895027625,-0.13366296746051418
4.037790055248619,-0.09932330393655545
4.071160220994475,-0.04221827440486997
4.104530386740332,0.017559188537068667
4.1379005524861885,0.0583094552204348
4.171270718232044,0.06688893207620089
4.204640883977901,0.044199139695326975
4.238011049723757,0.00415254875445169
4.271381215469614,-0.03265793102539092
4.30475138121547,-0.0474428754888978
4.338121546961326,-0.030426159725754243
4.371491712707183,0.015634575761890656
4.404861878453039,0.07644692453071104
4.438232044198895,0.13107323319356448
4.471602209944752,0.15913407173548594
4.504972375690608,0.1483095385781668
4.538342541436465,0.0999910062270952
4.5717127071823205,0.031049922923008382
4.605082872928177,-0.02971307943450987
4.638453038674034,-0.050480936858896396
4.67182320441989,-0.008615608654865088
4.7051933701657465,0.09804389901641995
4.738563535911602,0.24583247725317828
4.771933701657459,0.38955863449359085
4.805303867403316,0.4765566357352508
4.8386740331491715,0.46604540675995265
4.872044198895028,0.3460512162006486
4.905414364640884,0.14014558500794802
4.938784530386741,-0.09985089910510037
4.972154696132597,-0.312740674648301
5.005524861878453,-0.4503310649898649
5.03889502762431,-0.49344100709081795
5.072265193370166,-0.45480512833999065
5.105635359116023,-0.3686745665297376
5.1390055248618784,-0.27324253654425096
5.172375690607735,-0.19475160655044266
5.205745856353592,-0.14008394018834308
5.239116022099448,-0.09943635989517469
5.272486187845304,-0.05559926816207701
5.30585635359116,0.00587722983242019
5.339226519337017,0.0901363635939959
5.372596685082874,0.1914986930355637
5.4059668508287295,0.2957408977348504
5.439337016574586,0.3841480873063299
5.472707182320442,0.43811868276677
5.506077348066299,0.44406918010070573
5.5394475138121555,0.3983095644116741
5.572817679558011,0.3104926993708462
5.606187845303868,0.20343447040297807
5.639558011049724,0.10784532205645196
5.672928176795581,0.05286223984928515
5.706298342541437,0.05579790380605645
5.739668508287293,0.11538876826100469
5.77303867403315,0.211264478539759
5.806408839779006,0.3093654915353072
5.839779005524862,0.3706108539843362
5.873149171270718,0.3597253772509287
5.906519337016575,0.25255261323620354
5.939889502762432,0.04175325024330326
5.9732596685082875,-0.2590735310252392
6.006629834254144,-0.6141452040950018
6.04,-0.969582883954525
6.073370165745857,-1.2643419233192381
6.1067403314917135,-1.4461290943781446
6.140110497237569,-1.4865938828420595
6.173480662983426,-1.3887221145955932
6.206850828729282,-1.1822372839034687
6.240220994475139,-0.9088404133618367
6.273591160220995,-0.6048020118276008
6.306961325966851,-0.29009374530739457
6.340331491712708,0.03045025027619303
6.373701657458564,0.35555862123134047
6.40707182320442,0.673487329193475
6.440441988950277,0.9551838101152578
6.473812154696133,1.1602208164078376
6.50718232044199,1.253459842565534
6.5405524861878455,1.2236904149858203
6.573922651933702,1.093636607978877
6.607292817679559,0.9148890489266569
6.640662983425415,0.7491807638727197
6.674033149171271,0.6445571557203577
6.707403314917127,0.6175086049514561
6.740773480662984,0.6488957321899638
6.774143646408841,0.694567797932635
6.8075138121546965,0.7048156872340026
6.840883977900553,0.6435815190015828
6.874254143646409,0.49977837863537633
6.907624309392266,0.28771540780827287
6.9409944751381225,0.03865346301752334
6.974364640883978,-0.2115037630565564
7.007734806629835,-0.43326353411149504
7.041104972375691,-0.6101106500842804
7.074475138121548,-0.7396812417428742
7.107845303867403,-0.8303206028198711
7.14121546961326,-0.8947221675903632
7.174585635359117,-0.942887828971126
7.207955801104973,-0.9769141702842303
7.241325966850829,-0.989683446340784
7.274696132596685,-0.9680828946777663
7.308066298342542,-0.8993248471478165
7.341436464088399,-0.7774464420175076
7.3748066298342545,-0.6071207276833445
7.408176795580111,-0.40346800586584763
7.441546961325967,-0.18855232674835098
7.474917127071824,0.013548161986072225
7.5082872928176805,0.18130479613434036
7.541657458563536,0.2991105027499658
7.575027624309393,0.3595728258321358
7.608397790055249,0.36505301861916983
7.641767955801106,0.32820792217283445
7.675138121546962,0.27054671135482283
7.708508287292818,0.21797011898423765
7.741878453038675,0.19341914493023366
7.775248618784531,0.20873006306505817
7.808618784530387,0.25933341892587386
7.841988950276244,0.325212678756573
7.8753591160221,0.37911171419815065
7.908729281767957,0.3992872537325991
7.9420994475138125,0.3810642730253087
7.975469613259669,0.34094245336892665
8.008839779005525,0.30978251554334507
8.042209944751383,0.3167718061878943
8.075580110497238,0.3710975671454911
8.108950276243094,0.4507642011419328
8.14232044198895,0.5059398964749791
8.175690607734808,0.47789114560852936
8.209060773480664,0.3266252442610429
8.24243093922652,0.0548063485467594
8.275801104972377,-0.28436406955064325
8.309171270718233,-0.6011672109630332
8.342541436464089,-0.8010888411484426
8.375911602209946,-0.8212526029221224
8.409281767955802,-0.6556413454276915
8.442651933701658,-0.35786503037717426
8.476022099447514,-0.020346592182651495
8.509392265193371,0.2607033551767015
8.542762430939227,0.41941290294803213
8.576132596685083,0.43983322740536807
8.60950276243094,0.3546308307640454
8.642872928176796,0.22561434281368212
8.676243093922652,0.11550014396201594
8.709613259668508,0.06240334665944979
8.742983425414366,0.06629506847438467
8.776353591160222,0.0917723043096728
8.809723756906077,0.08570057392135462
8.843093922651935,0.002977402352541992
8.87646408839779,-0.169828473102283
8.909834254143647,-0.40334588387587855
8.943204419889504,-0.6329407905156782
8.97657458563536,-0.7832921330448821
9.009944751381216,-0.8000934971359438
9.043314917127072,-0.674492174719469
9.07668508287293,-0.44822522148450983
9.110055248618785,-0.19618444607052318
9.143425414364641,0.00580490119821086
9.176795580110499,0.11270459565759103
9.210165745856354,0.12643216612918243
9.24353591160221,0.08940250806150894
9.276906077348068,0.05979541882436473
9.310276243093924,0.08166370889892595
9.34364640883978,0.16462856734646603
9.377016574585635,0.28201448330437784
9.410386740331493,0.38648860021561
9.443756906077349,0.43395474399228
9.477127071823205,0.4036513711923046
9.510497237569062,0.3058132255611856
9.543867403314918,0.17527213381410653
9.577237569060774,0.055928457967308574
9.610607734806631,-0.01599415985583741
9.643977900552487,-0.023243376391996626
9.677348066298343,0.029474907843815727
9.710718232044199,0.11981648965014444
9.744088397790057,0.21628537809768356
9.777458563535912,0.2876070570775318
9.810828729281768,0.310722231281411
9.844198895027626,0.27621364834953993
9.877569060773482,0.19052134413787555
9.910939226519337,0.07441784548259173
9.944309392265193,-0.04252275803967797
9.97767955801105,-0.1308051081339121
10.011049723756907,-0.17105806826955472
10.044419889502763,-0.16171142197624624
10.07779005524862,-0.12069548384433977
10.111160220994476,-0.07937944994216742
10.144530386740332,-0.07021711439006482
10.17790055248619,-0.11275575815769048
10.211270718232045,-0.20405118007827347
10.244640883977901,-0.31814835791074525
10.278011049723757,-0.4155224875337038
10.311381215469615,-0.45885534283681906
10.34475138121547,-0.4283785850326656
10.378121546961326,-0.3298911723585966
10.411491712707184,-0.19174876304315064
10.44486187845304,-0.0522629352396648
10.478232044198895,0.0564771743355071
10.511602209944753,0.12074346408311487
10.544972375690609,0.14792664323941365
10.578342541436465,0.1595067619774022
10.61171270718232,0.17868870106405113
10.645082872928178,0.21928889345028316
10.678453038674034,0.2808960780345852
10.71182320441989,0.35130958437490667
10.745193370165747,0.4133611030028137
10.778563535911603,0.4516707156005528
10.811933701657459,0.45618962885723496
10.845303867403315,0.4222195758372249
10.878674033149172,0.34889432896903727
10.912044198895028,0.23847741790638316
10.945414364640884,0.09738517403942279
10.978784530386742,-0.06210893491208208
11.012154696132598,-0.2215504432888172
11.045524861878453,-0.3588900721266888
11.078895027624311,-0.45388294050642214
11.112265193370167,-0.49451674163795195
11.145635359116023,-0.4818368527225563
11.179005524861878,-0.43087566004878936
11.212375690607736,-0.366724490866328
11.245745856353592,-0.31659295716485486
11.279116022099448,-0.30035163682792854
11.312486187845305,-0.3229425841135423
11.345856353591161,-0.37172523699044735
11.379226519337017,-0.4202149694089353
11.412596685082875,-0.43720582989211665
11.44596685082873,-0.3979041094168566
11.479337016574586,-0.29258897007793316
11.512707182320442,-0.12921906254542218
11.5460773480663,0.07087698555886837
11.579447513812156,0.28179937335569266
11.612817679558011,0.4817962695660417
11.646187845303869,0.6575615991143711
11.679558011049725,0.8023518647086186
11.71292817679558,0.9097857042524886
11.746298342541436,0.9678866714487558
11.779668508287294,0.9581057220460528
11.81303867403315,0.8614150935817455
11.846408839779006,0.6693949709226568
11.879779005524863,0.3948214473442131
11.91314917127072,0.07560648734635389
11.946519337016575,-0.23142987098345805
11.979889502762433,-0.4658158319533642
12.013259668508288,-0.5822181453395551
12.046629834254144,-0.565367111387621
12.08,-0.43515367081386763
12.113370165745858,-0.23997667714378915
12.146740331491714,-0.04112804623916679
12.18011049723757,0.10575793382763657
12.213480662983427,0.16568102205319118
12.246850828729283,0.13129930206608803
12.280220994475139,0.02104528835333735
12.313591160220996,-0.12957395681552447
12.346961325966852,-0.27982483390593704
12.380331491712708,-0.3950962833788677
12.413701657458564,-0.4550971089600045
12.447071823204421,-0.45743930895304363
12.480441988950277,-0.41612707574531477
12.513812154696133,-0.35535454023827834
12.54718232044199,-0.3001174262014521
12.580552486187846,-0.2664521118358057
12.613922651933702,-0.25498053266558174
12.64729281767956,-0.25089235253562686
12.680662983425416,-0.2310990625846608
12.714033149171271,-0.17584098082567273
12.747403314917127,-0.07936342938396186
12.780773480662985,0.0458052433172134
12.81414364640884,0.17348928011493936
12.847513812154697,0.2753330675383381
12.880883977900554,0.3333149457091881
12.91425414364641,0.34689227710184034
12.947624309392266,0.3312672265725681
12.980994475138122,0.30809937363826345
13.01436464088398,0.29401698377882335
13.047734806629835,0.2932160012868507
13.081104972375691,0.2977984556872605
13.114475138121549,0.29487561139367463
13.147845303867404,0.2755868237973745
13.18121546961326,0.24035449148703986
13.214585635359118,0.1973681300472944
13.247955801104974,0.15577358571461966
13.28132596685083,0.11849694791678957
13.314696132596685,0.07984039667322461
13.348066298342543,0.029793666520860015
13.381436464088399,-0.037532619142498565
13.414806629834255,-0.11686165863505983
13.448176795580112,-0.19098136182219744
13.481546961325968,-0.23738727379933833
13.514917127071824,-0.23900270949798086
13.548287292817681,-0.19320851014260398
13.581657458563537,-0.11435258420021818
13.615027624309393,-0.028449477738357584
13.648397790055249,0.03724492694148604
13.681767955801106,0.06482802769192751
13.715138121546962,0.05192118926208068
13.748508287292818,0.011239715757846654
13.781878453038676,-0.03562848931471387
13.815248618784532,-0.06728001937070384
13.848618784530387,-0.07076967177403065
13.881988950276245,-0.04614358880909809
13.9153591160221,-0.005764304056057207
13.948729281767957,0.031163822015819125
13.982099447513813,0.04663122905483667
14.01546961325967,0.031068048770028427
14.048839779005526,-0.013245418806372478
14.082209944751382,-0.07382774809925961
14.11558011049724,-0.1335542034455717
14.148950276243095,-0.17741780212918465
14.182320441988951,-0.19775655579174545
14.215690607734807,-0.19629267259183408
14.249060773480664,-0.18264221888795315
14.28243093922652,-0.16999164366136704
14.315801104972376,-0.16941928281244423
14.349171270718234,-0.18490451838157887
14.38254143646409,-0.21110195214625102
14.415911602209945,-0.2350509483037311
14.449281767955803,-0.24123699327528614
14.482651933701659,-0.21768553114617997
14.516022099447515,-0.1602011884956862
14.54939226519337,-0.0729862915345004
14.582762430939228,0.03397093546559908
14.616132596685084,0.14861420963293367
14.64950276243094,0.2594078393951627
14.682872928176797,0.35607114203051005
14.716243093922653,0.42959534919341397
14.749613259668509,0.4732979386956775
14.782983425414367,0.4854185172711281
14.816353591160222,0.47160388914410256
14.849723756906078,0.4444678783067009
14.883093922651934,0.4185805078288765
14.916464088397792,0.4023331809120198
14.949834254143648,0.39108628781840343
14.983204419889503,0.36650849370268734
15.016574585635361,0.30418208285352977
15.049944751381217,0.18675717293935376
15.083314917127073,0.01609445962583934
15.116685082872928,-0.1824965534374323
15.150055248618786,-0.3671494789278939
15.183425414364642,-0.49498531124658546
15.216795580110498,-0.5392811616783741
15.250165745856355,-0.5002938933668405
15.283535911602211,-0.40479788930749094
15.316906077348067,-0.2946827195109229
15.350276243093925,-0.20985138569162104
15.38364640883978,-0.17295944773429298
15.417016574585636,-0.18237797845896292
15.450386740331492,-0.21583063276656808
15.48375690607735,-0.24230306359521805
15.517127071823205,-0.2362994902151187
15.550497237569061,-0.18795831327475385
15.583867403314919,-0.105102476842135
15.617237569060775,-0.007525142885596155
15.65060773480663,0.08261587622674274
15.683977900552488,0.14929805513447197
15.717348066298344,0.18659185886239718
15.7507182320442,0.19756722738417787
15.784088397790056,0.19009062789287826
15.817458563535913,0.17227364829898276
15.85082872928177,0.149589524765627
15.884198895027625,0.12426900646350546
15.917569060773483,0.09644285820965978
15.950939226519338,0.06599753794768468
15.984309392265194,0.03411945697155777
16.01767955801105,0.0037656609724476438
16.051049723756908,-0.021257708807390887
16.084419889502765,-0.0382627836444005
16.11779005524862,-0.047618555281708094
16.151160220994477,-0.053274035370612455
16.18453038674033,-0.06105298978046425
16.21790055248619,-0.07528797985757195
16.251270718232046,-0.09573478826471116
16.2846408839779,-0.11699160107502342
16.318011049723758,-0.13132954755534862
16.351381215469615,-0.13353646107372244
16.38475138121547,-0.12458736438751476
16.418121546961327,-0.11111243376748293
16.451491712707185,-0.10002412055870223
16.48486187845304,-0.09103755360214032
16.518232044198896,-0.07201948577364971
16.551602209944754,-0.021424061797016808
16.584972375690608,0.08154448443305741
16.618342541436466,0.243146037453751
16.651712707182323,0.4449135740178369
16.685082872928177,0.6436473847923249
16.718453038674035,0.7836725446898574
16.751823204419892,0.8171544655880246
16.785193370165747,0.7235849927408352
16.818563535911604,0.5192365630983384
16.851933701657458,0.2518938452714408
16.885303867403316,-0.016774821710190513
16.918674033149173,-0.23303656768590608
16.952044198895027,-0.36744059707214055
16.985414364640885,-0.4194260209060641
17.018784530386743,-0.4100838126108362
17.052154696132597,-0.36844427154248416
17.085524861878454,-0.31872914231180266
17.118895027624312,-0.2740655478644948
17.152265193370166,-0.23780757080861967
17.185635359116024,-0.20949719700810712
17.21900552486188,-0.19073385178955207
17.252375690607735,-0.1873166094764374
