Frequency (Hz),Amplitude
0.0,0.9769702780181952
0.019867549668874173,0.9773191117187121
0.039735099337748346,0.9783634876687805
0.059602649006622516,0.9800970584851104
0.07947019867549669,0.9825093378714462
0.09933774834437085,0.9855858365543948
0.11920529801324503,0.9893082466240686
0.13907284768211922,0.9936546687275026
0.15894039735099338,0.9985998755301276
0.17880794701986755,1.004115604173927
0.1986754966887417,1.010170870132236
0.2185430463576159,1.0167322948746007
0.23841059602649006,1.0237644400752972
0.2582781456953642,1.031230141671786
0.27814569536423844,1.0390908378428587
0.2980132450331126,1.0473068858651966
0.31788079470198677,1.0558378637579238
0.33774834437086093,1.0646428535826757
0.3576158940397351,1.0736807041846237
0.3774834437086093,1.0829102720037536
0.3973509933774834,1.092290639330766
0.4172185430463576,1.1017813100161356
0.4370860927152318,1.1113423831582574
0.45695364238410596,1.1209347057010444
0.4768211920529801,1.1305200051698012
0.49668874172185434,1.1400610039780297
0.5165562913907285,1.149521516860533
0.5364238410596026,1.1588665330423507
0.5562913907284769,1.168062284753698
0.5761589403973509,1.1770763036587948
0.5960264900662252,1.18587746669402
0.6158940397350993,1.1944360327167272
0.6357615894039735,1.2027236712584264
0.6556291390728477,1.210713484562021
0.6754966887417219,1.218380023966431
0.695364238410596,1.2256993015878124
0.7152317880794702,1.2326487981370124
0.7350993377483444,1.2392074676100326
0.7549668874172186,1.245355739493101
0.7748344370860927,1.2510755190368046
0.7947019867549668,1.2563501860758481
0.8145695364238411,1.2611645928005333
0.8344370860927152,1.2655050608242058
0.8543046357615894,1.2693593778365229
0.8741721854304636,1.2727167940843729
0.8940397350993378,1.2755680188808074
0.9139072847682119,1.2779052173065437
0.9337748344370861,1.2797220072365905
0.9536423841059603,1.2810134567980005
0.9735099337748344,1.2817760823399391
0.9933774834437087,1.2820078469769256
1.0132450331125828,1.2817081597459887
1.033112582781457,1.2808778754012622
1.0529801324503312,1.2795192948526295
1.0728476821192052,1.2776361662379256
1.0927152317880795,1.2752336866015144
1.1125827814569538,1.2723185041339096
1.1324503311258278,1.268898720907429
1.1523178807947019,1.2649838960214044
1.1721854304635762,1.2605850490453545
1.1920529801324504,1.2557146636209355
1.2119205298013245,1.2503866910509631
1.2317880794701985,1.2446165536664617
1.2516556291390728,1.238421147720344
1.271523178807947,1.2318188455068264
1.2913907284768211,1.2248294963500226
1.3112582781456954,1.217474426041254
1.3311258278145695,1.2097764342333313
1.3509933774834437,1.2017597892195018
1.370860927152318,1.1934502194369
1.390728476821192,1.1848749009369852
1.410596026490066,1.1760624399615547
1.4304635761589404,1.1670428496524208
1.4503311258278146,1.1578475198081157
1.4701986754966887,1.14850917848518
1.4900662251655628,1.1390618441285474
1.5099337748344372,1.1295407668105326
1.5298013245033113,1.1199823570681413
1.5496688741721854,1.1104241007612115
1.5695364238410596,1.100904458340344
1.5894039735099337,1.091462746924025
1.609271523178808,1.0821390036519642
1.6291390728476822,1.072973828919881
1.6490066225165563,1.0640082083232039
1.6688741721854303,1.0552833124560341
1.6887417218543048,1.0468402741385399
1.7086092715231789,1.0387199431859149
1.728476821192053,1.0309626194887875
1.7483443708609272,1.0236077659394311
1.7682119205298013,1.0166937035978623
1.7880794701986755,1.0102572924187854
1.8079470198675496,1.0043336018180937
1.8278145695364238,0.998955576298693
1.847682119205298,0.9941537022210045
1.8675496688741722,0.9899556825317063
1.8874172185430464,0.9863861267887253
1.9072847682119205,0.9834662640816272
1.9271523178807946,0.9812136863929547
1.9470198675496688,0.9796421295469082
1.9668874172185429,0.9787612981356892
1.9867549668874174,0.9785767397185678
2.0066225165562916,0.9790897721989031
2.0264900662251657,0.9802974666689572
2.0463576158940397,0.9821926862631173
2.066225165562914,0.9847641797780468
2.086092715231788,0.9879967271106057
2.1059602649006623,0.9918713320291851
2.1258278145695364,0.9963654565139437
2.1456953642384105,1.001453289937637
2.165562913907285,1.007106045743964
2.185430463576159,1.0132922780205322
2.205298013245033,1.019978210440217
2.2251655629139075,1.0271280704163932
2.2450331125827816,1.034704421930006
2.2649006622516556,1.0426684912763722
2.2847682119205297,1.0509804808816516
2.3046357615894038,1.0595998672921898
2.324503311258278,1.0684856803896376
2.3443708609271523,1.0775967617881037
2.364238410596027,1.0868920011932017
2.384105960264901,1.0963305502252456
2.403973509933775,1.105872013818972
2.423841059602649,1.1154766198065478
2.443708609271523,1.1251053676730332
2.463576158940397,1.1347201577527033
2.4834437086092715,1.1442839023218603
2.5033112582781456,1.1537606201522685
2.52317880794702,1.163115516133035
2.543046357615894,1.1723150475604733
2.562913907284768,1.1813269786473157
2.5827814569536423,1.1901204247259753
2.6026490066225163,1.1986658875237746
2.622516556291391,1.206935282779643
2.642384105960265,1.214901961357115
2.662251655629139,1.2225407248930595
2.6821192052980134,1.2298278369083322
2.7019867549668874,1.236741030198738
2.7218543046357615,1.2432595112232414
2.741721854304636,1.2493639621132056
2.76158940397351,1.25503654084113
2.781456953642384,1.260260880011024
2.801324503311258,1.2650220846639872
2.821192052980132,1.2693067294322966
2.8410596026490067,1.2731028553219241
2.8609271523178808,1.2763999663571972
2.8807947019867552,1.2791890262805963
2.9006622516556293,1.2814624554657443
2.9205298013245033,1.2832141281707794
2.9403973509933774,1.2844393702330112
2.9602649006622515,1.2851349572818422
2.9801324503311255,1.2852991135263678
3.0,1.28493151115497
3.0198675496688745,1.284033270366495
3.0397350993377485,1.2826069600357408
3.0596026490066226,1.2806565989990848
3.0794701986754967,1.2781876579287403
3.0993377483443707,1.2752070617457565
3.119205298013245,1.271723192501654
3.1390728476821192,1.2677458926364018
3.1589403973509933,1.2632864684947063
3.1788079470198674,1.258357693953887
3.198675496688742,1.2529738139830968
3.218543046357616,1.247150547915299
3.23841059602649,1.240905092169475
3.2582781456953644,1.2342561221098909
3.2781456953642385,1.2272237926719414
3.2980132450331126,1.2198297373187315
3.3178807947019866,1.2120970648194538
3.3377483443708607,1.204050353259134
3.3576158940397347,1.1957156405990652
3.3774834437086096,1.187120411009787
3.3973509933774837,1.1782935760929525
3.4172185430463577,1.169265449997951
3.437086092715232,1.1600677173246672
3.456953642384106,1.150733392589293
3.47682119205298,1.1412967699195613
3.4966887417218544,1.1317933615445468
3.5165562913907285,1.1222598235600048
3.5364238410596025,1.1127338673909446
3.556291390728477,1.103254155349066
3.576158940397351,1.093860178705953
3.596026490066225,1.0845921167852313
3.615894039735099,1.0754906757326892
3.6357615894039736,1.0665969058651317
3.6556291390728477,1.0579519968393332
3.6754966887417218,1.049597050330921
3.695364238410596,1.0415728304755625
3.7152317880794703,1.0339194930007685
3.7350993377483444,1.0266762947579515
3.754966887417219,1.0198812862339754
3.774834437086093,1.0135709905507686
3.794701986754967,1.0077800734118068
3.814569536423841,1.0025410093755038
3.834437086092715,0.9978837506695951
3.854304635761589,0.9938354054438573
3.8741721854304636,0.9904199328273497
3.8940397350993377,0.9876578623522677
3.9139072847682117,0.9855660451834618
3.9337748344370858,0.9841574441228818
3.9536423841059607,0.9834409685370967
3.9735099337748347,0.9834213592063854
3.993377483443709,0.984099126664511
4.013245033112583,0.9854705449634587
4.033112582781457,0.9875277010488264
4.052980132450331,0.9902585981725475
4.072847682119205,0.9936473101034579
4.0927152317880795,0.9976741814184035
4.112582781456953,1.0023160679448662
4.132450331125828,1.0075466105349682
4.152317880794702,1.0133365348084296
4.172185430463576,1.0196539693089393
4.19205298013245,1.0264647746516276
4.211920529801325,1.0337328766554115
4.231788079470199,1.0414205970972794
4.251655629139073,1.0494889765322202
4.271523178807947,1.0578980845293824
4.291390728476821,1.066607313621567
4.311258278145695,1.075575654201257
4.33112582781457,1.0847619484786635
4.3509933774834435,1.0941251224176585
4.370860927152318,1.1036243952625626
4.390728476821192,1.1132194668539814
4.410596026490066,1.12287068340304
4.43046357615894,1.1325391827549312
4.450331125827815,1.1421870204337203
4.470198675496689,1.1517772779329234
4.490066225165563,1.1612741548128134
4.509933774834438,1.170643046200127
4.529801324503311,1.1798506072709445
4.549668874172186,1.188864806245163
4.569536423841059,1.1976549673416501
4.589403973509934,1.2061918050452558
4.6092715231788075,1.2144474509285006
4.629139072847682,1.2223954741569338
4.649006622516556,1.230010896692988
4.66887417218543,1.2372702041019141
4.688741721854305,1.2441513527572734
4.708609271523179,1.2506337741443287
4.728476821192054,1.2566983768683102
4.748344370860927,1.2623275468914272
4.768211920529802,1.2675051464477702
4.788079470198675,1.2722165120185664
4.80794701986755,1.2764484516913133
4.827814569536423,1.2801892421745247
4.847682119205298,1.2834286256943768
4.867549668874172,1.2861578069603343
4.887417218543046,1.288369450352085
4.9072847682119205,1.2900576774506667
4.927152317880794,1.2912180650099419
4.947019867549669,1.2918476434419834
4.966887417218543,1.2919448958688131
4.986754966887418,1.2915097577743253
5.006622516556291,1.2905436172723905
5.026490066225166,1.2890493159899752
5.04635761589404,1.2870311505470398
5.066225165562914,1.2844948745972256
5.086092715231788,1.281447701374253
5.105960264900662,1.277898306668418
5.125827814569536,1.2738568321340185
5.14569536423841,1.26933488880262
5.1655629139072845,1.2643455606466774
5.185430463576159,1.258903408003702
5.205298013245033,1.2530244706315172
5.225165562913908,1.246726270119678
5.245033112582782,1.240027811330242
5.264900662251656,1.2329495824819856
5.28476821192053,1.2255135534256498
5.304635761589404,1.2177431715829106
5.324503311258278,1.2096633549389944
5.344370860927152,1.2013004813877852
5.364238410596027,1.192682373629525
5.3841059602649,1.183838278715751
5.403973509933775,1.1747988412260018
5.4238410596026485,1.1655960689472566
5.443708609271523,1.1562632898154162
5.463576158940397,1.1468350987708449
5.483443708609272,1.1373472930845014
5.503311258278146,1.1278367946340744
5.52317880794702,1.1183415575597497
5.543046357615895,1.108900459717081
5.562913907284768,1.0995531763818496
5.582781456953643,1.0903400347609276
5.602649006622516,1.0813018480379328
5.622516556291391,1.0724797279449163
5.642384105960264,1.0639148752137506
5.662251655629139,1.0556483477310203
5.682119205298013,1.047720806803014
5.701986754966887,1.040172242630493
5.7218543046357615,1.0330416808859781
5.741721854304636,1.02636687316057
5.7615894039735105,1.0201839749717796
5.781456953642384,1.0145272159581846
5.801324503311259,1.009428567779789
5.821192052980132,1.004917416036005
5.841059602649007,1.00102024314401
5.860927152317881,0.9977603295261241
5.880794701986755,0.9951574805821134
5.900662251655629,0.993227786727881
5.920529801324503,0.9919834232442327
5.940397350993377,0.9914324957993118
5.960264900662251,0.9915789363130957
5.980132450331126,0.9924224523759013
6.0,0.9939585317922525
6.0198675496688745,0.9961785020883677
6.039735099337749,0.9990696430991073
6.059602649006623,1.0026153491383436
6.079470198675497,1.0067953358452504
6.099337748344371,1.0115858856619913
6.119205298013245,1.0169601250822025
6.139072847682119,1.0228883263386517
6.158940397350993,1.0293382260676798
6.178807947019867,1.0362753536711662
6.198675496688741,1.043663362549184
6.218543046357616,1.0514643580410783
6.23841059602649,1.0596392167274742
6.258278145695365,1.0681478926486507
6.2781456953642385,1.076949706928042
6.298013245033113,1.0860036182049266
6.317880794701987,1.0952684721386265
6.337748344370861,1.1047032290197996
6.357615894039735,1.1142671691950936
6.377483443708609,1.1239200765712705
6.397350993377484,1.1336224009132028
6.417218543046357,1.1433353999919855
6.437086092715232,1.1530212628842034
6.456953642384105,1.1626432158824356
6.47682119205298,1.1721656125642135
6.496688741721854,1.1815540095936874
6.516556291390729,1.1907752298110426
6.5364238410596025,1.1997974141096301
6.556291390728477,1.2085900635200584
6.5761589403973515,1.2171240728233779
6.596026490066225,1.2253717569074838
6.6158940397351,1.2333068709692214
6.635761589403973,1.2409046255524585
6.655629139072848,1.2481416973032502
6.675496688741721,1.2549962362198381
6.695364238410596,1.2614478700780325
6.715231788079469,1.267477706623596
6.735099337748344,1.2730683340422007
6.754966887417219,1.2782038201445949
6.774834437086093,1.2828697106395894
6.794701986754967,1.287053026810148
6.814569536423841,1.2907422628570646
6.8344370860927155,1.2939273831306657
6.854304635761589,1.2965998194322415
6.874172185430464,1.2987524685332308
6.894039735099337,1.3003796900308353
6.913907284768212,1.3014773046328953
6.933774834437086,1.3020425929418213
6.95364238410596,1.302074294787032
6.973509933774834,1.301572609136086
6.993377483443709,1.3005391945969556
7.013245033112583,1.298977170506488
7.033112582781457,1.2968911185822534
7.052980132450331,1.294287085097103
7.072847682119205,1.2911725835155556
7.0927152317880795,1.2875565975100884
7.112582781456954,1.283449584250993
7.132450331125828,1.278863477835953
7.152317880794702,1.273811692694691
7.172185430463576,1.2683091267679953
7.19205298013245,1.2623721642193555
7.211920529801324,1.2560186773909445
7.231788079470198,1.2492680276618995
7.251655629139073,1.2421410648065732
7.271523178807947,1.234660124382335
7.291390728476822,1.2268490226002775
7.311258278145695,1.2187330480485075
7.33112582781457,1.2103389495455494
7.3509933774834435,1.2016949193024857
7.370860927152318,1.1928305704674818
7.390728476821192,1.1837769080167517
7.410596026490066,1.174566291845558
7.430463576158941,1.1652323908036402
7.450331125827814,1.1558101263181018
7.470198675496689,1.1463356041573773
7.490066225165562,1.1368460328223233
7.509933774834438,1.1273796270113776
7.52980132450331,1.117975494608506
7.549668874172186,1.1086735056957533
7.569536423841059,1.0995141422099615
7.589403973509934,1.0905383270575015
7.6092715231788075,1.0817872317854507
7.629139072847682,1.073302062290828
7.649006622516557,1.0651238225409194
7.66887417218543,1.0572930568780898
7.6887417218543055,1.0498495721892742
7.708609271523178,1.0428321420203133
7.728476821192054,1.03627819558783
7.748344370860927,1.0302234955539216
7.768211920529802,1.0247018093389013
7.788079470198675,1.0197445796042464
7.80794701986755,1.0153806002819223
7.827814569536423,1.0116357050973424
7.847682119205298,1.0085324758721887
7.8675496688741715,1.0060899779487904
7.887417218543046,1.0043235298131281
7.907284768211921,1.0032445133921848
7.927152317880795,1.0028602305696028
7.9470198675496695,1.0031738102331857
7.966887417218543,1.0041841686978756
7.986754966887418,1.0058860247137351
8.006622516556291,1.008269968565946
8.026490066225167,1.011322583099648
8.046357615894038,1.0150266129550376
8.066225165562914,1.0193611769604878
8.086092715231787,1.0243020175726363
8.105960264900663,1.0298217805111416
8.125827814569536,1.0358903173337524
8.14569536423841,1.0424750036224657
8.165562913907285,1.0495410656778543
8.185430463576159,1.0570519090980648
8.205298013245034,1.0649694432965195
8.225165562913906,1.0732543968268118
8.245033112582782,1.081866619274352
8.264900662251655,1.090765366388438
8.28476821192053,1.0999095660183422
8.304635761589404,1.1092580632474245
8.324503311258278,1.1187698438636744
8.344370860927151,1.128404235948596
8.364238410596027,1.1381210899007141
8.3841059602649,1.1478809376366907
8.403973509933774,1.1576451320363619
8.42384105960265,1.1673759679281683
8.443708609271523,1.177036786059468
8.463576158940398,1.186592061575297
8.483443708609272,1.1960074785508836
8.503311258278146,1.2052499921012776
8.52317880794702,1.2142878795348533
8.543046357615895,1.2230907819376577
8.562913907284768,1.2316297374789742
8.582781456953642,1.239877207622982
8.602649006622515,1.2478070973223305
8.62251655629139,1.2553947701590598
8.642384105960264,1.262617059293056
8.66225165562914,1.2694522749764705
8.682119205298013,1.2758802092983883
8.701986754966887,1.2818821387374977
8.721854304635762,1.2874408250212759
8.741721854304636,1.292540514719322
8.76158940397351,1.297166937935036
8.781456953642383,1.3013073064038865
8.801324503311259,1.3049503112569434
8.821192052980132,1.3080861206650185
8.841059602649008,1.310706377541044
8.86092715231788,1.3128041974449816
8.880794701986755,1.3143741668068192
8.90066225165563,1.3154123415570382
8.920529801324504,1.3159162462318297
8.940397350993377,1.315884873599116
8.960264900662251,1.3153186848324132
8.980132450331126,1.3142196102413035
9.0,1.3125910505496354
9.019867549668875,1.3104378786939397
9.039735099337747,1.3077664420959336
9.059602649006623,1.3045845653423578
9.079470198675496,1.3009015531829753
9.099337748344372,1.2967281937322561
9.119205298013245,1.2920767617317481
9.139072847682119,1.286961021698025
9.158940397350994,1.2813962307433953
9.178807947019868,1.2753991408146903
9.198675496688743,1.2689880000469984
9.218543046357615,1.2621825528739932
9.23841059602649,1.2550040384753698
9.258278145695364,1.2474751870715244
9.27814569536424,1.239620213499429
9.298013245033111,1.2314648074181156
9.317880794701987,1.2230361194003412
9.33774834437086,1.2143627420682002
9.357615894039736,1.2054746853259153
9.37748344370861,1.1964033446363072
9.397350993377483,1.187181461179163
9.417218543046358,1.177843072625906
9.437086092715232,1.1684234531693158
9.456953642384107,1.158959041366402
9.47682119205298,1.1494873542949315
9.496688741721854,1.140046886498043
9.516556291390728,1.1306769922081792
9.536423841059603,1.1214177494117332
9.556291390728477,1.112309804453231
9.57615894039735,1.1033941960925646
9.596026490066224,1.0947121582345882
9.6158940397351,1.0863049009546295
9.635761589403973,1.078213369953285
9.655629139072847,1.0704779851895059
9.675496688741722,1.0631383601567945
9.695364238410596,1.0562330040692123
9.715231788079471,1.049799010088152
9.735099337748345,1.0438717336140544
9.754966887417218,1.0384844655460421
9.774834437086092,1.0336681062249333
9.794701986754967,1.029450846464279
9.814569536423841,1.0258578625807044
9.834437086092716,1.0229110326035946
9.854304635761588,1.0206286808284988
9.874172185430464,1.0190253575470898
9.894039735099337,1.0181116601277966
9.913907284768213,1.0178941006468754
9.933774834437086,1.0183750240162879
9.95364238410596,1.0195525790827742
9.973509933774835,1.0214207435593925
9.993377483443709,1.0239694019895658
10.013245033112582,1.0271844743289198
10.033112582781456,1.0310480912538544
10.052980132450331,1.0355388110473065
10.072847682119205,1.040631871930672
10.09271523178808,1.0462994730442008
10.112582781456952,1.0525110769382322
10.132450331125828,1.059233726413032
10.152317880794701,1.066432368805234
10.172185430463577,1.0740701813173663
10.192052980132452,1.0821088916685906
10.211920529801324,1.0905090891512084
10.2317880794702,1.0992305220506722
10.251655629139073,1.1082323782761818
10.271523178807948,1.117473546910253
10.29139072847682,1.1269128591856161
10.311258278145695,1.136509308112805
10.331125827814569,1.1462222465977931
10.350993377483444,1.1560115643989661
10.370860927152318,1.1658378446791584
10.390728476821192,1.1756625012151005
10.410596026490065,1.1854478975441918
10.43046357615894,1.1951574494673778
10.450331125827816,1.2047557123998633
10.470198675496688,1.2142084550800294
10.490066225165563,1.2234827211230468
10.509933774834437,1.2325468798502375
10.529801324503312,1.2413706677459264
10.549668874172186,1.2499252218001042
10.56953642384106,1.2581831058921151
10.589403973509933,1.266118331264287
10.609271523178808,1.2737063720280661
10.629139072847682,1.28092417654188
10.649006622516556,1.2877501754020213
10.66887417218543,1.2941642866959229
10.688741721854305,1.3001479190830818
10.70860927152318,1.3056839731918126
