Time (s),Filtered Signal
0.0,0.030205470043209757
0.03337004405286344,0.47618449095600807
0.06674008810572687,0.8731825261383396
0.10011013215859031,1.1778676035636844
0.13348017621145375,1.3586179623727561
0.16685022026431717,1.4006519950031104
0.20022026431718062,1.3089701441366446
0.23359030837004408,1.1077129519928461
0.2669603524229075,0.8356257472541787
0.3003303964757709,0.5387599968120004
0.33370044052863435,0.2623986951220741
0.3670704845814978,0.04400122794152113
0.40044052863436125,-0.09195030657368536
0.43381057268722467,-0.13712709100982626
0.46718061674008815,-0.1005290431982973
0.5005506607929515,-0.007065517820687159
0.533920704845815,0.10738606952281764
0.5672907488986785,0.204624730383946
0.6006607929515418,0.25485804047259203
0.6340308370044053,0.24608178645366482
0.6674008810572687,0.18811012182916279
0.7007709251101322,0.1086466515124755
0.7341409691629956,0.04177463623932555
0.767511013215859,0.012655723757878833
0.8008810572687225,0.024545652654771006
0.834251101321586,0.054192353588825216
0.8676211453744493,0.05884200597684389
0.9009911894273128,-0.006744981481296418
0.9343612334801763,-0.16969463097062526
0.9677312775330397,-0.42371123615241235
1.001101321585903,-0.7264207781118049
1.0344713656387665,-1.0115108983729388
1.06784140969163,-1.2111598251411528
1.1012114537444935,-1.2794180099368104
1.134581497797357,-1.206736249600318
1.1679515418502202,-1.0200681967187075
1.2013215859030837,-0.7697556777709736
1.2346916299559472,-0.5101751702628597
1.2680616740088106,-0.28292479051875324
1.3014317180616741,-0.10855808872028858
1.3348017621145374,0.012391813426227775
1.3681718061674009,0.09276468000047315
1.4015418502202643,0.15137254190195013
1.4349118942731278,0.20776520336567497
1.4682819383259913,0.27906352210651353
1.5016519823788548,0.3770937105613426
1.535022026431718,0.5047779793644965
1.5683920704845815,0.6529399948223721
1.601762114537445,0.8002969864318863
1.6351321585903085,0.9187569720167574
1.668502202643172,0.9832293398012626
1.7018722466960352,0.9818213623466281
1.7352422907488987,0.9209835395791112
1.7686123348017622,0.822198530844971
1.8019823788546256,0.7113120214219044
1.8353524229074891,0.6059578167696938
1.8687224669603526,0.5079829479128298
1.9020925110132159,0.4051966033307939
1.9354625550660793,0.2814382198944794
1.9688325991189428,0.12897447601233952
2.002202643171806,-0.04430567440213553
2.0355726872246698,-0.21738373773115469
2.068942731277533,-0.3668602060623492
2.1023127753303967,-0.47937249777425667
2.13568281938326,-0.5579746560121287
2.1690528634361232,-0.6184397520837515
2.202422907488987,-0.6776368813375829
2.23579295154185,-0.7410289509623773
2.269162995594714,-0.7969798495078797
2.302533039647577,-0.8216144614845341
2.3359030837004404,-0.7918072281674677
2.369273127753304,-0.6990697880749892
2.4026431718061674,-0.5564041468617295
2.436013215859031,-0.3939825292390357
2.4693832599118943,-0.245691774986113
2.5027533039647576,-0.13369366887945008
2.5361233480176213,-0.05933465319794713
2.5694933920704845,-0.005299814949132388
2.6028634361233483,0.05226532272805886
2.6362334801762115,0.12843742971792432
2.6696035242290748,0.21956853260368944
2.7029735682819385,0.3043741612639047
2.7363436123348017,0.3556707719624709
2.7697136563876654,0.3564273726225355
2.8030837004405287,0.3111865650446281
2.8364537444933924,0.24614333430273477
2.8698237885462556,0.1971658087239441
2.903193832599119,0.1916595342448876
2.9365638766519826,0.23385475534426378
2.969933920704846,0.3017285714348015
3.0033039647577096,0.3578470121490219
3.036674008810573,0.3688727573108066
3.070044052863436,0.3233676972068099
3.1034140969162998,0.237873291090571
3.136784140969163,0.14732412962615846
3.1701541850220267,0.08462957889755146
3.20352422907489,0.06087677244685936
3.2368942731277532,0.05801647399226463
3.270264317180617,0.039331810564304216
3.30363436123348,-0.027241455579922472
3.337004405286344,-0.14598510695418537
3.370374449339207,-0.2844641312432572
3.4037444933920704,-0.38549948169113024
3.437114537444934,-0.39503932680794707
3.4704845814977974,-0.2914950299229691
3.503854625550661,-0.10056033454210808
3.5372246696035243,0.1131246548525977
3.5705947136563876,0.2739792115994376
3.6039647577092513,0.329432052479204
3.6373348017621145,0.2730983052636523
3.6707048458149782,0.14602024106655334
3.7040748898678415,0.015784450269978156
3.737444933920705,-0.05594665978322807
3.7708149779735685,-0.04173939608514139
3.8041850220264317,0.04062447303964458
3.8375550660792954,0.13885471479917308
3.8709251101321587,0.1924858491139902
3.9042951541850224,0.16172141595377182
3.9376651982378856,0.045204200755048156
3.971035242290749,-0.12086933309533604
4.004405286343612,-0.2806189449673354
4.037775330396476,-0.38383830993823004
4.0711453744493395,-0.4066730808755132
4.104515418502203,-0.35881930794786154
4.137885462555066,-0.2756088520978124
4.171255506607929,-0.20040517624547147
4.2046255506607935,-0.16631027022981287
4.237995594713657,-0.1850765334698639
4.27136563876652,-0.246548643034532
4.304735682819383,-0.326613190400782
4.3381057268722465,-0.3981720736177054
4.371475770925111,-0.4394874224365467
4.404845814977974,-0.4370029428112064
4.438215859030837,-0.3836050932541237
4.4715859030837,-0.2759589975014364
4.504955947136564,-0.11451652683593967
4.538325991189428,0.09283982365079191
4.571696035242291,0.3260520108881318
4.605066079295154,0.5515700366432256
4.638436123348018,0.7279264301107651
4.671806167400881,0.8178493535034347
4.705176211453745,0.8021722373929092
4.738546255506608,0.6886528198903251
4.7719162995594715,0.5105982601588637
4.805286343612335,0.31520632879448424
4.838656387665198,0.14692400644188364
4.872026431718062,0.03363165671580019
4.905396475770925,-0.018436493940609592
4.938766519823789,-0.02017327243498164
4.972136563876652,0.010339685830398205
5.005506607929515,0.05691855519749916
5.038876651982379,0.10900174611902361
5.072246696035243,0.15961858556148567
5.105616740088106,0.20094290276235904
5.138986784140969,0.22189067054956477
5.172356828193832,0.21027793925088506
5.2057268722466965,0.15853794848806244
5.23909691629956,0.0692992124757393
5.272466960352423,-0.04302412146281831
5.305837004405286,-0.15613264659141932
5.3392070484581495,-0.24757953623556797
5.372577092511014,-0.3027546386012925
5.405947136563877,-0.3197416245254017
5.43931718061674,-0.30944505870822014
5.4726872246696034,-0.2913446164329842
5.506057268722468,-0.28644160738874186
5.539427312775331,-0.3094003651595337
5.572797356828194,-0.36202919923619137
5.606167400881057,-0.43031834924105583
5.639537444933921,-0.48692173778053643
5.672907488986785,-0.49967493985159706
5.706277533039648,-0.4443583908029806
5.739647577092511,-0.3172316616301738
5.7730176211453745,-0.14144906180903383
5.806387665198238,0.037204113136422044
5.839757709251102,0.16553222456708985
5.873127753303965,0.20383616940534455
5.9064977973568284,0.14340726318860966
5.939867841409692,0.011977216680806443
5.973237885462555,-0.13634594068549072
6.006607929515419,-0.24264814372364124
6.039977973568282,-0.26646772182151607
6.073348017621146,-0.200067509783499
6.106718061674009,-0.06770472749791796
6.140088105726872,0.08852573527968316
6.173458149779736,0.2283843125878707
6.2068281938325995,0.32909774977835715
6.240198237885463,0.39060015611528137
6.273568281938326,0.4300395353517318
6.306938325991189,0.47007995685558557
6.3403083700440535,0.5270191857694504
6.373678414096917,0.6030081361557348
6.40704845814978,0.683798669978814
6.440418502202643,0.7415507751822481
6.4737885462555065,0.7418256115915357
6.507158590308371,0.6539256290217214
6.540528634361234,0.4629212525615438
6.573898678414097,0.17991900414916176
6.60726872246696,-0.15422617152634432
6.640638766519824,-0.47565332712720293
6.674008810572688,-0.7148229450857251
6.707378854625551,-0.8193453970302703
6.740748898678414,-0.7733861879632756
6.774118942731278,-0.6047636259720807
6.807488986784141,-0.3753807109674809
6.840859030837005,-0.15786169781226314
6.874229074889868,-0.007829883657422924
6.9075991189427315,0.05614972484167865
6.940969162995595,0.05593088737588284
6.974339207048458,0.03893540483910227
7.007709251101322,0.052202527632427845
7.041079295154185,0.11790873949333477
7.074449339207049,0.2222418914417143
7.107819383259912,0.3227603846848708
7.141189427312775,0.3699407289776531
7.174559471365639,0.33152986788686495
7.207929515418503,0.2073745964142696
7.241299559471366,0.027961942987080695
7.274669603524229,-0.16128264096211928
7.308039647577092,-0.3207437244168066
7.3414096916299565,-0.4314744950210079
7.37477973568282,-0.49744377728587225
7.408149779735683,-0.5358655359239731
7.441519823788546,-0.5626182036671908
7.47488986784141,-0.581609450868703
7.508259911894274,-0.5836731577771388
7.541629955947137,-0.5544115042636586
7.575,-0.4850179000051687
7.608370044052863,-0.37865178110044356
7.641740088105728,-0.24819457963033562
7.675110132158591,-0.10719646791724602
7.708480176211454,0.03924105586618238
7.741850220264317,0.1963623514866287
7.775220264317181,0.37176285282384325
7.808590308370045,0.5619533668984072
7.841960352422908,0.7428794447152788
7.875330396475771,0.8727841855446872
7.9087004405286345,0.9087324858778946
7.942070484581498,0.8290734851719719
7.975440528634362,0.6490225437443129
8.008810572687224,0.4191998517954126
8.042180616740088,0.20624586481125812
8.075550660792953,0.06494033343715264
8.108920704845815,0.016137025860009063
8.142290748898679,0.0413472138815355
8.175660792951541,0.09541365211645138
8.209030837004406,0.12936480331616215
8.24240088105727,0.11154436540281062
8.275770925110132,0.037888849039395295
8.309140969162996,-0.07097034139957767
8.342511013215859,-0.18172148687278533
8.375881057268723,-0.26260457478890104
8.409251101321587,-0.2939947154395458
8.44262114537445,-0.27259456173784175
8.475991189427313,-0.20956804231709572
8.509361233480176,-0.12480111050777104
8.54273127753304,-0.04003622561115685
8.576101321585904,0.026733327162693905
8.609471365638766,0.06421161952883404
8.64284140969163,0.06801556650496367
8.676211453744493,0.0391937221051188
8.709581497797357,-0.017617967032580208
8.742951541850221,-0.09567849763555579
8.776321585903084,-0.1874029881808004
8.809691629955948,-0.28579867711282625
8.84306167400881,-0.38586871288960295
8.876431718061674,-0.48498302811759925
8.909801762114538,-0.5812219355525564
8.9431718061674,-0.6698711003852315
8.976541850220265,-0.7398991807094929
9.009911894273127,-0.7731104458628397
9.043281938325991,-0.7478444505379856
9.076651982378856,-0.6467857275661298
9.110022026431718,-0.46587228654219764
9.143392070484582,-0.2199866326736621
9.176762114537445,0.057994412058293546
9.210132158590309,0.325393549019355
9.243502202643173,0.5424265700885152
9.276872246696035,0.6845587350681125
9.3102422907489,0.7499052522220597
9.343612334801762,0.759233393843585
9.376982378854626,0.7488377055328733
9.41035242290749,0.7584951685210938
9.443722466960352,0.8175886157770261
9.477092511013216,0.9328854384991232
9.510462555066079,1.0817469303769638
9.543832599118943,1.2141968811424448
9.577202643171807,1.2653462963340525
9.61057268722467,1.1759829601190495
9.643942731277534,0.9150124323562472
9.677312775330396,0.4951579351482622
9.71068281938326,-0.025314538269419023
9.744052863436124,-0.5570567569596929
9.777422907488987,-1.005826787982541
9.81079295154185,-1.3007693116334276
9.844162995594713,-1.4140731408759286
9.877533039647577,-1.3649454748259389
9.910903083700441,-1.207483759814629
9.944273127753304,-1.0084625163848147
9.977643171806168,-0.82436746145417
10.01101321585903,-0.6860496318544651
10.044383259911895,-0.5951497853979754
10.077753303964759,-0.5313149740133875
10.111123348017621,-0.465496230858548
10.144493392070485,-0.37345574157144146
10.177863436123348,-0.2448483999133136
10.211233480176212,-0.08580954701405537
10.244603524229076,0.0844120828749087
10.277973568281938,0.2405611362201102
10.311343612334802,0.35958677932352273
10.344713656387665,0.42778687621526323
10.378083700440529,0.4453379770627095
10.411453744493393,0.42700601337381683
10.444823788546255,0.39816997020774314
10.47819383259912,0.38633708612124323
10.511563876651982,0.41032674632934757
10.544933920704846,0.471344377909071
10.57830396475771,0.5505867551018595
10.611674008810573,0.6157235033319924
10.645044052863437,0.6342571306732463
10.678414096916299,0.5877418567459629
10.711784140969163,0.47977358496190914
10.745154185022027,0.3336226872698092
10.77852422907489,0.18093014907675345
10.811894273127754,0.047757322555790516
10.845264317180618,-0.0545870497594426
10.87863436123348,-0.12983678484434827
10.912004405286345,-0.1895804422762098
10.945374449339207,-0.24401468432535012
10.978744493392071,-0.2961289547348404
11.012114537444935,-0.34145949103365414
11.045484581497798,-0.37163810064609215
11.078854625550662,-0.3783176746472803
11.112224669603524,-0.3553576144281528
11.145594713656388,-0.2997026493250288
11.178964757709252,-0.2127632993264162
11.212334801762115,-0.1031591597439089
11.245704845814979,0.010657202402636286
11.279074889867841,0.10099466945138083
11.312444933920705,0.13710606363360112
11.34581497797357,0.09634601904378341
11.379185022026432,-0.02380580480085275
11.412555066079296,-0.19875331383218275
11.445925110132158,-0.37949385470122976
11.479295154185023,-0.5058379478321237
11.512665198237887,-0.5262489516453313
11.546035242290749,-0.41707651964454995
11.579405286343613,-0.19352638913343362
11.612775330396476,0.09253493749433578
11.64614537444934,0.36792717502511985
11.679515418502204,0.5615088726598912
11.712885462555066,0.6271445029607404
11.74625550660793,0.5579118800580359
11.779625550660793,0.3864666184405563
11.812995594713657,0.17169858695111426
11.846365638766521,-0.02309899999513209
11.879735682819383,-0.15226371366346747
11.913105726872248,-0.20174191351805984
11.94647577092511,-0.18986568522855507
11.979845814977974,-0.15496419527596933
12.013215859030838,-0.13524023387091064
12.0465859030837,-0.14974958023776777
12.079955947136565,-0.18905795212450616
12.113325991189427,-0.2200176925555415
12.146696035242291,-0.2027504358431915
12.180066079295155,-0.1121930382843433
12.213436123348018,0.045842012035292444
12.246806167400882,0.23200047085132278
12.280176211453744,0.386196834423047
12.313546255506608,0.45104654903006425
12.346916299559473,0.3961353200370317
12.380286343612335,0.23264359454907763
12.413656387665199,0.011706076306395965
12.447026431718061,-0.19336589234255008
12.480396475770926,-0.3141219059427212
12.51376651982379,-0.3124877645180343
12.547136563876652,-0.19454751927859373
12.580506607929516,-0.007178041505487667
12.613876651982379,0.18089695592764007
12.647246696035243,0.3058481752513174
12.680616740088107,0.3325739710894389
12.71398678414097,0.266355224243987
12.747356828193833,0.14810951621493484
12.780726872246696,0.03563171893112636
12.81409691629956,-0.02117365269665855
12.847466960352424,-0.0006604430381963475
12.880837004405286,0.08305732585891128
12.91420704845815,0.18823891688903033
12.947577092511013,0.2649919886774976
12.980947136563877,0.2767014359285903
13.014317180616741,0.21351430003135255
13.047687224669604,0.09239355130849393
13.081057268722468,-0.05474307487619354
13.11442731277533,-0.19746930991536354
13.147797356828194,-0.3190116723749163
13.181167400881058,-0.4185822771590963
13.21453744493392,-0.5043345268523819
13.247907488986785,-0.5824677466632526
13.281277533039647,-0.649384837335717
13.314647577092511,-0.6911157657768275
13.348017621145376,-0.6895077808128822
13.381387665198238,-0.6309669084184885
13.414757709251102,-0.5128656817787162
13.448127753303964,-0.345000005935328
13.481497797356829,-0.14670238646564082
13.514867841409693,0.05789513444589059
13.548237885462555,0.24433176500498346
13.58160792951542,0.3915806917343832
13.614977973568282,0.48578678350573706
13.648348017621146,0.5241382555287147
13.68171806167401,0.5173975307892046
13.715088105726872,0.48853975142148537
13.748458149779736,0.4658352719964804
13.781828193832599,0.47156761067638453
13.815198237885463,0.5108574615897421
13.848568281938327,0.5665508067070715
13.88193832599119,0.6043051902954174
13.915308370044054,0.5871882202471052
13.948678414096916,0.4936308978043226
13.98204845814978,0.3297233541303338
14.015418502202644,0.12881797075893653
14.048788546255507,-0.06227877954372113
14.08215859030837,-0.20389714390332128
14.115528634361233,-0.2802028973361364
14.148898678414097,-0.30323724467269764
14.182268722466961,-0.30252948048225176
14.215638766519824,-0.3065891344249792
14.249008810572688,-0.32698297996349857
14.28237885462555,-0.3538417213098269
14.315748898678414,-0.3646791076404278
14.349118942731279,-0.3405442598326677
14.382488986784141,-0.27947975382328855
14.415859030837005,-0.19936727167841126
14.449229074889868,-0.12901613261074002
14.482599118942732,-0.09342389575550411
14.515969162995596,-0.10213468616691665
14.549339207048458,-0.14696665914369797
14.582709251101322,-0.2091492870273095
14.616079295154185,-0.2702421417567418
14.649449339207049,-0.31955892602862196
14.682819383259913,-0.3539250506928353
14.716189427312775,-0.37122370831887486
14.74955947136564,-0.36362836149374206
14.782929515418502,-0.3167456640624045
14.816299559471366,-0.21674546294042984
14.84966960352423,-0.061530453229198735
14.883039647577093,0.131792530964291
14.916409691629957,0.32947319717319534
14.94977973568282,0.4938909172576886
14.983149779735683,0.5997504856982986
15.016519823788547,0.644007104599902
15.04988986784141,0.6433221229562098
15.083259911894274,0.6206740880598155
15.116629955947138,0.5897298484325937
15.15,0.547013425010199
15.183370044052865,0.47680603142955447
15.216740088105727,0.3654316299870193
15.250110132158591,0.21552188087492719
15.283480176211455,0.050842480906454365
15.316850220264318,-0.09186059693858807
15.350220264317182,-0.17963905734775332
15.383590308370044,-0.1993670207640622
15.416960352422908,-0.1642708578709429
15.450330396475772,-0.10770480283626833
15.483700440528635,-0.06777739444049584
15.517070484581499,-0.07088159151285496
15.550440528634361,-0.12211606752446573
15.583810572687225,-0.20641415293663667
15.61718061674009,-0.2983936020068038
15.650550660792952,-0.3747214217517281
15.683920704845816,-0.42238513941429834
15.717290748898678,-0.43960775325123713
15.750660792951543,-0.4309013496691438
15.784030837004407,-0.40086988674125945
15.817400881057269,-0.35111971773579
15.850770925110133,-0.2816560533568725
15.884140969162996,-0.19475865119953673
15.91751101321586,-0.09779695377711975
15.950881057268724,-0.002489295502062234
15.984251101321586,0.0792861960814921
16.01762114537445,0.14067988601841333
16.050991189427315,0.18291820615187285
16.084361233480177,0.21428568626440184
16.11773127753304,0.2454099122406689
16.151101321585905,0.28324480701379606
16.184471365638768,0.32679291253142556
16.21784140969163,0.3665932280799041
16.251211453744492,0.3880246348176735
16.284581497797358,0.3767240352894811
16.31795154185022,0.32377029175865973
16.351321585903083,0.22880015264864448
16.38469162995595,0.10030330976190631
16.41806167400881,-0.04666932376271024
16.451431718061674,-0.19451880855701428
16.48480176211454,-0.32757978189376596
16.518171806167402,-0.4355566194398529
16.551541850220264,-0.514439035271328
16.584911894273127,-0.5641316381765878
16.618281938325993,-0.5835516910015089
16.651651982378855,-0.5657644176682449
16.685022026431717,-0.4966885232265094
16.718392070484583,-0.35989742051183715
16.751762114537446,-0.14694718652127564
16.785132158590308,0.13112505992715082
16.818502202643174,0.4376430564763881
16.851872246696036,0.7147205492960722
16.8852422907489,0.8989435770905654
16.91861233480176,0.9432317004619681
16.951982378854627,0.8359310821493039
16.98535242290749,0.6083560964805405
17.01872246696035,0.3263724964898078
17.052092511013218,0.06836658895799129
17.08546255506608,-0.10191769559532633
17.118832599118942,-0.15654819274407558
17.152202643171808,-0.1097856701281267
17.18557268722467,-0.007387317903346885
17.218942731277533,0.09574877148303663
17.2523127753304,0.15904959451921477
17.28568281938326,0.17031434427368228
