Frequency (Hz),Amplitude
0.0,1.1669014401415383
0.01978021978021978,1.1663568885987006
0.03956043956043956,1.1647238737767676
0.05934065934065934,1.1620043154739406
0.07912087912087912,1.1582014146346913
0.0989010989010989,1.1533196553394338
0.11868131868131868,1.147364807729039
0.13846153846153844,1.1403439320084985
0.15824175824175823,1.1322653837226866
0.17802197802197803,1.1231388205524415
0.1978021978021978,1.1129752109423123
0.21758241758241756,1.1017868449450685
0.23736263736263735,1.0895873477553326
0.2571428571428572,1.0763916965084679
0.2769230769230769,1.0622162410465479
0.2967032967032967,1.0470787295051873
0.31648351648351647,1.0309983397613818
0.3362637362637363,1.0139957180117087
0.35604395604395606,0.9960930260336094
0.3758241758241758,0.9773139990357907
0.3956043956043956,0.9576840164450425
0.4153846153846154,0.9372301885321003
0.4351648351648351,0.9159814624800489
0.45494505494505494,0.893968752389049
0.4747252747252747,0.871225098845236
0.4945054945054945,0.8477858651338798
0.5142857142857143,0.8236889790433235
0.5340659340659341,0.7989752316126347
0.5538461538461538,0.7736886472881063
0.5736263736263736,0.7478769439852819
0.5934065934065934,0.7215921067783159
0.6131868131868132,0.6948911057001812
0.6329670329670329,0.6678367968482933
0.6527472527472528,0.6404990571125727
0.6725274725274726,0.6129562168189422
0.6923076923076923,0.585296871658473
0.7120879120879121,0.557622175123081
0.7318681318681318,0.5300487335961779
0.7516483516483516,0.5027122436360009
0.7714285714285715,0.4757720144085117
0.7912087912087912,0.44941648632694986
0.810989010989011,0.4238697493107994
0.8307692307692308,0.3993988102385329
0.8505494505494506,0.37632085004835825
0.8703296703296702,0.3550088109612289
0.8901098901098901,0.3358922799631491
0.9098901098901099,0.31944897605645933
0.9296703296703297,0.30618107208811396
0.9494505494505494,0.29657195991800855
0.9692307692307692,0.2910251410735241
0.989010989010989,0.28979762736835907
1.0087912087912088,0.2929498565182811
1.0285714285714287,0.3003330933267793
1.0483516483516484,0.31162009941259844
1.0681318681318681,0.3263653156195327
1.087912087912088,0.3440713276648566
1.1076923076923075,0.3642430378803242
1.1274725274725275,0.38642214939588815
1.1472527472527472,0.4102035796281166
1.1670329670329669,0.43523924303661204
1.1868131868131868,0.4612346694611476
1.2065934065934065,0.4879424287315994
1.2263736263736265,0.5151547425165157
1.2461538461538462,0.5426964965831202
1.2659340659340659,0.5704191528494651
1.2857142857142858,0.598195678096435
1.3054945054945055,0.6259164267437834
1.3252747252747252,0.6534858468243331
1.3450549450549452,0.6808198652323304
1.3648351648351649,0.7078438195529114
1.3846153846153846,0.7344908234950993
1.4043956043956045,0.760700473713152
1.4241758241758242,0.7864178245189861
1.443956043956044,0.8115925726906137
1.4637362637362636,0.8361784072552735
1.4835164835164834,0.8601324891319567
1.5032967032967033,0.8834150333202377
1.523076923076923,0.9059889723641996
1.542857142857143,0.9278196844854166
1.5626373626373626,0.9488747733779771
1.5824175824175823,0.9691238894396382
1.6021978021978023,0.9885385843651358
1.621978021978022,1.0070921926999996
1.6417582417582417,1.0247597352558904
1.6615384615384616,1.041517840308305
1.6813186813186813,1.057344679298941
1.7010989010989013,1.0722199143978794
1.720879120879121,1.0861246557826023
1.7406593406593405,1.0990414268912532
1.7604395604395604,1.1109541362281095
1.7802197802197801,1.1218480545573293
1.7999999999999998,1.1317097965305032
1.8197802197802198,1.1405273059638108
1.8395604395604395,1.148289844120225
1.8593406593406594,1.1549879804680814
1.879120879120879,1.1606135854830981
1.8989010989010988,1.16515982514225
1.9186813186813187,1.1686211568265716
1.9384615384615385,1.1709933264096095
1.9582417582417584,1.1722733663604301
1.978021978021978,1.1724595947368202
1.9978021978021978,1.171551614987347
2.0175824175824175,1.169550316521158
2.0373626373626372,1.166457876043697
2.0571428571428574,1.1622777596954341
2.076923076923077,1.1570147260711359
2.096703296703297,1.1506748302396903
2.1164835164835165,1.1432654289311097
2.1362637362637362,1.1347951871090198
2.1560439560439564,1.1252740862058288
2.175824175824176,1.1147134343659915
2.195604395604396,1.1031258791225627
2.215384615384615,1.0905254230273695
2.2351648351648348,1.076927442868655
2.254945054945055,1.062348713248028
2.2747252747252746,1.0468074354559405
2.2945054945054943,1.0303232727908347
2.314285714285714,1.0129173937206404
2.3340659340659338,0.9946125246003565
2.353846153846154,0.9754330140517958
2.3736263736263736,0.9554049116041586
2.3934065934065933,0.9345560638138782
2.413186813186813,0.9129162318670825
2.4329670329670328,0.8905172356658755
2.452747252747253,0.8673931306740246
2.4725274725274726,0.8435804254312534
2.4923076923076923,0.8191183497484597
2.512087912087912,0.7940491863108241
2.5318681318681318,0.768418681929074
2.5516483516483515,0.7422765592313584
2.5714285714285716,0.7156771554850234
2.5912087912087913,0.6886802228543083
2.610989010989011,0.6613519341796603
2.6307692307692307,0.633766150772323
2.6505494505494505,0.606006024144761
2.6703296703296706,0.5781660220989425
2.6901098901098903,0.5503544903669013
2.70989010989011,0.5226968812971418
2.7296703296703297,0.4953397941628151
2.7494505494505495,0.468455963028597
2.769230769230769,0.44225026910986537
2.7890109890109893,0.416966692812464
2.808791208791209,0.39289576896129663
2.8285714285714287,0.37038144208075274
2.8483516483516484,0.34982510774176423
2.8681318681318677,0.33168306855921803
2.887912087912088,0.3164520588677137
2.9076923076923076,0.3046371960778901
2.9274725274725273,0.2966999204762326
2.947252747252747,0.29299188237518703
2.9670329670329667,0.29369208358147536
2.986813186813187,0.2987707254535663
3.0065934065934066,0.3079957178508548
3.0263736263736263,0.3209788249684783
3.046153846153846,0.3372417358938745
3.0659340659340657,0.3562792794876676
3.085714285714286,0.37760573396501795
3.1054945054945056,0.4007812506301176
3.1252747252747253,0.42542225696125574
3.145054945054945,0.4512016305347397
3.1648351648351647,0.4778435708883568
3.184615384615385,0.5051164445565433
3.2043956043956046,0.532825438639408
3.2241758241758243,0.5608058898122764
3.243956043956044,0.58891759686289
3.2637362637362637,0.6170401404976283
3.2835164835164834,0.6450691097209396
3.3032967032967036,0.6729130937912386
3.3230769230769233,0.7004912984378194
3.342857142857143,0.7277316610828614
3.3626373626373627,0.7545693605561674
3.3824175824175824,0.7809456369436955
3.4021978021978025,0.8068068547493079
3.4219780219780223,0.8321037569961892
3.441758241758242,0.8567908694356671
3.4615384615384617,0.8808260230923148
3.481318681318681,0.9041699704175648
3.501098901098901,0.9267860757718346
3.520879120879121,0.9486400651603967
3.5406593406593405,0.9696998233947373
3.5604395604395602,0.9899352293618814
3.58021978021978,1.0093180220307458
3.5999999999999996,1.027821691338786
3.61978021978022,1.0454213892846969
3.6395604395604395,1.0620938574800591
3.659340659340659,1.0778173681433556
3.679120879120879,1.0925716760971353
3.6989010989010986,1.1063379797890773
3.718681318681319,1.1190988897242442
3.7384615384615385,1.1308384029909748
3.758241758241758,1.1415418828006514
3.7780219780219784,1.1511960421549472
3.7978021978021976,1.1597889309120735
3.8175824175824173,1.1673099256535555
3.8373626373626375,1.173749721860694
3.8571428571428568,1.1791003280002268
3.876923076923077,1.1833550611946464
3.896703296703296,1.186508544218329
3.916483516483517,1.1885567036169677
3.936263736263736,1.1894967687985014
3.956043956043956,1.1893272719889005
3.9758241758241755,1.1880480489886112
3.9956043956043956,1.1856602407056611
4.015384615384615,1.1821662954808796
4.035164835164835,1.1775699722608666
4.054945054945055,1.1718763447160192
4.0747252747252745,1.1650918064460982
4.094505494505494,1.1572240774647429
4.114285714285715,1.1482822122103662
4.134065934065934,1.1382766093943886
4.153846153846154,1.1272190240719167
4.173626373626373,1.1151225824078794
4.193406593406594,1.1020017997155196
4.213186813186813,1.087872602470477
4.232967032967033,1.0727523551557963
4.252747252747253,1.0566598929798237
4.2725274725274724,1.0396155617380436
4.292307692307692,1.0216412663733907
4.312087912087913,1.0027605301420301
4.331868131868132,0.9829985667318837
4.351648351648352,0.9623823682347774
4.371428571428571,0.9409408125710228
4.391208791208792,0.9187047948510966
4.410989010989011,0.8957073882864076
4.43076923076923,0.8719840417039846
4.450549450549451,0.8475728225721038
4.4703296703296695,0.8225147168305638
4.49010989010989,0.7968539999035257
4.50989010989011,0.7706386972659421
4.52967032967033,0.7439211581071196
4.549450549450549,0.7167587723281199
4.569230769230769,0.6892148697332472
4.589010989010989,0.6613598512967093
4.608791208791209,0.6332726162584741
4.628571428571428,0.605042365818605
4.648351648351649,0.576770884121032
4.6681318681318675,0.5485754185539838
4.687912087912088,0.5205922999420499
4.707692307692308,0.4929814493314714
4.7274725274725276,0.4659318918876967
4.747252747252747,0.4396683019664622
4.767032967032967,0.41445836983216533
4.786813186813187,0.3906203044335073
4.806593406593407,0.36852893200062803
4.826373626373626,0.3486175167904113
4.846153846153847,0.3313707534608072
4.8659340659340655,0.31730311698645364
4.885714285714286,0.3069176628646663
4.905494505494506,0.300645772244077
4.9252747252747255,0.2987787281686058
4.945054945054945,0.30141251804098607
4.964835164835165,0.30842829803366983
4.984615384615385,0.3195173662152764
5.004395604395604,0.33423932426795905
5.024175824175824,0.35209031242616884
5.043956043956045,0.37256101646302986
5.0637362637362635,0.3951751233655725
5.083516483516483,0.4195087454835092
5.103296703296703,0.4451960239050451
5.123076923076923,0.4719266095949984
5.142857142857143,0.49943933400209745
5.162637362637362,0.5275147325460544
5.182417582417583,0.5559678201467386
5.2021978021978015,0.5846417239320466
5.221978021978022,0.6134023427259336
5.241758241758242,0.6421339927355926
5.2615384615384615,0.6707359145050126
5.281318681318681,0.699119495592551
5.301098901098901,0.7272060716809721
5.320879120879121,0.7549251878298701
5.340659340659341,0.7822132226458983
5.36043956043956,0.8090122975460595
5.380219780219781,0.8352694097477207
5.3999999999999995,0.8609357409917602
5.41978021978022,0.8859661046077661
5.43956043956044,0.9103185018193007
5.4593406593406595,0.9339537646179855
5.479120879120879,0.9568352675054733
5.498901098901099,0.9789286942400681
5.518681318681319,1.0002018486903999
5.538461538461538,1.0206245011948514
5.558241758241758,1.0401682636084337
5.578021978021979,1.058806487608562
5.5978021978021975,1.0765141819184292
5.617582417582418,1.093267944960737
5.637362637362637,1.1090459101289498
5.6571428571428575,1.1238277013977553
5.676923076923077,1.137594397420341
5.696703296703297,1.1503285026013046
5.716483516483517,1.1620139239086058
5.736263736263735,1.172635952410132
5.756043956043956,1.1821812487015495
5.775824175824176,1.1906378315403856
5.795604395604395,1.1979950691236811
5.815384615384615,1.2042436725485686
5.835164835164835,1.2093756910806868
5.854945054945055,1.2133845089280766
5.874725274725275,1.2162648432812155
5.894505494505494,1.2180127434346235
5.914285714285715,1.2186255908545789
5.934065934065933,1.2181021001026533
5.953846153846154,1.2164423205666712
5.973626373626374,1.2136476389917321
5.993406593406593,1.209720782844177
6.013186813186813,1.2046658245833193
6.032967032967033,1.1984881869596054
6.052747252747253,1.1911946495055727
6.072527472527473,1.182793356439339
6.092307692307692,1.173293826260277
6.112087912087913,1.1627069633864502
6.131868131868131,1.1510450722647187
6.151648351648352,1.1383218744810286
6.171428571428572,1.1245525295143626
6.191208791208791,1.1097536599173834
6.210989010989011,1.093943381877113
6.230769230769231,1.0771413423173708
6.2505494505494505,1.0593687639616476
6.270329670329671,1.0406485000934051
6.29010989010989,1.0210051011477965
6.309890109890111,1.000464895765347
6.329670329670329,0.9790560895639289
6.349450549450549,0.9568088856756659
6.36923076923077,0.9337556321001466
6.3890109890109885,0.9099310022067089
6.408791208791209,0.8853722163603187
6.428571428571428,0.8601193147565277
6.4483516483516485,0.8342154942745118
6.468131868131868,0.8077075256790147
6.487912087912088,0.7806462720638
6.507692307692308,0.753087335336274
6.527472527472527,0.7250918651759664
6.547252747252747,0.6967275747065914
6.567032967032967,0.668070019589069
6.5868131868131865,0.639204212797416
6.606593406593407,0.6102266661194198
6.626373626373626,0.5812479707860521
6.6461538461538465,0.5523960511527316
6.665934065934065,0.5238202408901115
6.685714285714286,0.4956963272863158
6.705494505494506,0.4682326592433764
6.725274725274725,0.4416772688394184
6.745054945054945,0.41632563109612525
6.764835164835165,0.39252805797350365
6.7846153846153845,0.3706946519813381
6.804395604395605,0.35129419180447957
6.824175824175824,0.33484162647049504
6.8439560439560445,0.3218681787816227
6.863736263736263,0.31287058403465845
6.883516483516484,0.3082437697445451
6.903296703296704,0.30821297194158553
6.923076923076923,0.31278937967769554
6.942857142857143,0.32176840815536406
6.962637362637362,0.3347713286819927
6.9824175824175825,0.35131208280808807
7.002197802197802,0.37086508105419325
7.021978021978022,0.39291724911986253
7.041758241758242,0.4169992980213069
7.061538461538461,0.4426993125619287
7.081318681318681,0.4696645769863887
7.101098901098901,0.49759702802195416
7.1208791208791204,0.5262460632929534
7.140659340659341,0.555400863635671
7.16043956043956,0.5848832898638388
7.1802197802197805,0.6145417630966714
7.199999999999999,0.6442461972223119
7.21978021978022,0.6738838972042119
7.23956043956044,0.7033562818463112
7.259340659340659,0.7325762831362479
7.279120879120879,0.7614662885360377
7.298901098901099,0.7899565135424617
7.318681318681318,0.8179837129979555
7.338461538461539,0.8454901583812743
7.358241758241758,0.8724228239036611
7.3780219780219785,0.898732736771548
7.397802197802197,0.9243744568541075
7.417582417582418,0.9493056586903081
7.437362637362638,0.9734867947310359
7.457142857142857,0.9968808233174965
7.476923076923077,1.0194529884538488
7.496703296703297,1.0411706411833366
7.516483516483516,1.0620030945096717
7.536263736263736,1.081921505464189
7.556043956043957,1.100898779213952
7.575824175824176,1.1189094911206925
7.595604395604395,1.135929823459274
7.615384615384615,1.1519375141360428
7.635164835164835,1.1669118152493192
7.654945054945055,1.180833459734938
7.674725274725275,1.1936846346612933
7.694505494505494,1.2054489599978846
7.7142857142857135,1.2161114718917578
7.734065934065935,1.2256586096581346
7.753846153846154,1.2340782058326956
7.7736263736263735,1.2413594787500184
7.793406593406592,1.2474930272102371
7.813186813186814,1.2524708268787856
7.832967032967034,1.2562862281341476
7.852747252747252,1.2589339551401475
7.872527472527472,1.2604101059728663
7.892307692307693,1.260712153681442
7.912087912087912,1.259838948206474
7.931868131868132,1.257790719122888
7.951648351648351,1.254569079215603
7.971428571428572,1.2501770289386465
7.991208791208791,1.2446189618518493
8.010989010989011,1.237900671176279
8.03076923076923,1.2300293576605827
8.05054945054945,1.2210136390080786
8.07032967032967,1.2108635611799985
8.09010989010989,1.199590611966804
8.10989010989011,1.1872077373091834
8.129670329670331,1.1737293609576298
8.149450549450549,1.1591714081878615
8.169230769230769,1.143551334445422
8.189010989010988,1.126888159983003
8.20879120879121,1.1092025117874589
8.22857142857143,1.090516674382399
8.248351648351647,1.0708546514504118
8.268131868131867,1.0502422406668739
8.287912087912087,1.0287071246987527
8.307692307692308,1.0062789820304152
8.327472527472528,0.9829896221755883
8.347252747252746,0.9588731509769105
8.367032967032966,0.9339661731542962
8.386813186813187,0.9083080411366038
8.406593406593407,0.8819411616241533
8.426373626373627,0.8549113744468624
8.446153846153845,0.8272684223185421
8.465934065934066,0.7990665353191649
8.485714285714286,0.7703651607117223
8.505494505494505,0.7412298774471745
8.525274725274725,0.7117335459239064
8.545054945054945,0.6819577577586997
8.564835164835165,0.6519946678828887
8.584615384615384,0.6219493121507255
8.604395604395604,0.5919425366834824
8.624175824175826,0.5621146867782744
8.643956043956043,0.5326302148187423
8.663736263736263,0.5036833501185777
8.683516483516483,0.4755048937186467
8.703296703296704,0.44836999427108365
8.723076923076924,0.4226063237213775
8.742857142857142,0.3986012609129261
8.762637362637362,0.3768053763666121
8.782417582417583,0.3577277462791054
8.802197802197803,0.341917020249015
8.821978021978023,0.3299223580132852
8.84175824175824,0.32223284893526305
8.86153846153846,0.3192041946044742
8.881318681318682,0.3209935929537088
8.901098901098901,0.32752816089483777
8.920879120879121,0.3385210078854522
8.940659340659339,0.3535275099383537
8.96043956043956,0.37201838598570625
8.98021978021978,0.39344584954875195
9.0,0.4172899217818282
9.01978021978022,0.44308351240638644
9.03956043956044,0.4704212208504195
9.05934065934066,0.498958131302772
9.079120879120879,0.5284036400131695
9.098901098901099,0.5585135492396023
9.11868131868132,0.5890821877259079
9.138461538461538,0.6199353582519649
9.158241758241758,0.650924372259768
9.178021978021977,0.6819211629635203
9.197802197802199,0.7128143550043723
9.217582417582419,0.7435061356275151
9.237362637362637,0.7739097766191121
9.257142857142856,0.8039476752089825
9.276923076923078,0.8335498047730198
9.296703296703297,0.8626524875764998
9.316483516483517,0.8911974201994287
9.336263736263735,0.9191308973400694
9.356043956043957,0.9464031916763216
9.375824175824176,0.9729680568527284
9.395604395604396,0.9987823279516077
9.415384615384616,1.0238055994433972
9.435164835164835,1.0479999649627654
9.454945054945055,1.071329806617495
9.474725274725275,1.0937616241377235
9.494505494505495,1.115263896190389
9.514285714285714,1.1358069677545743
9.534065934065934,1.1553629586808025
9.553846153846154,1.1739056895210227
9.573626373626373,1.191410621475361
9.593406593406593,1.2078548079033795
9.613186813186815,1.2232168553262426
9.632967032967032,1.2374768922291608
9.652747252747252,1.2506165442812966
9.672527472527472,1.2626189148390234
9.692307692307693,1.2734685698009436
9.712087912087913,1.2831515260484037
9.731868131868131,1.291655242841796
9.75164835164835,1.2989686156561164
9.771428571428572,1.3050819720342848
9.791208791208792,1.3099870691172801
9.810989010989012,1.3136770925792316
9.83076923076923,1.3161466567559597
9.850549450549451,1.3173918058092304
9.87032967032967,1.3174100158176538
9.89010989010989,1.3162001977307347
9.90989010989011,1.3137627011662616
9.92967032967033,1.31009931907439
9.94945054945055,1.3052132933357106
9.96923076923077,1.2991093214068274
9.989010989010989,1.2917935641768894
10.008791208791209,1.2832736552535127
10.028571428571428,1.2735587119588856
10.048351648351648,1.262659348388555
10.068131868131868,1.2505876909689693
10.08791208791209,1.2373573970488918
10.107692307692307,1.2229836771779967
10.127472527472527,1.2074833218685876
10.147252747252747,1.1908747338097105
10.167032967032966,1.1731779667148028
10.186813186813188,1.1544147722451887
10.206593406593406,1.134608656774779
10.226373626373626,1.11378495016371
10.246153846153845,1.0919708892122704
10.265934065934067,1.0691957190992862
10.285714285714286,1.0454908169098698
10.305494505494504,1.020889842373062
10.325274725274724,0.9954289222262768
10.345054945054946,0.9691468762835103
10.364835164835165,0.9420854954201561
10.384615384615385,0.9142898844435106
10.404395604395603,0.8858088863876737
10.424175824175824,0.8566956094015014
10.443956043956044,0.8270080834114962
10.463736263736264,0.7968100815397551
10.483516483516484,0.7661721513349957
10.503296703296703,0.7351729137928185
10.523076923076923,0.7039007044624291
10.542857142857143,0.6724556510389282
10.562637362637362,0.6409523055020646
10.582417582417584,0.6095229743947624
