Frequency (Hz),Amplitude
0.0,0.49523868664081694
0.019867549668874173,0.49504209763701507
0.039735099337748346,0.49445264345959666
0.059602649006622516,0.493471263257885
0.07947019867549669,0.492099524451507
0.09933774834437085,0.4903396260310019
0.11920529801324503,0.4881944032685587
0.13907284768211922,0.48566733393071987
0.15894039735099338,0.4827625461140033
0.17880794701986755,0.4794848278556719
0.1986754966887417,0.4758396387059871
0.2185430463576159,0.471833123485589
0.23841059602649006,0.46747212849296066
0.2582781456953642,0.4627642204728615
0.27814569536423844,0.45771770870753964
0.2980132450331126,0.452341670649437
0.31788079470198677,0.44664598157717317
0.33774834437086093,0.4406413488265069
0.3576158940397351,0.43433935122461964
0.3774834437086093,0.4277524844392584
0.3973509933774834,0.42089421304328356
0.4172185430463576,0.41377903018751966
0.4370860927152318,0.4064225258676112
0.45695364238410596,0.39884146485791316
0.4768211920529801,0.39105387545830134
0.49668874172185434,0.38307915024522143
0.5165562913907285,0.37493816001648606
0.5364238410596026,0.3666533820417375
0.5562913907284769,0.35824904353775033
0.5761589403973509,0.34975128092368435
0.5960264900662252,0.34118831480118855
0.6158940397350993,0.3325906396479161
0.6357615894039735,0.3239912257817002
0.6556291390728477,0.3154257290882401
0.6754966887417219,0.3069327011209504
0.695364238410596,0.2985537882809251
0.7152317880794702,0.290333903688459
0.7350993377483444,0.28232134897020966
0.7549668874172186,0.274567855594009
0.7748344370860927,0.2671285070116021
0.7947019867549668,0.2600614946787693
0.8145695364238411,0.25342765473016493
0.8344370860927152,0.2472897303230638
0.8543046357615894,0.24171131091683612
0.8741721854304636,0.23675541788439974
0.8940397350993378,0.2324827389738975
0.9139072847682119,0.22894956282742462
0.9337748344370861,0.22620552494885224
0.9536423841059603,0.22429133803757298
0.9735099337748344,0.22323672683269277
0.9933774834437087,0.2230588031704746
1.0132450331125828,0.2237610882509889
1.033112582781457,0.22533331507639892
1.0529801324503312,0.22775203827836332
1.0728476821192052,0.23098196612719962
1.0927152317880795,0.2349778379392213
1.1125827814569538,0.23968661918083997
1.1324503311258278,0.24504978213311357
1.1523178807947019,0.25100547417002833
1.1721854304635762,0.25749043251295917
1.1920529801324504,0.26444156665520063
1.2119205298013245,0.2717971845311441
1.2317880794701985,0.2794978790888427
1.2516556291390728,0.28748711684357253
1.271523178807947,0.29571158140553166
1.2913907284768211,0.3041213265665408
1.3112582781456954,0.31266978904424814
1.3311258278145695,0.3213137034713698
1.3509933774834437,0.330012953814393
1.370860927152318,0.33873038740093864
1.390728476821192,0.3474316107777028
1.410596026490066,0.3560847809371621
1.4304635761589404,0.3646604010166743
1.4503311258278146,0.37313112624119443
1.4701986754966887,0.3814715834569696
1.4900662251655628,0.38965820589629757
1.5099337748344372,0.39766908365015463
1.5298013245033113,0.4054838295646229
1.5496688741721854,0.41308345980589656
1.5695364238410596,0.42045028807082185
1.5894039735099337,0.4275678322919277
1.609271523178808,0.43442073265053854
1.6291390728476822,0.44099467973584056
1.6490066225165563,0.4472763517480494
1.6688741721854303,0.45325335972440095
1.6887417218543048,0.45891419985647136
1.7086092715231789,0.464248212059381
1.728476821192053,0.4692455440435958
1.7483443708609272,0.4738971202251737
1.7682119205298013,0.478194614889633
1.7880794701986755,0.48213042909710085
1.8079470198675496,0.4856976708821363
1.8278145695364238,0.488890138361123
1.847682119205298,0.49170230541332927
1.8675496688741722,0.49412930964981144
1.8874172185430464,0.49616694242740944
1.9072847682119205,0.4978116407041764
1.9271523178807946,0.49906048056790714
1.9470198675496688,0.49991117230198023
1.9668874172185429,0.5003620568827677
1.9867549668874174,0.5004121038310875
2.0066225165562916,0.5000609103670904
2.0264900662251657,0.49930870184385073
2.0463576158940397,0.49815633346089716
2.066225165562914,0.49660529328446174
2.086092715231788,0.49465770662785574
2.1059602649006623,0.49231634187311313
2.1258278145695364,0.4895846178441031
2.1456953642384105,0.4864666128733047
2.165562913907285,0.4829670757386909
2.185430463576159,0.47909143868547854
2.205298013245033,0.4748458327898818
2.2251655629139075,0.47023710596960605
2.2450331125827816,0.46527284399937907
2.2649006622516556,0.459961394950407
2.2847682119205297,0.4543118975406917
2.3046357615894038,0.44833431396079837
2.324503311258278,0.4420394678258896
2.3443708609271523,0.43543908800258174
2.364238410596027,0.4285458591666937
2.384105960264901,0.4213734800664747
2.403973509933775,0.4139367305931798
2.423841059602649,0.40625154889456055
2.443708609271523,0.39833511990139037
2.463576158940397,0.3902059767636512
2.4834437086092715,0.38188411679727935
2.5033112582781456,0.37339113360243514
2.52317880794702,0.3647503669972238
2.543046357615894,0.3559870722687293
2.562913907284768,0.3471286099071162
2.5827814569536423,0.3382046563620686
2.6026490066225163,0.32924743531216016
2.622516556291391,0.3202919672905509
2.642384105960265,0.3113763330411153
2.662251655629139,0.30254194241260196
2.6821192052980134,0.2938337956268132
2.7019867549668874,0.2853007170794527
2.7218543046357615,0.2769955332362316
2.741721854304636,0.2689751557060422
2.76158940397351,0.26130051871759213
2.781456953642384,0.25403630831746604
2.801324503311258,0.24725041115297433
2.821192052980132,0.24101300768857012
2.8410596026490067,0.23539524353977614
2.8609271523178808,0.23046743932610958
2.8807947019867552,0.2262968487667606
2.9006622516556293,0.22294504695341735
2.9205298013245033,0.22046511813144995
2.9403973509933774,0.21889889716772884
2.9602649006622515,0.2182745754623012
2.9801324503311255,0.21860498441344767
3.0,0.21988680322541893
3.0198675496688745,0.22210080996348958
3.0397350993377485,0.22521313533340281
3.0596026490066226,0.22917733037540777
3.0794701986754967,0.23393696020865104
3.0993377483443707,0.23942840498312043
3.119205298013245,0.24558358154422064
3.1390728476821192,0.25233237320941737
3.1589403973509933,0.25960464347585305
3.1788079470198674,0.26733179028183635
3.198675496688742,0.27544785813538714
3.218543046357616,0.2838902627745613
3.23841059602649,0.2926001999883966
3.2582781456953644,0.301522812455921
3.2781456953642385,0.31060718177892754
3.2980132450331126,0.3198062019789327
3.3178807947019866,0.329076378789473
3.3377483443708607,0.3383775879479567
3.3576158940397347,0.3476728162411424
3.3774834437086096,0.3569279015210164
3.3973509933774837,0.36611128217453354
3.4172185430463577,0.37519376233673873
3.437086092715232,0.3841482961757381
3.456953642384106,0.3929497925596891
3.47682119205298,0.4015749400951089
3.4966887417218544,0.41000205170453446
3.5165562913907285,0.4182109274392947
3.5364238410596025,0.4261827339879899
3.556291390728477,0.43389989926234507
3.576158940397351,0.44134602046207955
3.596026490066225,0.44850578409993347
3.615894039735099,0.45536489658015955
3.6357615894039736,0.4619100240509719
3.6556291390728477,0.4681287403821234
3.6754966887417218,0.4740094822461655
3.695364238410596,0.47954151040197845
3.7152317880794703,0.4847148763896304
3.7350993377483444,0.4895203939458139
3.754966887417219,0.49394961453925873
3.774834437086093,0.4979948065056456
3.794701986754967,0.5016489373328011
3.814569536423841,0.5049056587101504
3.834437086092715,0.5077592940121771
3.854304635761589,0.5102048279354473
3.8741721854304636,0.5122378980528239
3.8940397350993377,0.5138547880883252
3.9139072847682117,0.5150524227517346
3.9337748344370858,0.5158283640050246
3.9536423841059607,0.516180808662773
3.9735099337748347,0.5161085872573552
3.993377483443709,0.5156111641268822
4.013245033112583,0.5146886387104306
4.033112582781457,0.5133417480616378
4.052980132450331,0.5115718706186161
4.072847682119205,0.5093810312962297
4.0927152317880795,0.5067719079962951
4.112582781456953,0.5037478396635543
4.132450331125828,0.5003128360500856
4.152317880794702,0.49647158939011804
4.172185430463576,0.4922294882309734
4.19205298013245,0.4875926337156809
4.211920529801325,0.48256785866978796
4.231788079470199,0.4771627499102524
4.251655629139073,0.4713856742698616
4.271523178807947,0.46524580891793493
4.291390728476821,0.4587531766592394
4.311258278145695,0.45191868701019533
4.33112582781457,0.4447541839869277
4.3509933774834435,0.43727250169570897
4.370860927152318,0.4294875289952388
4.390728476821192,0.42141428470339265
4.410596026490066,0.41306900504941957
4.43046357615894,0.4044692453245392
4.450331125827815,0.3956339979551879
4.470198675496689,0.38658382950371334
4.490066225165563,0.3773410393733063
4.509933774834438,0.36792984322616823
4.529801324503311,0.3583765842663148
4.549668874172186,0.3487099755123009
4.569536423841059,0.3389613758706654
4.589403973509934,0.3291651020400454
4.6092715231788075,0.3193587767726362
4.629139072847682,0.3095837114332905
4.649006622516556,0.2998853166431116
4.66887417218543,0.2903135284515563
4.688741721854305,0.2809232282133637
4.708609271523179,0.2717746213920351
4.728476821192054,0.26293352329768327
4.748344370860927,0.25447147832635075
4.768211920529802,0.24646561492692323
4.788079470198675,0.23899811488135836
4.80794701986755,0.23215515950824317
4.827814569536423,0.22602521807909276
4.847682119205298,0.22069657925098382
4.867549668874172,0.21625410827500555
4.887417218543046,0.21277534653411467
4.9072847682119205,0.21032624258032562
4.927152317880794,0.20895697638640473
4.947019867549669,0.20869845009195767
4.966887417218543,0.209560007478944
4.986754966887418,0.21152878188772034
5.006622516556291,0.21457078819812989
5.026490066225166,0.2186335538458248
5.04635761589404,0.2236498290908331
5.066225165562914,0.22954179878771774
5.086092715231788,0.23622524760004315
5.105960264900662,0.24361326586277143
5.125827814569536,0.25161925987607653
5.14569536423841,0.2601591929943201
5.1655629139072845,0.26915310181762137
5.185430463576159,0.27852599864588284
5.205298013245033,0.2882082958244626
5.225165562913908,0.29813588388970735
5.245033112582782,0.3082499767957471
5.264900662251656,0.3184968136413056
5.28476821192053,0.32882728302013053
5.304635761589404,0.3391965161886273
5.324503311258278,0.349563479542734
5.344370860927152,0.35989058524010875
5.364238410596027,0.37014333055381465
5.3841059602649,0.38028997095170947
5.403973509933775,0.39030122826779834
5.4238410596026485,0.4001500330992033
5.443708609271523,0.4098112992858042
5.463576158940397,0.4192617276871548
5.483443708609272,0.42847963623507224
5.503311258278146,0.437444813253274
5.52317880794702,0.44613839119209814
5.543046357615895,0.45454273815785823
5.562913907284768,0.4626413648791703
5.582781456953643,0.47041884501987147
5.602649006622516,0.477860747004159
5.622516556291391,0.4849535757564419
5.642384105960264,0.49168472297229876
5.662251655629139,0.4980424247268593
5.682119205298013,0.5040157253940535
5.701986754966887,0.5095944469956465
5.7218543046357615,0.5147691632254949
5.741721854304636,0.5195311775037585
5.7615894039735105,0.5238725045100403
5.781456953642384,0.5277858547264137
5.801324503311259,0.5312646215913495
5.821192052980132,0.5343028709272337
5.841059602649007,0.536895332357261
5.860927152317881,0.5390373924743337
5.880794701986755,0.5407250895659772
5.900662251655629,0.5419551097361351
5.920529801324503,0.5427247842981332
5.940397350993377,0.5430320883437004
5.960264900662251,0.5428756404216696
5.980132450331126,0.5422547032872403
6.0,0.5411691857095203
6.0198675496688745,0.5396196453516404
6.039735099337749,0.5376072927651703
6.059602649006623,0.5351339965692649
6.079470198675497,0.5322022899157949
6.099337748344371,0.5288153783752361
6.119205298013245,0.5249771494158779
6.139072847682119,0.5206921836910325
6.158940397350993,0.5159657683976108
6.178807947019867,0.5108039130255659
6.198675496688741,0.5052133678829869
6.218543046357616,0.4992016458586968
6.23841059602649,0.49277704797468297
6.258278145695365,0.48594869338863256
6.2781456953642385,0.4787265546345656
6.298013245033113,0.47112149904260836
6.317880794701987,0.4631453374614074
6.337748344370861,0.45481088162508526
6.357615894039735,0.44613201176778833
6.377483443708609,0.4371237564005674
6.397350993377484,0.42780238653681135
6.417218543046357,0.4181855270921723
6.437086092715232,0.4082922887028904
6.456953642384105,0.39814342380873785
6.47682119205298,0.38776151153681393
6.496688741721854,0.3771711766933053
6.516556291390729,0.36639934899914917
6.5364238410596025,0.3554755695400199
6.556291390728477,0.34443235214141377
6.5761589403973515,0.33330560784606883
6.596026490066225,0.32213514056248066
6.6158940397351,0.3109652207771065
6.635761589403973,0.299845241209248
6.655629139072848,0.28883045227140586
6.675496688741721,0.2779827644984248
6.695364238410596,0.26737158744309925
6.715231788079469,0.25707464708773253
6.735099337748344,0.24717868368012436
6.754966887417219,0.2377798772547972
6.774834437086093,0.22898378067907427
6.794701986754967,0.22090446925473645
6.814569536423841,0.21366256412323817
6.8344370860927155,0.20738179351680863
6.854304635761589,0.2021838747352402
6.874172185430464,0.19818177850451632
6.894039735099337,0.19547187782178058
6.913907284768212,0.19412599297321553
6.933774834437086,0.1941847229477273
6.95364238410596,0.1956534643603731
6.973509933774834,0.1985020405796072
6.993377483443709,0.20266801793128064
7.013245033112583,0.20806291010688951
7.033112582781457,0.2145799214769904
7.052980132450331,0.22210181569426007
7.072847682119205,0.2305078277369626
7.0927152317880795,0.23967903695501852
7.112582781456954,0.24950207460446588
7.132450331125828,0.25987134291192104
7.152317880794702,0.27069006387901245
7.172185430463576,0.2818704979468347
7.19205298013245,0.29333362884311626
7.211920529801324,0.3050085430449489
7.231788079470198,0.3168316649128614
7.251655629139073,0.32874595267029544
7.271523178807947,0.34070011868551403
7.291390728476822,0.3526479085990324
7.311258278145695,0.36454745498251057
7.33112582781457,0.3763607096169174
7.3509933774834435,0.38805295181556765
7.370860927152318,0.39959236675417187
7.390728476821192,0.4109496862884803
7.410596026490066,0.4220978844269871
7.430463576158941,0.4330119199587831
7.450331125827814,0.44366851938932367
7.470198675496689,0.45404599411578966
7.490066225165562,0.46412408656701754
7.509933774834438,0.47388384078214835
7.52980132450331,0.4833074935786426
7.549668874172186,0.4923783830552436
7.569536423841059,0.5010808716886282
7.589403973509934,0.5094002817204253
7.6092715231788075,0.517322840901547
7.629139072847682,0.5248356369723693
7.649006622516557,0.5319265795185022
7.66887417218543,0.5385843680606992
7.6887417218543055,0.5447984654201399
7.708609271523178,0.5505590755536948
7.728476821192054,0.5558571251816766
7.748344370860927,0.5606842486385686
7.768211920529802,0.5650327754676908
7.788079470198675,0.5688957203574212
7.80794701986755,0.5722667750816788
7.827814569536423,0.5751403021630155
7.847682119205298,0.5775113300244389
7.8675496688741715,0.5793755494376941
7.887417218543046,0.5807293111123438
7.907284768211921,0.5815696243025379
7.927152317880795,0.5818941563377525
7.9470198675496695,0.5817012330114986
7.966887417218543,0.5809898397872787
7.986754966887418,0.5797596238067533
8.006622516556291,0.5780108967096542
8.026490066225167,0.5757446383008847
8.046357615894038,0.57296250112704
8.066225165562914,0.5696668160538998
8.086092715231787,0.5658605989684056
8.105960264900663,0.5615475587647821
8.125827814569536,0.5567321068161457
8.14569536423841,0.5514193681805379
8.165562913907285,0.5456151948472773
8.185430463576159,0.5393261813960479
8.205298013245034,0.5325596835215786
8.225165562913906,0.525323839973104
8.245033112582782,0.5176275985747465
8.264900662251655,0.5094807471355571
8.28476821192053,0.5008939502322153
8.304635761589404,0.4918787930620543
8.324503311258278,0.48244783382850986
8.344370860927151,0.4726146664488097
8.364238410596027,0.46239399578076074
8.3841059602649,0.45180172807184193
8.403973509933774,0.44085507996572937
8.42384105960265,0.42957271018995213
8.443708609271523,0.4179748790330728
8.463576158940398,0.4060836419472179
8.483443708609272,0.39392308513665747
8.503311258278146,0.3815196128762318
8.52317880794702,0.3689022986040466
8.543046357615895,0.3561033145981258
8.562913907284768,0.34315845828102487
8.582781456953642,0.3301077968117936
8.602649006622515,0.31699645534325127
8.62251655629139,0.303875577510093
8.642384105960264,0.29080348808751433
8.66225165562914,0.2778470849252572
8.682119205298013,0.2650834759817276
8.701986754966887,0.2526018504811261
8.721854304635762,0.24050551984356938
8.741721854304636,0.2289139684683681
8.76158940397351,0.21796459819285363
8.781456953642383,0.2078136197671814
8.801324503311259,0.19863525138126217
8.821192052980132,0.19061810177563762
8.841059602649008,0.1839575260186761
8.86092715231788,0.1788431466144645
8.880794701986755,0.17544192897963173
8.90066225165563,0.17387915472207666
8.920529801324504,0.17422160633299172
8.940397350993377,0.17646790631757137
8.960264900662251,0.18054923871045492
8.980132450331126,0.18634015552248565
9.0,0.19367583083247658
9.019867549668875,0.20237080443796254
9.039735099337747,0.2122351867088418
9.059602649006623,0.2230863266086974
9.079470198675496,0.23475578733816085
9.099337748344372,0.24709252294951828
9.119205298013245,0.25996345290145273
9.139072847682119,0.2732525001578573
9.158940397350994,0.28685887280969924
9.178807947019868,0.30069508917636445
9.198675496688743,0.314685031830907
9.218543046357615,0.3287621727152609
9.23841059602649,0.34286802477972156
9.258278145695364,0.35695082757194924
9.27814569536424,0.37096445034675346
9.298013245033111,0.3848674864318695
9.317880794701987,0.3986225103307335
9.33774834437086,0.41219547054092887
9.357615894039736,0.4255551941572323
9.37748344370861,0.4386729828617133
9.397350993377483,0.45152228331302857
9.417218543046358,0.46407841798723487
9.437086092715232,0.47631836511848374
9.456953642384107,0.4882205785468165
9.47682119205298,0.49976484004780836
9.496688741721854,0.5109321381510412
9.516556291390728,0.5217045686076764
9.536423841059603,0.5320652525940726
9.556291390728477,0.5419982694806885
9.57615894039735,0.5514886015911092
9.596026490066224,0.5605220888537854
9.6158940397351,0.5690853916332477
9.635761589403973,0.5771659603373337
9.655629139072847,0.5847520106469047
9.675496688741722,0.5918325034174332
9.695364238410596,0.5983971284670263
9.715231788079471,0.604436291599705
9.735099337748345,0.6099411043239195
9.754966887417218,0.6149033758166885
9.774834437086092,0.6193156067596501
9.794701986754967,0.6231709847358571
9.814569536423841,0.6264633809290371
9.834437086092716,0.6291873479115977
9.854304635761588,0.6313381183457495
9.874172185430464,0.6329116044550626
9.894039735099337,0.6339043981527204
9.913907284768213,0.6343137717384184
9.933774834437086,0.6341376790994476
9.95364238410596,0.6333747573732885
9.973509933774835,0.6320243290501267
9.993377483443709,0.6300864045143807
10.013245033112582,0.6275616850453776
10.033112582781456,0.6244515663192464
10.052980132450331,0.6207581424781605
10.072847682119205,0.6164842108588552
10.09271523178808,0.6116332775023103
10.112582781456952,0.606209563600612
10.132450331125828,0.6002180130766921
10.152317880794701,0.5936643015405294
10.172185430463577,0.5865548469219258
10.192052980132452,0.5788968221492741
10.211920529801324,0.5706981703280583
10.2317880794702,0.561967622976813
10.251655629139073,0.5527147220072653
10.271523178807948,0.542949846296557
10.29139072847682,0.5326842439017487
10.311258278145695,0.5219300712226301
10.331125827814569,0.5107004407440898
10.350993377483444,0.49900947940508855
10.370860927152318,0.48687240017620775
10.390728476821192,0.4743055901195241
10.410596026490065,0.46132671910455814
10.43046357615894,0.4479548745315291
10.450331125827816,0.43421072896168467
10.470198675496688,0.42011674960168377
10.490066225165563,0.4056974613081366
10.509933774834437,0.39097977840327897
10.529801324503312,0.37599342543956443
