Time (s),Filtered Signal
0.0,0.0060259595768851195
0.033370535714285714,0.08871945754908744
0.06674107142857143,0.12424207548186983
0.10011160714285713,0.07898710880530234
0.13348214285714285,-0.05713339372534879
0.16685267857142858,-0.2672467445681828
0.20022321428571427,-0.5117596845673164
0.23359375,-0.7392414582613082
0.2669642857142857,-0.9006971651638488
0.30033482142857143,-0.9626679491141553
0.33370535714285715,-0.9149399883088185
0.36707589285714287,-0.7707387952682532
0.40044642857142854,-0.5602919425629885
0.43381696428571426,-0.32109215947545783
0.4671875,-0.08881710414248153
0.5005580357142857,0.10853397802464239
0.5339285714285714,0.2530612613723119
0.5672991071428571,0.33736222824810375
0.6006696428571429,0.3642923160909444
0.6340401785714286,0.34614589557103226
0.6674107142857143,0.30211694487754204
0.70078125,0.25313749870163776
0.7341517857142857,0.21496323437782508
0.7675223214285715,0.19240182769064224
0.8008928571428571,0.17812525618406438
0.8342633928571428,0.1576977156288354
0.8676339285714285,0.11903603335541658
0.9010044642857142,0.06152436823781931
0.934375,-0.0005310806346684266
0.9677455357142857,-0.04281594920583643
1.0011160714285714,-0.0425019016799207
1.0344866071428571,0.009322678246584271
1.0678571428571428,0.1008476753316338
1.1012276785714286,0.20226734142075806
1.1345982142857143,0.27713333338809615
1.16796875,0.2970908739544861
1.2013392857142857,0.2531670807341391
1.2347098214285714,0.1586381355303814
1.2680803571428572,0.04265565158065424
1.3014508928571429,-0.061948014351679896
1.3348214285714286,-0.1309634710436126
1.3681919642857143,-0.1560391249711007
1.4015625,-0.14448214041059887
1.4349330357142858,-0.11281502954923048
1.4683035714285715,-0.07787936583480187
1.5016741071428572,-0.04986304161029214
1.535044642857143,-0.030150285377118773
1.5684151785714286,-0.01422281607592499
1.6017857142857141,0.002700437793520938
1.6351562499999999,0.020812467297444626
1.6685267857142856,0.03451769769945569
1.7018973214285713,0.035561925719612655
1.735267857142857,0.018635708301688224
1.7686383928571427,-0.013911270480255764
1.8020089285714285,-0.051231393004462285
1.8353794642857142,-0.07793111140711416
1.86875,-0.0810856310496166
1.9021205357142856,-0.05680537937334382
1.9354910714285714,-0.012896142937354116
1.968861607142857,0.033942966613994395
2.002232142857143,0.06515717641370579
2.0356026785714287,0.06819842534288025
2.0689732142857142,0.041413265438946696
2.10234375,-0.006221008579104173
2.1357142857142857,-0.05998768917552179
2.169084821428571,-0.1061680629681222
2.202455357142857,-0.13722599113571762
2.2358258928571426,-0.15324903486186875
2.2691964285714286,-0.15964441856113457
2.302566964285714,-0.1629601890896021
2.3359375,-0.1672863872337735
2.3693080357142855,-0.1728634513480349
2.4026785714285714,-0.17698685858138138
2.436049107142857,-0.1760553314632626
2.469419642857143,-0.16731741612300902
2.5027901785714284,-0.14947990492877916
2.5361607142857143,-0.12227349820953656
2.56953125,-0.08569949632949003
2.6029017857142858,-0.03971915269875089
2.6362723214285713,0.015290687510652427
2.669642857142857,0.07757551496063794
2.7030133928571427,0.14319458112667566
2.7363839285714286,0.20604320769511128
2.769754464285714,0.2590037056297714
2.803125,0.29592669606206284
2.8364955357142856,0.31364455593870444
2.8698660714285715,0.31310004014748133
2.903236607142857,0.2990196153773696
2.936607142857143,0.27819478056722974
2.9699776785714285,0.2570301418113665
3.0033482142857144,0.23930368928737816
3.03671875,0.22498096199868578
3.070089285714286,0.21052184748273256
3.1034598214285714,0.19057877779199348
3.1368303571428573,0.16047238952651877
3.170200892857143,0.11850539285431237
3.2035714285714283,0.06717654960323313
3.2369419642857142,0.012732484990885551
3.2703124999999997,-0.03686209491237473
3.3036830357142857,-0.07479130058484267
3.337053571428571,-0.09794593746501855
3.370424107142857,-0.10808460873035904
3.4037946428571426,-0.11105369579147707
3.4371651785714286,-0.1143732084149593
3.470535714285714,-0.12430527537927477
3.50390625,-0.1438714996493508
3.5372767857142855,-0.17288317643612472
3.5706473214285714,-0.20996019178028758
3.604017857142857,-0.25524638350270534
3.637388392857143,-0.3118184835732173
3.6707589285714284,-0.38417864673498403
3.7041294642857143,-0.47370730275403033
3.7375,-0.5728952354907698
3.7708705357142858,-0.6615701259928839
3.8042410714285713,-0.7082963362803397
3.837611607142857,-0.6783510730809014
3.8709821428571427,-0.5466756387664149
3.9043526785714286,-0.31119050367074824
3.937723214285714,-0.000365217688954127
3.97109375,0.32988144027051175
4.004464285714286,0.610902692273752
4.0378348214285715,0.7832615446892501
4.0712053571428575,0.8173403475679335
4.1045758928571425,0.7236648040691273
4.1379464285714285,0.5480726050946393
4.171316964285714,0.35366478951959823
4.2046875,0.19750213368504874
4.238058035714285,0.11207714609011105
4.271428571428571,0.09875674759643167
4.304799107142857,0.1343835962074925
4.338169642857142,0.18627681917625666
4.371540178571428,0.22781480100992776
4.404910714285714,0.24765590525614373
4.43828125,0.24951968031878605
4.471651785714285,0.24420089717601112
4.505022321428571,0.23896344901964708
4.538392857142857,0.23030157174523297
4.571763392857143,0.2040698345658522
4.605133928571428,0.14311349486200342
4.638504464285714,0.03851555357332919
4.671875,-0.10167456576395259
4.705245535714286,-0.2515911216684651
4.738616071428571,-0.3762344553836402
4.771986607142857,-0.44632844087905205
4.805357142857143,-0.4522260923264949
4.838727678571429,-0.4094111131554329
4.872098214285714,-0.3518395924219119
4.90546875,-0.3154977456978272
4.938839285714286,-0.32000438874963566
4.972209821428572,-0.3577939112948026
5.005580357142857,-0.3970782026068954
5.038950892857143,-0.39779914810141287
5.072321428571429,-0.3327393597172304
5.105691964285715,-0.2028026147075885
5.1390625,-0.03821871399165194
5.172433035714286,0.115204974246901
5.2058035714285715,0.21767471419199932
5.2391741071428575,0.25358245352173436
5.2725446428571425,0.2369767291660181
5.3059151785714285,0.20197606681436497
5.339285714285714,0.18374329441567405
5.3726562499999995,0.20034707429117468
5.406026785714285,0.24491960102184965
5.439397321428571,0.2917046098107752
5.472767857142857,0.3121053559846408
5.506138392857142,0.29162009465086064
5.539508928571428,0.23823556535612767
5.572879464285714,0.1775370451704854
5.60625,0.13704222654556322
5.639620535714285,0.12830704822324282
5.672991071428571,0.13698057954233672
5.706361607142857,0.12721701149483625
5.739732142857143,0.05947840163564636
5.773102678571428,-0.0865118809902782
5.806473214285714,-0.2953189549916032
5.83984375,-0.5151384179246763
5.873214285714286,-0.6749865694515009
5.906584821428571,-0.713073049659696
5.939955357142857,-0.6037705857774445
5.973325892857143,-0.3705918172349924
6.006696428571429,-0.07876090296497404
6.040066964285714,0.18957263678525518
6.0734375,0.36638607789221184
6.106808035714286,0.42141239717254747
6.140178571428572,0.3686874234332115
6.173549107142857,0.2547507146439617
6.206919642857143,0.13561281778684223
6.240290178571429,0.05387857677481595
6.273660714285715,0.025886773906804782
6.30703125,0.042727905559471625
6.340401785714286,0.08195290899777025
6.3737723214285715,0.12225248045552908
6.407142857142857,0.15327842998611418
6.4405133928571425,0.17658477858198882
6.4738839285714285,0.19899171949778835
6.507254464285714,0.2236360130391449
6.5406249999999995,0.24466630908904735
6.573995535714285,0.24890051881186057
6.607366071428571,0.22343271380595806
6.640736607142857,0.16458406824959465
6.674107142857142,0.0826585680277573
6.707477678571428,-0.0008638524251384849
6.740848214285714,-0.06298794462621767
6.77421875,-0.09118096910860578
6.807589285714285,-0.09151461050412663
6.840959821428571,-0.08824547796096041
6.874330357142857,-0.11397221216569846
6.907700892857143,-0.19408605543452892
6.941071428571428,-0.33241510475279
6.974441964285714,-0.5051138661745231
7.0078125,-0.6665853422151189
7.041183035714286,-0.7657883864183286
7.074553571428571,-0.7661906043798584
7.107924107142857,-0.6605073530858286
7.141294642857143,-0.47352846805979765
7.174665178571429,-0.25187470240698906
7.208035714285714,-0.04565461583486557
7.24140625,0.10948558485506635
7.274776785714286,0.20227925997396368
7.308147321428572,0.24461444632721582
7.341517857142857,0.261579703435754
7.374888392857143,0.2787139612843724
7.408258928571429,0.3123780174675759
7.441629464285715,0.3662488145087724
7.475,0.4332624720387581
7.508370535714286,0.5000938268871852
7.5417410714285715,0.551410856539872
7.575111607142857,0.5729664772673749
7.6084821428571425,0.5543346373931619
7.6418526785714285,0.49225463587900964
7.675223214285714,0.3939840465994059
7.7085937499999995,0.27819456726320846
7.741964285714285,0.17073085289039186
7.775334821428571,0.09490146790905116
7.808705357142857,0.05978918148814506
7.842075892857142,0.05276803794611952
7.875446428571428,0.04168141997795267
7.908816964285714,-0.012299026534587372
7.9421875,-0.13600889131491858
7.975558035714285,-0.32857557358147127
8.008928571428571,-0.5567569417859054
8.042299107142856,-0.7643689742322426
8.075669642857143,-0.892064312963459
8.109040178571428,-0.8988975937271181
8.142410714285715,-0.7766312372820074
8.17578125,-0.551494856927921
8.209151785714285,-0.2738646104811094
8.242522321428572,-0.0011543774511799268
8.275892857142857,0.21893670819284972
8.309263392857142,0.3591306439000162
8.342633928571429,0.41503879009910605
8.376004464285714,0.4007394232869988
8.409375,0.3407933849353125
8.442745535714286,0.26202929042422013
8.47611607142857,0.18718264939779208
8.509486607142858,0.1311154146530494
8.542857142857143,0.09958077493305845
8.576227678571428,0.09027420015660936
8.609598214285715,0.09573127719329086
8.64296875,0.10718195373610415
8.676339285714285,0.1179637612699483
8.709709821428572,0.12507634804548723
8.743080357142857,0.12826302630127961
8.776450892857143,0.12736757386417635
8.809821428571428,0.11984369534570952
8.843191964285714,0.10037454242567585
8.8765625,0.06334887688415924
8.909933035714285,0.007041781700650408
8.94330357142857,-0.06307977805701669
8.976674107142857,-0.13445585004574806
9.010044642857142,-0.19176223321651004
9.04341517857143,-0.22379101022094008
9.076785714285714,-0.22935056751410102
9.11015625,-0.21865843804914173
9.143526785714286,-0.2087846138065834
9.176897321428571,-0.21487182256671483
9.210267857142856,-0.24139058110574294
9.243638392857143,-0.27808659546997827
9.277008928571428,-0.30316666535795017
9.310379464285715,-0.2926600428905263
9.34375,-0.23166887330621005
9.377120535714285,-0.12210694428609395
9.410491071428572,0.01685991849946954
9.443861607142857,0.15593192363246441
9.477232142857142,0.2669852517727612
9.510602678571429,0.33332413680015605
9.543973214285714,0.3543856002220027
9.57734375,0.34331175757693927
9.610714285714286,0.31926950944159993
9.64408482142857,0.29864043215015856
9.677455357142858,0.2891905656691235
9.710825892857143,0.2892774616595005
9.744196428571428,0.29134180298579204
9.777566964285715,0.2869466400098615
9.8109375,0.2704459238808313
9.844308035714285,0.23983525760018956
9.877678571428572,0.19535992424499468
9.911049107142857,0.1377199781218248
9.944419642857143,0.06753041445302929
9.977790178571428,-0.013622181942482813
10.011160714285714,-0.10160828512240935
10.04453125,-0.1892684459730813
10.077901785714285,-0.2679015040026459
10.11127232142857,-0.3302260323843935
10.144642857142857,-0.37320784281608466
10.178013392857142,-0.3990490912587146
10.21138392857143,-0.41358030791447437
10.244754464285714,-0.42270488647423016
10.278125,-0.4286377579416745
10.311495535714286,-0.4279032411842315
10.344866071428571,-0.41229724629374864
10.378236607142856,-0.3726036729470149
10.411607142857143,-0.30342271090311873
10.444977678571428,-0.2067358695698466
10.478348214285715,-0.09227199126104006
10.51171875,0.025724898289901266
10.545089285714285,0.13380672480820544
10.578459821428572,0.22396103205923906
10.611830357142857,0.29509784870443134
10.645200892857142,0.35065321132414845
10.678571428571429,0.39385899562486104
10.711941964285714,0.42367839941874824
10.745312499999999,0.4340950424388308
10.778683035714286,0.41746906809767553
10.81205357142857,0.3701468903787837
10.845424107142858,0.29693656118465006
10.878794642857143,0.21145534484423226
10.912165178571428,0.13160295255573434
10.945535714285715,0.07225219428392748
10.97890625,0.03897879925639584
11.012276785714285,0.02618374708393064
11.045647321428572,0.02054080889756341
11.079017857142857,0.007788870505879947
11.112388392857143,-0.020774922552193834
11.145758928571428,-0.06524632679106533
11.179129464285714,-0.1184487237203113
11.2125,-0.17013662641932173
11.245870535714285,-0.21133271463605013
11.27924107142857,-0.2366485505108148
11.312611607142857,-0.24420294551259245
11.345982142857142,-0.2343712854761678
11.37935267857143,-0.20898826478571608
11.412723214285714,-0.17166338363734404
11.44609375,-0.12843143753525404
11.479464285714286,-0.08725859739721666
11.512834821428571,-0.05559670996488259
11.546205357142856,-0.03680224291772896
11.579575892857143,-0.027611979158414977
11.612946428571428,-0.018864113463374806
11.646316964285715,-1.8118514769526923e-05
11.6796875,0.03438492188732693
11.713058035714285,0.07988536044364845
11.746428571428572,0.12223215104223199
11.779799107142857,0.1434756749757133
11.813169642857142,0.1316441517822304
11.846540178571429,0.08904826224018686
11.879910714285714,0.03415692798916374
11.913281249999999,-0.00518170141055115
11.946651785714286,-0.004841695830809065
11.98002232142857,0.042364985601349124
12.013392857142858,0.12043107085837453
12.046763392857143,0.19495106341559712
12.080133928571428,0.22757616579023776
12.113504464285715,0.1935856968151802
12.146875,0.09406885462793718
12.180245535714285,-0.04339073181378007
12.213616071428572,-0.17604008786693962
12.246986607142857,-0.2639143176865348
12.280357142857143,-0.28592065911310777
12.313727678571428,-0.24673177432222398
12.347098214285714,-0.17193066081853445
12.38046875,-0.09461445441138536
12.413839285714285,-0.04048417446360464
12.44720982142857,-0.01853836349137519
12.480580357142857,-0.02106387706781412
12.513950892857142,-0.03163876096412127
12.54732142857143,-0.03594409384834348
12.580691964285714,-0.029250961410756598
12.6140625,-0.01681437712725277
12.647433035714286,-0.007658308216601729
12.680803571428571,-0.00601610287373565
12.714174107142856,-0.005949670480663968
12.747544642857143,0.0072336270888917024
12.780915178571428,0.04911395224785717
12.814285714285713,0.12599407490613274
12.84765625,0.22812662720063878
12.881026785714285,0.3304660307544644
12.914397321428572,0.40128271375666497
12.947767857142857,0.41495123844145393
12.981138392857142,0.36301044584330433
13.014508928571429,0.2582517659548837
13.047879464285714,0.12976142239523406
13.081249999999999,0.011002437436128033
13.114620535714286,-0.07376835891518026
13.14799107142857,-0.11867564116822087
13.181361607142858,-0.13692830892337685
13.214732142857143,-0.15284027149221455
13.248102678571428,-0.18887790844847407
13.281473214285715,-0.2536441972706533
13.31484375,-0.3362534958455279
13.348214285714285,-0.40971933859918896
13.381584821428572,-0.44205980645735304
13.414955357142857,-0.41048988145989346
13.448325892857143,-0.312672247504288
13.481696428571428,-0.17008683337433453
13.515066964285714,-0.0217207646827078
13.5484375,0.08977800836909318
13.581808035714285,0.13418213093550574
13.61517857142857,0.10560555398783159
13.648549107142857,0.02531598328595794
13.681919642857142,-0.06600491500752646
13.71529017857143,-0.12373429329073758
13.748660714285714,-0.11637466931287359
13.78203125,-0.03720802495603908
13.815401785714286,0.09426434338319276
13.848772321428571,0.24139370716348013
13.882142857142856,0.36551251783889327
13.915513392857143,0.44008130318151945
13.948883928571428,0.45780894724642796
13.982254464285713,0.42869431248647083
14.015625,0.37159574720367544
14.048995535714285,0.3046140883083157
14.082366071428572,0.2390060069427868
14.115736607142857,0.17834749341029812
14.149107142857142,0.12141767328680986
14.182477678571429,0.06575262847456763
14.215848214285714,0.009581769912570207
14.249218749999999,-0.048108517708338815
14.282589285714286,-0.10802081523492528
14.31595982142857,-0.1700623454837171
14.349330357142858,-0.23181060024395317
14.382700892857143,-0.2873188084602967
14.416071428571428,-0.32802129200712715
14.449441964285715,-0.34627973519407484
14.4828125,-0.34008762174604196
14.516183035714285,-0.31608994764905507
14.549553571428572,-0.2884779931808233
14.582924107142857,-0.273426652066169
14.616294642857143,-0.2813604870621272
14.649665178571428,-0.310896312768623
14.683035714285714,-0.3478279675234972
14.71640625,-0.37015188115626785
14.749776785714285,-0.35708837789782333
14.78314732142857,-0.2979389508875129
14.816517857142857,-0.19658200761212732
14.849888392857142,-0.06951380594212273
14.88325892857143,0.06149196182078294
14.916629464285714,0.17845751128307474
14.95,0.27369267096613015
14.983370535714286,0.3508876177017482
15.016741071428571,0.42074891103825085
15.050111607142856,0.4936688044961293
15.083482142857143,0.5730625257546236
15.116852678571428,0.6524162803041427
15.150223214285713,0.7172679351825001
15.18359375,0.7511806977098082
15.216964285714285,0.7430623519611322
15.250334821428572,0.6924587021736708
15.283705357142857,0.6100264670398073
15.317075892857142,0.5123233599205178
15.350446428571429,0.41286242185493316
15.383816964285714,0.3138607491134277
15.417187499999999,0.20369805074104488
15.450558035714286,0.062813827962197
15.48392857142857,-0.12377376620908187
15.517299107142858,-0.35361693502400465
15.550669642857143,-0.6014453242683613
15.584040178571428,-0.825974779100912
15.617410714285715,-0.9871600361381959
15.65078125,-1.0656502824478293
15.684151785714285,-1.073671081958332
15.717522321428572,-1.0499543468106025
15.750892857142857,-1.039348670958013
15.784263392857143,-1.066282366137075
15.817633928571428,-1.115644354567644
15.851004464285714,-1.1321973363589286
15.884375,-1.0411735557289428
15.917745535714285,-0.7822576850601652
15.95111607142857,-0.34195267836064314
15.984486607142857,0.2308949579714073
16.017857142857142,0.8345323942795486
16.05122767857143,1.3457387133153436
16.084598214285712,1.6605900622890692
16.11796875,1.7281265694663586
16.151339285714286,1.5641689764128663
16.18470982142857,1.2414001495371958
16.218080357142856,0.8614493677648081
16.251450892857143,0.5208945389157477
16.28482142857143,0.28376784348352324
16.318191964285713,0.16890748865220345
16.3515625,0.15383121428312346
16.384933035714287,0.19071399560279587
16.41830357142857,0.22673680665730409
16.451674107142857,0.221227109122626
16.485044642857144,0.154851958602232
16.518415178571427,0.03000742932227366
16.551785714285714,-0.13521503238141264
16.58515625,-0.3155791198726452
16.618526785714284,-0.48619437109355884
16.65189732142857,-0.6269245038159252
16.685267857142858,-0.7235389632182441
16.71863839285714,-0.7668287584859108
16.752008928571428,-0.75148518982427
16.785379464285715,-0.6762335376296529
16.81875,-0.5456606524900809
16.852120535714285,-0.37276863069013916
16.88549107142857,-0.1802113279205192
16.91886160714286,0.001840400688336709
16.95223214285714,0.14191993698663466
16.98560267857143,0.21611964771749523
17.018973214285715,0.21628527156998248
17.05234375,0.15386851199508758
17.085714285714285,0.05721350393182796
17.119084821428572,-0.037247951387506834
17.152455357142856,-0.09675472674477137
17.185825892857142,-0.10245583307559088
17.21919642857143,-0.05430758110192291
17.252566964285712,0.03087593956636639
17.2859375,0.12687027268539203
17.319308035714286,0.20761441955002735
17.35267857142857,0.25520035775150446
17.386049107142856,0.2638190331808418
17.419419642857143,0.23917194531102948
17.45279017857143,0.19451404772457057
17.486160714285713,0.1452634291276935
17.51953125,0.10404499284699598
17.552901785714287,0.07751569863673148
17.58627232142857,0.06566799190227783
17.619642857142857,0.06361070828066052
