Time (s),Filtered Signal
0.0,-0.01323254319714094
0.0334075723830735,0.37732636907977735
0.066815144766147,0.6995079178353658
0.1002227171492205,0.900966147915757
0.133630289532294,0.9568862525954627
0.1670378619153675,0.8740415630391849
0.200445434298441,0.6865002354801596
0.23385300668151449,0.44461656088017515
0.267260579064588,0.20082047615038634
0.3006681514476615,-0.003512673593238701
0.334075723830735,-0.14635173478794833
0.3674832962138085,-0.22636879384079808
0.400890868596882,-0.2576727184187983
0.4342984409799555,-0.26060834636946645
0.46770601336302897,-0.2527222419219863
0.5011135857461025,-0.24362194695949926
0.534521158129176,-0.2352582102242845
0.5679287305122495,-0.22619076739480448
0.601336302895323,-0.21636835905637408
0.6347438752783965,-0.20913360372811834
0.66815144766147,-0.20939837770912337
0.7015590200445435,-0.21965463411634248
0.734966592427617,-0.23683298063103217
0.7683741648106905,-0.2522308156550759
0.801781737193764,-0.25460920060275066
0.8351893095768375,-0.23470597045803418
0.868596881959911,-0.18893122733315465
0.9020044543429845,-0.12080110914859356
0.9354120267260579,-0.03983340934696417
0.9688195991091315,0.04156167738340064
1.002227171492205,0.11226736337999979
1.0356347438752784,0.1664950787373534
1.069042316258352,0.20617016216633918
1.1024498886414256,0.24030802690911768
1.135857461024499,0.28096732087038445
1.1692650334075725,0.3369845286247683
1.202672605790646,0.40818508583246255
1.2360801781737194,0.48311888677876647
1.269487750556793,0.5420554490728267
1.3028953229398665,0.5644294290043951
1.33630289532294,0.5374607770835516
1.3697104677060135,0.46177006905378043
1.403118040089087,0.3511642877789014
1.4365256124721606,0.22672284415588984
1.469933184855234,0.10818383902382621
1.5033407572383075,0.0067862493801892606
1.536748329621381,-0.07735580370713958
1.5701559020044544,-0.1527509032772332
1.603563474387528,-0.2306834107759764
1.6369710467706016,-0.3189202463971362
1.670378619153675,-0.4174810587162785
1.7037861915367485,-0.5176609730505783
1.737193763919822,-0.6041028245648168
1.7706013363028954,-0.658871602293878
1.804008908685969,-0.6662997331005974
1.8374164810690425,-0.6175309745297207
1.8708240534521159,-0.5138050416718638
1.9042316258351895,-0.3675170433795517
1.937639198218263,-0.2002701877891092
1.9710467706013366,-0.03789532231904252
2.00445434298441,0.09630839097471029
2.0378619153674835,0.18771308498840214
2.071269487750557,0.23337653556832236
2.1046770601336307,0.24074491898569755
2.138084632516704,0.2229870986161283
2.1714922048997773,0.1935288359307726
2.204899777282851,0.1624235810351973
2.2383073496659245,0.13572884364195248
2.271714922048998,0.11710982694397658
2.3051224944320716,0.10973414767050796
2.338530066815145,0.1167490581879336
2.3719376391982183,0.13988695923376648
2.405345211581292,0.17711558482675932
2.4387527839643655,0.22092674415218433
2.472160356347439,0.2585645560267681
2.5055679287305126,0.2745226029017546
2.538975501113586,0.2545902937294667
2.5723830734966593,0.19013833545564712
2.605790645879733,0.0813825431069068
2.6391982182628064,-0.06116345143605237
2.67260579064588,-0.2173336891874645
2.7060133630289536,-0.36005385672027956
2.739420935412027,-0.46004856006212913
2.7728285077951007,-0.49211651728533096
2.806236080178174,-0.44198344198326817
2.8396436525612474,-0.31192772804922236
2.873051224944321,-0.12283594162229584
2.9064587973273945,0.08926537373400327
2.939866369710468,0.28248110060560777
2.9732739420935417,0.4218198931564652
3.006681514476615,0.4908657024706402
3.0400890868596884,0.497209461387157
3.073496659242762,0.4685394566802868
3.1069042316258355,0.4402918504188043
3.140311804008909,0.43981184009659174
3.1737193763919826,0.47389133735034195
3.207126948775056,0.5252003966397558
3.2405345211581293,0.5591172698491166
3.273942093541203,0.5377663777615024
3.3073496659242765,0.4349690558300299
3.34075723830735,0.24571652743787617
3.3741648106904236,-0.01338030002661781
3.407572383073497,-0.3118615046443297
3.4409799554565703,-0.6168453953955833
3.474387527839644,-0.9021640600847347
3.5077951002227175,-1.1509366743749452
3.541202672605791,-1.3512617720590439
3.5746102449888646,-1.4889114243929251
3.608017817371938,-1.542977541825054
3.6414253897550113,-1.4888934031951622
3.674832962138085,-1.308674451162812
3.7082405345211584,-1.0031825674627335
3.7416481069042318,-0.5989837163655755
3.7750556792873056,-0.14473373938893214
3.808463251670379,0.3021406619205501
3.8418708240534527,0.6919931709459018
3.875278396436526,0.9944424792942506
3.9086859688195994,1.1998197114522882
3.942093541202673,1.31187562362321
3.9755011135857465,1.3380446454191497
4.00890868596882,1.2840750642393248
4.042316258351893,1.155843636785882
4.075723830734967,0.9656998403550079
4.109131403118041,0.7374907969319522
4.142538975501114,0.5053932655953562
4.1759465478841875,0.3057949368213336
4.209354120267261,0.16583016321590313
4.242761692650334,0.09415274670038168
4.276169265033408,0.07831710118407241
4.309576837416482,0.08985971270302283
4.342984409799555,0.09479156569616638
4.3763919821826285,0.0652769215351324
4.409799554565702,-0.011725786997235482
4.443207126948775,-0.13157391403523627
4.476614699331849,-0.2752942820210035
4.510022271714923,-0.4174994202441337
4.543429844097996,-0.5356627361567823
4.5768374164810695,-0.6171671614115769
4.610244988864143,-0.6615474473291106
4.643652561247216,-0.6774594498291888
4.67706013363029,-0.6762293253281444
4.710467706013364,-0.6652276004307869
4.743875278396437,-0.6441026396192807
4.77728285077951,-0.6053211252537356
4.810690423162584,-0.5384344779315986
4.844097995545657,-0.43601024982840575
4.877505567928731,-0.29871854355763977
4.910913140311805,-0.13753961414635285
4.944320712694878,0.027907815850626048
4.977728285077951,0.17462927801645492
5.011135857461025,0.2834903109227715
5.044543429844098,0.34577460292813994
5.077951002227172,0.36622469792251855
5.111358574610246,0.3608328468573302
5.144766146993319,0.3498954379434403
5.178173719376392,0.34923615741953123
5.211581291759466,0.36365979001870313
5.244988864142539,0.38576649463495327
5.278396436525613,0.40059778216217073
5.311804008908687,0.393645372954386
5.34521158129176,0.35816072434200696
5.378619153674833,0.29826549235573757
5.412026726057907,0.22665501627557755
5.445434298440981,0.1584021011999398
5.478841870824054,0.10411729981208279
5.512249443207128,0.06575332771077248
5.545657015590201,0.036826813849784916
5.579064587973274,0.0066427664660192644
5.612472160356348,-0.0337018838044169
5.645879732739422,-0.08644715147068688
5.679287305122495,-0.1457095085480552
5.712694877505569,-0.2000812591920128
5.746102449888642,-0.23802217056176864
5.779510022271715,-0.2534310193226321
5.812917594654789,-0.24867109403304383
5.846325167037863,-0.23353192868094902
5.879732739420936,-0.22055632087844879
5.91314031180401,-0.21889443086450783
5.946547884187083,-0.22955760265064595
5.979955456570156,-0.24433625090221625
6.01336302895323,-0.24899560193532153
6.046770601336304,-0.22938232600508443
6.080178173719377,-0.17767048186713444
6.1135857461024505,-0.09588216844011374
6.146993318485524,0.00483406912341807
6.180400890868597,0.10857866005346795
6.213808463251671,0.20044296513828783
6.247216035634745,0.27094016149981553
6.280623608017818,0.31742529506712697
6.3140311804008915,0.3424299658719042
6.347438752783965,0.3501976857613383
6.380846325167038,0.34326273924959216
6.414253897550112,0.32064253994646175
6.447661469933186,0.27838896883188075
6.481069042316259,0.21221485717785202
6.5144766146993325,0.12101488216012149
6.547884187082406,0.009657823739522488
6.581291759465479,-0.11033858353732114
6.614699331848553,-0.22276363157881382
6.648106904231627,-0.31065796532455214
6.6815144766147,-0.3607140506284956
6.7149220489977735,-0.3664322351715458
6.748329621380847,-0.3290004799023113
6.78173719376392,-0.2560496421079696
6.815144766146994,-0.1594751278188911
6.848552338530068,-0.05372757885188934
6.881959910913141,0.04488360357567867
6.915367483296214,0.1187363911613434
6.948775055679288,0.15098970384969393
6.982182628062361,0.13022996634932127
7.015590200445435,0.05654569441633113
7.048997772828509,-0.054286267894426685
7.082405345211582,-0.17222244591581495
7.115812917594655,-0.2614176881116569
7.149220489977729,-0.2931755183023222
7.182628062360802,-0.2575617214894661
7.216035634743876,-0.1676274602216267
7.24944320712695,-0.053517898702394394
7.282850779510023,0.05109452363230031
7.316258351893096,0.12376024645098022
7.34966592427617,0.16208081351117873
7.383073496659243,0.1826500239814302
7.416481069042317,0.21120545734538604
7.449888641425391,0.26923068844096676
7.4832962138084635,0.3633123774610379
7.516703786191537,0.4813235768807974
7.550111358574611,0.5957252384280547
7.583518930957685,0.6713853595414085
7.616926503340758,0.6747094434227803
7.650334075723832,0.5820801216303192
7.683741648106905,0.3869327513229423
7.717149220489978,0.10490032015576464
7.750556792873052,-0.22456808863099073
7.783964365256126,-0.5425314848006239
7.817371937639199,-0.7824052771673576
7.850779510022273,-0.8880494419373466
7.884187082405346,-0.8330367598985482
7.917594654788419,-0.633485747203794
7.951002227171493,-0.34751968157769997
7.984409799554567,-0.05894925735106665
8.01781737193764,0.15034811363238074
8.051224944320714,0.22895835539184647
8.084632516703786,0.17343121515522877
8.118040089086861,0.027051869215739245
8.151447661469934,-0.13957939534651542
8.184855233853007,-0.25754321115774464
8.218262806236082,-0.28570958360011683
8.251670378619155,-0.2235238275047644
8.285077951002227,-0.10647542000885511
8.318485523385302,0.012265415672654411
8.351893095768375,0.08535602079004562
8.385300668151448,0.09012275208701939
8.418708240534523,0.03576853505698088
8.452115812917596,-0.042785261677159715
8.485523385300668,-0.10078216345048126
8.518930957683743,-0.10217396615031271
8.552338530066816,-0.033445122890565504
8.585746102449889,0.09205603482836303
8.619153674832964,0.23991825220210802
8.652561247216036,0.36742540835480453
8.68596881959911,0.4380390668986481
8.719376391982184,0.43255595582661077
8.752783964365257,0.35383221306783685
8.78619153674833,0.22459247097722346
8.819599109131405,0.08002734701852421
8.853006681514477,-0.04206181907157959
8.88641425389755,-0.11090611577646443
8.919821826280625,-0.11026451564413184
8.953229398663698,-0.042575432602916116
8.98663697104677,0.07099128465713979
9.020044543429846,0.19502976022012977
9.053452115812918,0.2887668690567714
9.086859688195991,0.31788736204945933
9.120267260579066,0.26626036300297107
9.153674832962139,0.1433276322751711
9.187082405345212,-0.0167292290247639
9.220489977728286,-0.1654393867425016
9.25389755011136,-0.2574680542009608
9.287305122494432,-0.26856758299363187
9.320712694877507,-0.20622597068513543
9.35412026726058,-0.10750946092655218
9.387527839643653,-0.023998471038899086
9.420935412026727,0.0002466159169782472
9.4543429844098,-0.05189173804614512
9.487750556792873,-0.16264203444663222
9.521158129175948,-0.28681956126226543
9.55456570155902,-0.37175737385734786
9.587973273942094,-0.3809932820294142
9.621380846325168,-0.31110288567967165
9.654788418708241,-0.19390793543478643
9.688195991091314,-0.08269782682987502
9.721603563474389,-0.028291484965839574
9.755011135857462,-0.05552076741355737
9.788418708240535,-0.1507969368855859
9.82182628062361,-0.2666398320205194
9.855233853006682,-0.3414782578097355
9.888641425389755,-0.3261308127790596
9.92204899777283,-0.20535346179427863
9.955456570155903,-0.005064045233506266
9.988864142538976,0.21777499119417795
10.02227171492205,0.39806698786768485
10.055679287305123,0.4883288577533249
10.089086859688196,0.47635222094848734
10.12249443207127,0.38763137837585115
10.155902004454344,0.27221040043975786
10.189309576837417,0.1823886251859995
10.222717149220491,0.15144213291584294
10.256124721603564,0.18249603126752367
10.289532293986637,0.2515062341577293
10.322939866369712,0.32159407410918045
10.356347438752785,0.3610193046201637
10.389755011135858,0.35613593972002167
10.423162583518932,0.3138908643962322
10.456570155902005,0.25393489913461786
10.489977728285078,0.19543987854461503
10.523385300668153,0.14591018365352437
10.556792873051226,0.09774831115554512
10.590200445434299,0.03398701824572163
10.623608017817373,-0.06028704769749453
10.657015590200446,-0.18719200535668726
10.69042316258352,-0.33182466674791
10.723830734966594,-0.46680683821267405
10.757238307349667,-0.5632346880788588
10.790645879732741,-0.602426876456902
10.824053452115814,-0.5826470511618486
10.857461024498887,-0.5177971328836616
10.890868596881962,-0.42939055564325995
10.924276169265035,-0.3365807300173761
10.957683741648108,-0.24972691777921854
10.991091314031182,-0.17051661258549414
11.024498886414255,-0.09745091195925093
11.057906458797328,-0.032077372020460224
11.091314031180403,0.01908056270607691
11.124721603563476,0.04894673623249865
11.158129175946549,0.05801582215312683
11.191536748329623,0.06013795405593561
11.224944320712696,0.08031766710228241
11.25835189309577,0.14331208342457336
11.291759465478844,0.25792789752094675
11.325167037861917,0.4059521835449746
11.35857461024499,0.5436703864326065
11.391982182628064,0.6177865199576515
11.425389755011137,0.5893759213634804
11.45879732739421,0.45405048328442255
11.492204899777285,0.24737406408637833
11.525612472160358,0.0316973467115621
11.55902004454343,-0.1298608390344149
11.592427616926505,-0.19993466199416787
11.625835189309578,-0.18147559753003603
11.659242761692651,-0.11406950416134778
11.692650334075726,-0.05454777982456287
11.726057906458799,-0.051310149544152854
11.759465478841872,-0.12366626509720256
11.792873051224946,-0.25425088100772203
11.82628062360802,-0.3964263024657711
11.859688195991092,-0.49261929427238027
11.893095768374167,-0.49600918256691556
11.92650334075724,-0.38761397433421013
11.959910913140313,-0.18308467234798476
11.993318485523387,0.0726454781281154
12.02672605790646,0.3204577777610715
12.060133630289533,0.5060747916012897
12.093541202672608,0.5958989526849152
12.12694877505568,0.5841137778341354
12.160356347438753,0.48944026519695794
12.193763919821828,0.3444171353496706
12.227171492204901,0.182832585373443
12.260579064587974,0.03067949471041661
12.293986636971049,-0.09682228406169184
12.327394209354122,-0.1931565254053344
12.360801781737194,-0.25666573571252954
12.39420935412027,-0.2880989316889326
12.427616926503342,-0.2907209021896051
12.461024498886415,-0.2717688848620267
12.49443207126949,-0.24282428015041205
12.527839643652563,-0.21729676856143695
12.561247216035635,-0.20523340742467858
12.59465478841871,-0.20782560972258574
12.628062360801783,-0.21496996028285667
12.661469933184856,-0.20830215560731952
12.69487750556793,-0.1695038462333277
12.728285077951004,-0.09059292453201516
12.761692650334076,0.018952567862543103
12.795100222717151,0.1327081565177133
12.828507795100224,0.21662664976995458
12.861915367483297,0.24383093227203678
12.895322939866372,0.20811518910197194
12.928730512249444,0.1291052160094362
12.962138084632517,0.04547724053408261
12.995545657015592,-0.0015470006384288365
13.028953229398665,0.013083331618568186
13.062360801781738,0.08659217747475721
13.095768374164813,0.18990901258290735
13.129175946547885,0.28181077137238975
13.162583518930958,0.32839245618322044
13.195991091314033,0.3177232269710196
13.229398663697106,0.2622972400050998
13.262806236080179,0.18877156255832284
13.296213808463254,0.12152819023872798
13.329621380846326,0.06970402450116756
13.3630289532294,0.02476433677678507
13.396436525612474,-0.030867299871810392
13.429844097995547,-0.11012995866577287
13.46325167037862,-0.21120052597074843
13.496659242761694,-0.31683362597971587
13.530066815144767,-0.4029904979012214
13.56347438752784,-0.4509663495886463
13.596881959910915,-0.45547542102965916
13.630289532293988,-0.4241461191439644
13.66369710467706,-0.3695613697426133
13.697104677060135,-0.2997298043885168
13.730512249443208,-0.21374045515838838
13.763919821826281,-0.10581510312120931
13.797327394209356,0.024781620752441908
13.830734966592429,0.16488822794558258
13.864142538975502,0.2866875679873033
13.897550111358576,0.35757358560731545
13.93095768374165,0.35649454663452634
13.964365256124722,0.28777208585592556
13.997772828507797,0.18357194759369017
14.03118040089087,0.09178564166452667
14.064587973273943,0.05418730251802115
14.097995545657017,0.0857429011333955
14.13140311804009,0.16621547302036888
14.164810690423163,0.24925970638774975
14.198218262806238,0.2851120204650805
14.23162583518931,0.24566895988313464
14.265033407572384,0.13920455981702043
14.298440979955458,0.007108858357663739
14.331848552338531,-0.09583058622876733
14.365256124721604,-0.12773981117721575
14.398663697104679,-0.0795159628751765
14.432071269487752,0.021279682986286973
14.465478841870825,0.12380362052448053
14.4988864142539,0.17744645781936816
14.532293986636972,0.15391116183242487
14.565701559020045,0.0577608103229314
14.59910913140312,-0.07847781952017814
14.632516703786193,-0.21106101562184107
14.665924276169266,-0.3048465385122054
14.69933184855234,-0.3467454458634284
14.732739420935413,-0.3471648614531896
14.766146993318486,-0.3299709922612817
14.79955456570156,-0.3170238402351515
14.832962138084634,-0.3156101002758946
14.866369710467707,-0.3151339250233125
14.899777282850781,-0.2943128306855568
14.933184855233854,-0.23454605467773385
14.966592427616927,-0.13197473426328019
15.0,-0.0016337264369877195
