Time (s),Filtered Signal
0.0,0.05828809647085835
0.03337004405286344,0.1419910895661782
0.06674008810572687,0.2952121556254905
0.10011013215859031,0.5622365137319392
0.13348017621145375,0.9415226553179669
0.16685022026431717,1.382434029509893
0.20022026431718062,1.7987432640411674
0.23359030837004408,2.09458687070836
0.2669603524229075,2.193927924584412
0.3003303964757709,2.0632472667291593
0.33370044052863435,1.7200259885393319
0.3670704845814978,1.2253895674963777
0.40044052863436125,0.6652170812828235
0.43381057268722467,0.12732545912371387
0.46718061674008815,-0.31797613010806913
0.5005506607929515,-0.6295080656327928
0.533920704845815,-0.7979081655056274
0.5672907488986785,-0.8407164388639002
0.6006607929515418,-0.7925431779675232
0.6340308370044053,-0.6936894309338492
0.6674008810572687,-0.5806901681985847
0.7007709251101322,-0.48138052326095526
0.7341409691629956,-0.4150214576529888
0.767511013215859,-0.3953839790745202
0.8008810572687225,-0.43291189887398085
0.834251101321586,-0.5325669533922331
0.8676211453744493,-0.6869886796094781
0.9009911894273128,-0.8687613306580941
0.9343612334801763,-1.0282594585400717
0.9677312775330397,-1.1024371593624296
1.001101321585903,-1.0347485180284404
1.0344713656387665,-0.7995581313295256
1.06784140969163,-0.4198991440205389
1.1012114537444935,0.03164167270867511
1.134581497797357,0.4526120619058154
1.1679515418502202,0.7454548738627947
1.2013215859030837,0.8542894568371117
1.2346916299559472,0.7882998871587641
1.2680616740088106,0.620459732238981
1.3014317180616741,0.4597466518868155
1.3348017621145374,0.4063166564502017
1.3681718061674009,0.5076350438809826
1.4015418502202643,0.7349389685323393
1.4349118942731278,0.9918826403871964
1.4682819383259913,1.1533350061193086
1.5016519823788548,1.1183324784925477
1.535022026431718,0.8540761643927337
1.5683920704845815,0.41145330786878587
1.601762114537445,-0.09455435508469644
1.6351321585903085,-0.5301639555050686
1.668502202643172,-0.7930625918883975
1.7018722466960352,-0.8459579454892332
1.7352422907488987,-0.7211830329232559
1.7686123348017622,-0.4984942023504908
1.8019823788546256,-0.2696373623865743
1.8353524229074891,-0.10644406755990127
1.8687224669603526,-0.04404712503970347
1.9020925110132159,-0.08147151216898008
1.9354625550660793,-0.19372718586291085
1.9688325991189428,-0.34623837465887947
2.002202643171806,-0.504564087821565
2.0355726872246698,-0.6376695090656098
2.068942731277533,-0.7178845378317313
2.1023127753303967,-0.7221923991930359
2.13568281938326,-0.6370913081560864
2.1690528634361232,-0.4650747587445514
2.202422907488987,-0.22797796052329716
2.23579295154185,0.03690178992704818
2.269162995594714,0.2882010650049467
2.302533039647577,0.4950105091834163
2.3359030837004404,0.6473376520175508
2.369273127753304,0.7563059262993697
2.4026431718061674,0.8426779669453079
2.436013215859031,0.9188499240760422
2.4693832599118943,0.9742491660789903
2.5027533039647576,0.9737944765127728
2.5361233480176213,0.8728964118176095
2.5694933920704845,0.6431309498854211
2.6028634361233483,0.2954664300354952
2.6362334801762115,-0.11253696259796662
2.6696035242290748,-0.4918098145954437
2.7029735682819385,-0.7539695218834181
2.7363436123348017,-0.8462325585014113
2.7697136563876654,-0.7726931426884747
2.8030837004405287,-0.5918758321691129
2.8364537444933924,-0.39151785122482013
2.8698237885462556,-0.251866691349496
2.903193832599119,-0.21370973538501986
2.9365638766519826,-0.2649522638321748
2.969933920704846,-0.35106929973225987
3.0033039647577096,-0.4038888598496158
3.036674008810573,-0.3747210376047731
3.070044052863436,-0.25589374883370214
3.1034140969162998,-0.08067874535214958
3.136784140969163,0.09713673070214122
3.1701541850220267,0.23197690791386066
3.20352422907489,0.3073143114112393
3.2368942731277532,0.3376519934089139
3.270264317180617,0.3523013177877793
3.30363436123348,0.3725248873975086
3.337004405286344,0.397124146502467
3.370374449339207,0.4056267288270403
3.4037444933920704,0.3766853340483364
3.437114537444934,0.309235684529966
3.4704845814977974,0.23145916686915752
3.503854625550661,0.18934041289774675
3.5372246696035243,0.21902662802476366
3.5705947136563876,0.31827319243216023
3.6039647577092513,0.4351879754838771
3.6373348017621145,0.4845554861583706
3.6707048458149782,0.3867850609431926
3.7040748898678415,0.11050498088279008
3.737444933920705,-0.3042493226293186
3.7708149779735685,-0.7561184575456505
3.8041850220264317,-1.1219540649393336
3.8375550660792954,-1.306070430846385
3.8709251101321587,-1.2747413353289203
3.9042951541850224,-1.0605079257116805
3.9376651982378856,-0.7378895465314445
3.971035242290749,-0.38677312989953794
4.004405286343612,-0.06381718212882488
4.037775330396476,0.20563608284803958
4.0711453744493395,0.4164866327808669
4.104515418502203,0.5660177377047677
4.137885462555066,0.6436898946035626
4.171255506607929,0.6358691160302384
4.2046255506607935,0.5415448933004969
4.237995594713657,0.3868877127889949
4.27136563876652,0.22619424207602076
4.304735682819383,0.12445491684181392
4.3381057268722465,0.12796792021231393
4.371475770925111,0.23773263441057646
4.404845814977974,0.4009688383672477
4.438215859030837,0.528233314056928
4.4715859030837,0.5309040342971549
4.504955947136564,0.36269055847910864
4.538325991189428,0.04532304327837266
4.571696035242291,-0.3349459391095125
4.605066079295154,-0.6597352639838892
4.638436123348018,-0.8255102970073448
4.671806167400881,-0.7837297197342151
4.705176211453745,-0.5563819511137019
4.738546255506608,-0.22155739038986175
4.7719162995594715,0.12175003145892847
4.805286343612335,0.3914564709208273
4.838656387665198,0.545653532408516
4.872026431718062,0.5838144893038989
4.905396475770925,0.5308121333515133
4.938766519823789,0.4167238890793191
4.972136563876652,0.26506063783610984
5.005506607929515,0.09412397305526336
5.038876651982379,-0.0740196736917138
5.072246696035243,-0.20824784072289876
5.105616740088106,-0.27541059794162154
5.138986784140969,-0.25867508122866795
5.172356828193832,-0.17597984039220047
5.2057268722466965,-0.0839524020334621
5.23909691629956,-0.059197285403644155
5.272466960352423,-0.16213022826437912
5.305837004405286,-0.40063091281199953
5.3392070484581495,-0.7140491355426172
5.372577092511014,-0.9896794781670903
5.405947136563877,-1.1074757782977946
5.43931718061674,-0.9931076207951486
5.4726872246696034,-0.6534192156803598
5.506057268722468,-0.17611236955003418
5.539427312775331,0.30651916194839113
5.572797356828194,0.6715795325523924
5.606167400881057,0.8507856800247102
5.639537444933921,0.8468617602522235
5.672907488986785,0.7178841028131394
5.706277533039648,0.5429895703992577
5.739647577092511,0.38956470663147835
5.7730176211453745,0.2961346441885702
5.806387665198238,0.27238468827678813
5.839757709251102,0.30760699228757765
5.873127753303965,0.3777522327324787
5.9064977973568284,0.44815241441424125
5.939867841409692,0.47683985041869326
5.973237885462555,0.4249971014858597
6.006607929515419,0.27473582149454734
6.039977973568282,0.04528608094230305
6.073348017621146,-0.20518953652045577
6.106718061674009,-0.39897739819288575
6.140088105726872,-0.473182610250493
6.173458149779736,-0.4114804795702858
6.2068281938325995,-0.25449546902867626
6.240198237885463,-0.08124201591220309
6.273568281938326,0.029021555447948502
6.306938325991189,0.03359645697929844
6.3403083700440535,-0.05769105591465906
6.373678414096917,-0.19367911903174886
6.40704845814978,-0.310735494938287
6.440418502202643,-0.36160103646496683
6.4737885462555065,-0.3300155002367789
6.507158590308371,-0.22807059380587993
6.540528634361234,-0.08359002649513336
6.573898678414097,0.07196527894887303
6.60726872246696,0.20889931808035866
6.640638766519824,0.2990086441065779
6.674008810572688,0.3151992713719526
6.707378854625551,0.23592696123926538
6.740748898678414,0.05488495001563664
6.774118942731278,-0.20861862469897982
6.807488986784141,-0.5054661924931647
6.840859030837005,-0.7639031800554329
6.874229074889868,-0.9083575795634989
6.9075991189427315,-0.8844073949408543
6.940969162995595,-0.6805408075358474
6.974339207048458,-0.3374005976710229
7.007709251101322,0.0606556038880385
7.041079295154185,0.41029118503291706
7.074449339207049,0.6224968868511567
7.107819383259912,0.6529896370596685
7.141189427312775,0.5184132969087312
7.174559471365639,0.2913517627597372
7.207929515418503,0.07452318993124946
7.241299559471366,-0.037386890086706925
7.274669603524229,0.005867028933531203
7.308039647577092,0.1900290054074406
7.3414096916299565,0.44158920483945807
7.37477973568282,0.65736403510325
7.408149779735683,0.7470902734614508
7.441519823788546,0.6714294253080407
7.47488986784141,0.4586986509037563
7.508259911894274,0.19216537480776663
7.541629955947137,-0.027141107824547542
7.575,-0.12524509900805222
7.608370044052863,-0.08642043818441036
7.641740088105728,0.04412605530203537
7.675110132158591,0.18644052404507092
7.708480176211454,0.26628385046481867
7.741850220264317,0.248484122367175
7.775220264317181,0.14700327602314692
7.808590308370045,0.009271688428677588
7.841960352422908,-0.11380577832300273
7.875330396475771,-0.19458280459993732
7.9087004405286345,-0.2385762089254975
7.942070484581498,-0.27471764003578
7.975440528634362,-0.3339416197298727
8.008810572687224,-0.4292775066843387
8.042180616740088,-0.5482088844801005
8.075550660792953,-0.6602581493776055
8.108920704845815,-0.7341584352054145
8.142290748898679,-0.7540961087916935
8.175660792951541,-0.7256312815935789
8.209030837004406,-0.6681929934585709
8.24240088105727,-0.5990533953622752
8.275770925110132,-0.5190255789031775
8.309140969162996,-0.4096528398638558
8.342511013215859,-0.24521192176381715
8.375881057268723,-0.013707576754559136
8.409251101321587,0.26554984205091303
8.44262114537445,0.5398507308973569
8.475991189427313,0.7406592519978742
8.509361233480176,0.8136514289472712
8.54273127753304,0.7457962812124883
8.576101321585904,0.5742748803932373
8.609471365638766,0.3711168222312688
8.64284140969163,0.21046614852783216
8.676211453744493,0.13500640028474617
8.709581497797357,0.13888072067487958
8.742951541850221,0.1760178879293989
8.776321585903084,0.18959473967971896
8.809691629955948,0.14717713117489553
8.84306167400881,0.06256546125985776
8.876431718061674,-0.008409849661452177
8.909801762114538,0.0024286284056136104
8.9431718061674,0.13493667736173967
8.976541850220265,0.37051513005465153
9.009911894273127,0.6298218839617136
9.043281938325991,0.801920834374941
9.076651982378856,0.7924215959012618
9.110022026431718,0.5682827980947239
9.143392070484582,0.17810271688397114
9.176762114537445,-0.26214530337264913
9.210132158590309,-0.6125588632054743
9.243502202643173,-0.7638946091744595
9.276872246696035,-0.6805882515320331
9.3102422907489,-0.41451058939095736
9.343612334801762,-0.08421633824076044
9.376982378854626,0.1710382054213294
9.41035242290749,0.2431027835055432
9.443722466960352,0.09199760630124228
9.477092511013216,-0.2443858477213789
9.510462555066079,-0.66808285796844
9.543832599118943,-1.0560430686468492
9.577202643171807,-1.2981004426393208
9.61057268722467,-1.3263552916967476
9.643942731277534,-1.1300149394954395
9.677312775330396,-0.7545574761476584
9.71068281938326,-0.2868264286970294
9.744052863436124,0.17043733420652055
9.777422907488987,0.5285895049041115
9.81079295154185,0.7388124603963684
9.844162995594713,0.8041269586260128
9.877533039647577,0.7718275479851247
9.910903083700441,0.7081325511846891
9.944273127753304,0.6653521246260602
9.977643171806168,0.6566381183610577
10.01101321585903,0.6510527334854084
10.044383259911895,0.5924750102690215
10.077753303964759,0.43388693175283044
10.111123348017621,0.1700056375810357
10.144493392070485,-0.14909479617318422
10.177863436123348,-0.4320950982784362
10.211233480176212,-0.5834284382928383
10.244603524229076,-0.5465390278581495
10.277973568281938,-0.332808212329228
10.311343612334802,-0.021631285881938016
10.344713656387665,0.26951566678259387
10.378083700440529,0.4320403274280256
10.411453744493393,0.4093016847360684
10.444823788546255,0.2169563210798047
10.47819383259912,-0.06729656058295592
10.511563876651982,-0.3382718114795934
10.544933920704846,-0.5054878864004947
10.57830396475771,-0.5245640197041398
10.611674008810573,-0.40636200418760776
10.645044052863437,-0.20371407093551278
10.678414096916299,0.014858703529590522
10.711784140969163,0.19146947764680006
10.745154185022027,0.2951075589650215
10.77852422907489,0.32407547713984364
10.811894273127754,0.29712316484409523
10.845264317180618,0.23946274767447573
10.87863436123348,0.17052897977914874
10.912004405286345,0.09860337035455886
10.945374449339207,0.023970460782204037
10.978744493392071,-0.0519548458454954
11.012114537444935,-0.11757113900682895
11.045484581497798,-0.14898212125630914
11.078854625550662,-0.1187011976916349
11.112224669603524,-0.012858854388952495
11.145594713656388,0.15183652988701596
11.178964757709252,0.32282216432022476
11.212334801762115,0.4256537982723705
11.245704845814979,0.3950259783421539
11.279074889867841,0.20965817329880798
11.312444933920705,-0.08768066613866637
11.34581497797357,-0.39913079425831827
11.379185022026432,-0.6098211829817298
11.412555066079296,-0.6388249767910221
11.445925110132158,-0.47771756204695176
11.479295154185023,-0.19619725771477492
11.512665198237887,0.08897888038423268
11.546035242290749,0.26607052992576835
11.579405286343613,0.27510127033932413
11.612775330396476,0.1270632146820787
11.64614537444934,-0.11076674565536383
11.679515418502204,-0.3519551094454449
11.712885462555066,-0.5294080267542713
11.74625550660793,-0.6169074575474267
11.779625550660793,-0.627069467577727
11.812995594713657,-0.5918962135782446
11.846365638766521,-0.5390543945292228
11.879735682819383,-0.4760590984084503
11.913105726872248,-0.38835901463321615
11.94647577092511,-0.25026323658946154
11.979845814977974,-0.04264643863210094
12.013215859030838,0.23080219792240214
12.0465859030837,0.5364717045979914
12.079955947136565,0.817300467376153
12.113325991189427,1.0117407767756763
12.146696035242291,1.0781067602710543
12.180066079295155,1.013545328924663
12.213436123348018,0.8579860782632595
12.246806167400882,0.6795205605445845
12.280176211453744,0.546265874910402
12.313546255506608,0.49679253051376393
12.346916299559473,0.5229520886057156
12.380286343612335,0.5740411424375506
12.413656387665199,0.5814615164458866
12.447026431718061,0.4927675646465804
12.480396475770926,0.29842304507285483
12.51376651982379,0.037208863242458916
12.547136563876652,-0.22340124693607671
12.580506607929516,-0.4223032788225143
12.613876651982379,-0.5366705470913659
12.647246696035243,-0.5928847896840924
12.680616740088107,-0.6494853985791398
12.71398678414097,-0.7604448235225318
12.747356828193833,-0.9384739826952009
12.780726872246696,-1.1390387863840061
12.81409691629956,-1.2754917856650425
12.847466960352424,-1.2595314071114903
12.880837004405286,-1.0476120496267507
12.91420704845815,-0.6699685324855306
12.947577092511013,-0.22654977582690672
12.980947136563877,0.1503813571823046
13.014317180616741,0.3512679029571746
13.047687224669604,0.3371710357944841
13.081057268722468,0.15810945381538283
13.11442731277533,-0.06777073879715244
13.147797356828194,-0.20590003827263365
13.181167400881058,-0.16488106019695234
13.21453744493392,0.06334574558024648
13.247907488986785,0.4015336840370504
13.281277533039647,0.7242453057664198
13.314647577092511,0.9160893402578387
13.348017621145376,0.9227090044648509
13.381387665198238,0.7699247238471042
13.414757709251102,0.5429900078483219
13.448127753303964,0.33876067405395754
13.481497797356829,0.21735731033528238
13.514867841409693,0.17887757714014715
13.548237885462555,0.17553545707780627
13.58160792951542,0.1491892780099871
13.614977973568282,0.0705205600662004
13.648348017621146,-0.043110336248051974
13.68171806167401,-0.13998140933163844
13.715088105726872,-0.16692899179781337
13.748458149779736,-0.10183804340148629
13.781828193832599,0.033351663757009896
13.815198237885463,0.1848729935311178
13.848568281938327,0.2947743418925835
13.88193832599119,0.32627814386333154
13.915308370044054,0.27326905967366305
13.948678414096916,0.15251760962144972
13.98204845814978,-0.01152073133277656
14.015418502202644,-0.19681604126601324
14.048788546255507,-0.38307800072308956
14.08215859030837,-0.5449134423598329
14.115528634361233,-0.6492671142707535
14.148898678414097,-0.6645128590933386
14.182268722466961,-0.5788631668831908
14.215638766519824,-0.41643984636274584
14.249008810572688,-0.23737182813997357
14.28237885462555,-0.11602188788262487
14.315748898678414,-0.1049245250746191
14.349118942731279,-0.20303912542757913
14.382488986784141,-0.347878201794845
14.415859030837005,-0.43988891755476306
14.449229074889868,-0.38964624454233265
14.482599118942732,-0.16435410438663692
14.515969162995596,0.19120170975868098
14.549339207048458,0.5712369476321464
14.582709251101322,0.8551813174929705
14.616079295154185,0.9600676235416267
14.649449339207049,0.8730090166083331
14.682819383259913,0.648938974839335
14.716189427312775,0.3773792986486836
14.74955947136564,0.13776099743832199
14.782929515418502,-0.03258377529040672
14.816299559471366,-0.1424439394571297
14.84966960352423,-0.22447828357546024
14.883039647577093,-0.3036421076569894
14.916409691629957,-0.37750987847761336
14.94977973568282,-0.4204708138723422
14.983149779735683,-0.40712756096386504
15.016519823788547,-0.3371535764407272
15.04988986784141,-0.24296468874902932
15.083259911894274,-0.17333345146842385
15.116629955947138,-0.16262340144951715
15.15,-0.20561141863130108
15.183370044052865,-0.25504594713282874
15.216740088105727,-0.24502191349641936
15.250110132158591,-0.12720010986589153
15.283480176211455,0.10081693845646873
15.316850220264318,0.39053602599473636
15.350220264317182,0.6626932300240128
15.383590308370044,0.8404859129742491
15.416960352422908,0.8786319569194206
15.450330396475772,0.77573904370492
15.483700440528635,0.5678846709340089
15.517070484581499,0.31050758024175446
15.550440528634361,0.058967715037712115
15.583810572687225,-0.1448278806362156
15.61718061674009,-0.2780826901919959
15.650550660792952,-0.33757055612430575
15.683920704845816,-0.3376750221023075
15.717290748898678,-0.306213885719439
15.750660792951543,-0.2762223674987864
15.784030837004407,-0.2731705496280093
15.817400881057269,-0.3014709568500601
15.850770925110133,-0.3381083941328591
15.884140969162996,-0.3405289300662577
15.91751101321586,-0.2690244121822609
15.950881057268724,-0.1139862303037098
15.984251101321586,0.08779968894421455
16.01762114537445,0.26063298167056026
16.050991189427315,0.32174639022598484
16.084361233480177,0.22321085280114014
16.11773127753304,-0.018611175819209392
16.151101321585905,-0.3239547739035339
16.184471365638768,-0.582935099482414
16.21784140969163,-0.705109606877692
16.251211453744492,-0.6595735089545447
16.284581497797358,-0.4846956281240979
16.31795154185022,-0.2632089367594615
16.351321585903083,-0.07708529263282449
16.38469162995595,0.03315972622394019
16.41806167400881,0.08372965883766972
16.451431718061674,0.13119111959898994
16.48480176211454,0.23551071464684603
16.518171806167402,0.4234975497261575
16.551541850220264,0.6715731387791364
16.584911894273127,0.9148694561697667
16.618281938325993,1.075473062863465
16.651651982378855,1.0942072313288589
16.685022026431717,0.951389437116906
16.718392070484583,0.6702431361502166
16.751762114537446,0.3060368855203627
16.785132158590308,-0.070942097236571
16.818502202643174,-0.3914384169135772
16.851872246696036,-0.5995402210213276
16.8852422907489,-0.6619856901616505
16.91861233480176,-0.5752423771820017
16.951982378854627,-0.3687023735319214
16.98535242290749,-0.10072906334822139
17.01872246696035,0.15404174473970542
17.052092511013218,0.32354217898287546
17.08546255506608,0.35714855419285146
17.118832599118942,0.23840533158569746
17.152202643171808,-0.011462738726524086
17.18557268722467,-0.33866851298949374
17.218942731277533,-0.6683756267488385
17.2523127753304,-0.9207712768859566
17.28568281938326,-1.0302191807309988
17.319052863436124,-0.9644541368669487
17.352422907488986,-0.7378537638288587
