Frequency (Hz),Amplitude
0.0,4.698905894165127
0.019801980198019802,4.6968707850935925
0.039603960396039604,4.690768174343071
0.0594059405940594,4.680606215135221
0.07920792079207921,4.666398509044734
0.09900990099009901,4.648164125684905
0.1188118811881188,4.625927631032788
0.13861386138613863,4.599719125183534
0.15841584158415842,4.569574290583337
0.1782178217821782,4.535534452079561
0.19801980198019803,4.497646650450639
0.21782178217821782,4.455963731448578
0.2376237623762376,4.410544452813315
0.25742574257425743,4.361453612214278
0.27722772277227725,4.308762199655858
0.297029702970297,4.252547578568537
0.31683168316831684,4.192893700618289
0.33663366336633666,4.1298913602311655
0.3564356435643564,4.063638495978261
0.37623762376237624,3.9942405473377356
0.39603960396039606,3.9218108769898006
0.4158415841584158,3.8464712707601927
0.43564356435643564,3.768352529667844
0.45544554455445546,3.687595171321967
0.4752475247524752,3.6043502612252527
0.495049504950495,3.518780398446956
0.5148514851485149,3.4310608846986415
0.5346534653465347,3.341381111114876
0.5544554455445545,3.2499462029968225
0.5742574257425742,3.156978969300004
0.594059405940594,3.0627222104352936
0.613861386138614,2.967441444393095
0.6336633663366337,2.8714281161685005
0.6534653465346534,2.775003357024817
0.6732673267326733,2.6785223550826687
0.6930693069306931,2.5823793819675527
0.7128712871287128,2.4870134839587417
0.7326732673267327,2.3929147786996348
0.7524752475247525,2.3006311838562703
0.7722772277227723,2.210775221099137
0.7920792079207921,2.1240302633314947
0.8118811881188118,2.0411552042695558
0.8316831683168316,1.9629860238961336
0.8514851485148516,1.8904321416796663
0.8712871287128713,1.8244649165324698
0.891089108910891,1.7660954200748726
0.9108910891089109,1.7163390689001448
0.9306930693069307,1.6761662996216689
0.9504950495049505,1.6464414653770785
0.9702970297029703,1.627856200582698
0.99009900990099,1.6208674247566028
1.00990099009901,1.6256520149353746
1.0297029702970297,1.6420883041632692
1.0495049504950495,1.669768856455763
1.0693069306930694,1.7080414274030111
1.0891089108910892,1.756068761215324
1.108910891089109,1.8128952295875258
1.1287128712871286,1.8775095754012632
1.1485148514851484,1.9488967180745058
1.1683168316831685,2.0260757393459548
1.188118811881188,2.108124412801764
1.2079207920792079,2.194192491780878
1.227722772277228,2.2835066095894057
1.2475247524752475,2.375369509447855
1.2673267326732673,2.469155821314278
1.2871287128712872,2.56430601740396
1.3069306930693068,2.6603196533899864
1.3267326732673268,2.75674859098137
1.3465346534653466,2.8531906022397924
1.3663366336633662,2.9492835575536898
1.3861386138613863,3.044700273471441
1.405940594059406,3.1391440217517412
1.4257425742574257,3.2323446598953076
1.4455445544554455,3.324055323709286
1.4653465346534653,3.414049615676585
1.4851485148514851,3.5021192235175107
1.504950495049505,3.588071907841517
1.5247524752475248,3.671729804058269
1.5445544554455446,3.7529279904999724
1.5643564356435644,3.8315132813106176
1.5841584158415842,3.907343208733241
1.6039603960396038,3.980285164828284
1.6237623762376237,4.05021567735437
1.6435643564356437,4.117019798569366
1.6633663366336633,4.180590589127413
1.683168316831683,4.240828682128721
1.7029702970297032,4.297641914798131
1.7227722772277227,4.35094501729425
1.7425742574257426,4.4006593498458795
1.7623762376237624,4.446712680830161
1.782178217821782,4.489038999593966
1.801980198019802,4.5275783588157354
1.8217821782178218,4.562276742042274
1.8415841584158414,4.593085952741617
1.8613861386138615,4.619963521812025
1.881188118811881,4.642872630997736
1.900990099009901,4.661782050099921
1.920792079207921,4.676666086251154
1.9405940594059405,4.6875045438530805
1.9603960396039604,4.694282694071193
1.98019801980198,4.696991253045533
2.0,4.6956263682182176
2.01980198019802,4.690189612406171
2.0396039603960396,4.6806879854647025
2.0594059405940595,4.6671339236009945
2.0792079207920793,4.649545316612275
2.099009900990099,4.627945533545382
2.118811881188119,4.6023634575105214
2.1386138613861387,4.572833530637012
2.1584158415841586,4.5393958104401495
2.1782178217821784,4.5020960391848295
2.1980198019801978,4.4609857281907885
2.217821782178218,4.416122259438954
2.237623762376238,4.367569007319278
2.257425742574257,4.315395483924674
2.2772277227722775,4.259677511959922
2.297029702970297,4.20049743012135
2.3168316831683167,4.1379443367392925
2.336633663366337,4.0721143785912215
2.3564356435643563,4.0031110931283065
2.376237623762376,3.9310458139556252
2.3960396039603964,3.8560381513201674
2.4158415841584158,3.7782165616522914
2.4356435643564356,3.6977190229460652
2.455445544554456,3.6146938360285885
2.4752475247524752,3.5293005756405114
2.495049504950495,3.4417112198050575
2.514851485148515,3.3521114912616654
2.5346534653465347,3.260702450796607
2.5544554455445545,3.167702389046803
2.5742574257425743,3.0733490705523203
2.594059405940594,2.9779023909837172
2.6138613861386135,2.8816475146052087
2.633663366336634,2.784898562444932
2.6534653465346536,2.688002919444578
2.673267326732673,2.591346216376969
2.6930693069306932,2.495358012237559
2.712871287128713,2.400518144126318
2.7326732673267324,2.3073636085496134
2.7524752475247527,2.2164956693930997
2.7722772277227725,2.1285866279706602
2.792079207920792,2.0443853145125375
2.811881188118812,1.9647198562858568
2.8316831683168315,1.890495671312498
2.8514851485148514,1.8226860326187528
2.8712871287128716,1.7623121775317514
2.891089108910891,1.7104101868621993
2.910891089108911,1.6679832174104026
2.9306930693069306,1.6359405050588747
2.9504950495049505,1.6150287062088577
2.9702970297029703,1.6057655257540853
2.99009900990099,1.608388215313078
3.00990099009901,1.6228284295343713
3.0297029702970297,1.6487195466535007
3.0495049504950495,1.685434644149245
3.0693069306930694,1.7321461719464764
3.089108910891089,1.7878948044653786
3.108910891089109,1.8516556948785448
3.128712871287129,1.9223940378230535
3.148514851485148,1.9991063266163736
3.1683168316831685,2.08084733156002
3.1881188118811883,2.166744984594962
3.2079207920792077,2.2560061638332787
3.227722772277228,2.3479162900083628
3.2475247524752473,2.44183513451888
3.267326732673267,2.537190613727154
3.2871287128712874,2.6334717758933976
3.3069306930693068,2.7302217393822024
3.3267326732673266,2.8270310187756897
3.346534653465347,2.9235314593056443
3.366336633663366,3.0193908633051945
3.386138613861386,3.1143083112302197
3.4059405940594063,3.208010135413944
3.4257425742574257,3.3002464835402834
3.4455445544554455,3.3907884016178427
3.4653465346534653,3.4794253669779254
3.485148514851485,3.5659632067146085
3.504950495049505,3.6502223437318104
3.5247524752475248,3.7320363198240996
3.5445544554455446,3.811250552260977
3.564356435643564,3.887721286802794
3.5841584158415842,3.961314715801662
3.603960396039604,4.031906235006109
3.6237623762376234,4.0993798169334426
3.6435643564356437,4.163627482267488
3.6633663366336635,4.224548853762457
3.683168316831683,4.282050779666042
3.702970297029703,4.336047015791283
3.722772277227723,4.386457957133399
3.7425742574257423,4.4332104114029445
3.762376237623762,4.476237408079095
3.7821782178217824,4.515478037618741
3.801980198019802,4.5508773163231
3.8217821782178216,4.582386073092586
3.841584158415842,4.609960854917579
3.8613861386138613,4.633563848477251
3.881188118811881,4.6531628156673674
3.9009900990099013,4.6687310412657945
3.9207920792079207,4.680247291282152
3.9405940594059405,4.6876957808366395
3.96039603960396,4.691066150680314
3.98019801980198,4.690353451713228
4.0,4.6855581370838415
4.01980198019802,4.676686061669739
4.03960396039604,4.66374848895116
4.0594059405940595,4.646762105500758
4.079207920792079,4.625749043531389
4.099009900990099,4.600736912173616
4.118811881188119,4.571758838403081
4.138613861386139,4.538853518811065
4.158415841584159,4.5020652837179265
4.178217821782178,4.461444175477166
4.198019801980198,4.417046043218589
4.217821782178218,4.368932656744709
4.237623762376238,4.317171842840584
4.257425742574258,4.261837647900904
4.2772277227722775,4.203010531542347
4.297029702970297,4.140777596779047
4.316831683168317,4.0752328634270745
4.336633663366336,4.006477592708067
4.356435643564357,3.9346206725886974
4.376237623762377,3.8597790752763474
4.3960396039603955,3.782078400556958
4.415841584158416,3.7016535213847575
4.435643564356436,3.6186493513995823
4.455445544554455,3.533221757952251
4.475247524752476,3.4455386488566746
4.4950495049504955,3.3557812665496507
4.514851485148514,3.2641457296850147
4.534653465346535,3.1708448694129605
4.554455445544555,3.076110415564155
4.574257425742574,2.980195596305578
4.594059405940594,2.8833782227923037
4.613861386138614,2.7859643364677145
4.633663366336633,2.688292498439384
4.653465346534653,2.5907387935503077
4.673267326732674,2.4937225995584478
4.693069306930693,2.397713123655082
4.712871287128713,2.3032366186869946
4.732673267326733,2.210884037877452
4.752475247524752,2.121318641245062
4.772277227722772,2.035282698026933
4.792079207920793,1.9536019135663973
4.811881188118812,1.8771855537250042
4.8316831683168315,1.8070195251667052
4.851485148514852,1.7441491072993807
4.871287128712871,1.689648015063112
4.891089108910891,1.6445715568768138
4.910891089108912,1.6098943622146304
4.930693069306931,1.5864375440727538
4.9504950495049505,1.5747952827402347
4.97029702970297,1.575274549861472
4.99009900990099,1.587861542753068
5.00990099009901,1.6122231937142404
5.02970297029703,1.6477433681274267
5.0495049504950495,1.6935847837584268
5.069306930693069,1.748762877271222
5.089108910891089,1.8122180891326651
5.108910891089109,1.8828769841513568
5.128712871287129,1.9596977527924833
5.148514851485149,2.0416999106660727
5.1683168316831685,2.1279805781025445
5.188118811881188,2.2177206937214375
5.207920792079208,2.3101844347079648
5.227722772277227,2.404714528944567
5.247524752475248,2.500725428281923
5.267326732673268,2.5976956664480757
5.2871287128712865,2.6951602215872534
5.306930693069307,2.79270334571519
5.326732673267327,2.8899520865090444
5.346534653465346,2.9865705795074264
5.366336633663367,3.0822551031058274
5.3861386138613865,3.1767298432123603
5.405940594059405,3.2697432938413167
5.425742574257426,3.361065214047952
5.445544554455446,3.450484063883325
5.465346534653465,3.5378048484134865
5.485148514851486,3.622847306887161
5.504950495049505,3.7054443924807825
5.524752475247524,3.785440995971971
5.544554455445545,3.862692873850794
5.564356435643565,3.937065747653723
5.584158415841584,4.008434546698298
5.603960396039604,4.076682770973224
5.623762376237624,4.141701954787736
5.643564356435643,4.2033912150031405
5.663366336633663,4.261656870352722
5.683168316831684,4.31641212058772
5.702970297029703,4.367576776042611
5.7227722772277225,4.415077029755312
5.742574257425743,4.458845265562672
5.762376237623762,4.498819896662564
5.782178217821782,4.534945230030226
5.801980198019803,4.5671713528285
5.821782178217822,4.595454037585404
5.841584158415841,4.619754663449814
5.861386138613861,4.640040151294281
5.881188118811881,4.656282910827922
5.900990099009901,4.668460798224676
5.920792079207921,4.676557083073069
5.9405940594059405,4.680560423721761
5.96039603960396,4.68046485033878
5.98019801980198,4.676269755228001
6.0,4.667979890159711
6.01980198019802,4.655605370680057
6.03960396039604,4.639161687571101
6.0594059405940595,4.618669725845068
6.079207920792079,4.594155791879274
6.099009900990099,4.565651649537666
6.118811881188119,4.533194566388093
6.138613861386139,4.496827371418762
6.158415841584159,4.456598525992231
6.178217821782178,4.412562210160013
6.198019801980198,4.3647784269093535
6.217821782178218,4.313313127439777
6.237623762376237,4.258238361188283
6.257425742574258,4.199632455062475
6.2772277227722775,4.137580227223544
6.297029702970296,4.072173241822077
6.316831683168317,4.003510112365383
6.336633663366337,3.931696862935365
6.356435643564356,3.856847358338091
6.376237623762377,3.7790838165200626
6.396039603960396,3.698537419315436
6.415841584158415,3.6153490408903943
6.435643564356436,3.5296701172383274
6.455445544554456,3.44166368487537
6.475247524752475,3.351505622621249
6.495049504950495,3.2593861371430948
6.514851485148515,3.1655115408724677
6.534653465346534,3.070106379969619
6.554455445544554,2.9734159800164845
6.574257425742575,2.8757094875530917
6.594059405940594,2.777283495333172
6.6138613861386135,2.678466346186226
6.633663366336634,2.5796232109561807
6.653465346534653,2.481162023923517
6.673267326732673,2.3835403243208035
6.693069306930694,2.287272979322302
6.712871287128713,2.192940628985956
6.732673267326732,2.1011984649390083
6.752475247524753,2.012784592368442
6.772277227722772,1.9285266895290236
6.792079207920792,1.8493449523893628
6.811881188118813,1.7762484411991946
6.8316831683168315,1.7103211138376984
6.851485148514851,1.6526934402202138
6.871287128712871,1.6044961959792758
6.891089108910891,1.5667955854028242
6.910891089108911,1.5405136225684228
6.930693069306931,1.5263439679410322
6.9504950495049505,1.524678829897187
6.97029702970297,1.535563789116677
6.99009900990099,1.5586923131683723
7.00990099009901,1.5934414585133132
7.02970297029703,1.638939290852086
7.0495049504950495,1.694147850825434
7.069306930693069,1.7579452019839945
7.089108910891089,1.8291947499571481
7.108910891089109,1.906796357469522
7.128712871287128,1.98971907851368
7.148514851485149,2.077018458994741
7.1683168316831685,2.167842465253656
7.188118811881187,2.2614299228929764
7.207920792079208,2.357104581170339
7.227722772277228,2.454267031974172
7.247524752475247,2.5523859395471833
7.267326732673268,2.6509894521084414
7.287128712871287,2.7496572627790017
7.306930693069306,2.848013527903046
7.326732673267327,2.9457206950918255
7.346534653465347,3.0424742066973174
7.366336633663366,3.137998001466926
7.3861386138613865,3.2320407203620096
7.405940594059406,3.324372520578227
7.425742574257425,3.414782407607771
7.445544554455446,3.5030760045002793
7.465346534653466,3.5890736878880247
7.485148514851485,3.6726090305381645
7.504950495049505,3.7535274995393766
7.524752475247524,3.831685367468962
7.544554455445544,3.906948800974503
7.564356435643565,3.979193097206428
7.584158415841584,4.048302043568223
7.603960396039604,4.114167380437335
7.623762376237624,4.176688349979799
7.643564356435643,4.235771317049829
7.663366336633663,4.291329450534709
7.683168316831684,4.343282455461819
7.702970297029703,4.39155634780166
7.7227722772277225,4.436083265239942
7.742574257425743,4.4768013083028695
7.762376237623762,4.513654407144603
7.782178217821782,4.546592210078536
7.801980198019803,4.575569990582185
7.821782178217822,4.600548570052502
7.841584158415841,4.621494254052616
7.861386138613862,4.638378780188649
7.881188118811881,4.651179276098483
7.900990099009901,4.659878226334856
7.92079207920792,4.664463447191486
7.9405940594059405,4.664928068761338
7.96039603960396,4.661270523737263
7.980198019801979,4.653494542673759
8.0,4.641609155629696
8.01980198019802,4.6256287003112835
8.03960396039604,4.605572837038144
8.05940594059406,4.58146657106778
8.07920792079208,4.553340283042027
8.099009900990099,4.521229768569261
8.118811881188119,4.48517628823556
8.138613861386139,4.4452266296560135
8.158415841584159,4.401433183543425
8.178217821782178,4.353854036198406
8.198019801980198,4.3025530813271065
8.217821782178218,4.247600154687778
8.237623762376238,4.189071195778359
8.257425742574258,4.127048441629324
8.277227722772277,4.061620658794148
8.297029702970297,3.992883420873371
8.316831683168317,3.9209394404185947
8.336633663366337,3.845898965901408
8.356435643564357,3.767880256675621
8.376237623762377,3.6870101516021756
8.396039603960396,3.6034247503575036
8.415841584158416,3.517270230542483
8.435643564356436,3.428703828708836
8.455445544554456,3.3378950195023194
8.475247524752476,3.245026934481861
8.495049504950495,3.1502980710022155
8.514851485148515,3.053924351995854
8.534653465346535,2.956141609600759
8.554455445544555,2.8572085791611803
8.574257425742575,2.7574105045320914
8.594059405940595,2.65706346937117
8.613861386138613,2.5565195792919124
8.633663366336634,2.456173121044445
8.653465346534654,2.3564678080273653
8.673267326732672,2.2579051710455387
8.693069306930694,2.161054044956807
8.712871287128714,2.0665608992030937
8.732673267326732,1.9751604127365054
8.752475247524753,1.8876851405147292
8.772277227722773,1.8050723047619928
8.792079207920791,1.7283646645403634
8.811881188118813,1.658701202207424
8.831683168316832,1.5972924091879077
8.85148514851485,1.5453750310918823
8.871287128712872,1.5041433421676935
8.891089108910892,1.4746592908560372
8.91089108910891,1.4577518996569225
8.930693069306932,1.4539245066139264
8.950495049504951,1.4632921305237052
8.97029702970297,1.485566397259115
8.990099009900991,1.5200924928184887
9.00990099009901,1.5659273953837203
9.029702970297029,1.621938711698161
9.04950495049505,1.6869025419426371
9.06930693069307,1.7595850476969928
9.089108910891088,1.838801019774318
9.10891089108911,1.9234497663480938
9.12871287128713,2.0125325373444416
9.148514851485148,2.1051568548587216
9.16831683168317,2.2005326321495273
9.188118811881187,2.297963824632039
9.207920792079207,2.396838168814735
9.227722772277229,2.4966165931936195
9.247524752475247,2.596823187434767
9.267326732673267,2.6970361585855946
9.287128712871288,2.796879924628305
9.306930693069306,2.8960183388532754
9.326732673267326,2.994148958796155
9.346534653465348,3.0909982398958835
9.366336633663366,3.186317526463944
9.386138613861386,3.2798797185671034
9.405940594059407,3.3714765056637392
9.425742574257425,3.4609160721504035
9.445544554455445,3.5480211941714335
9.465346534653467,3.632627660059868
9.485148514851485,3.7145829581969374
9.504950495049505,3.7937451858286617
9.524752475247526,3.8699821405637267
9.544554455445544,3.9431705630711584
9.564356435643564,4.013195505096341
9.584158415841586,4.0799498015090085
9.603960396039604,4.143333628858243
9.623762376237623,4.2032541359856035
9.643564356435645,4.2596251347634295
9.663366336633663,4.312366841085192
9.683168316831683,4.361405657923867
9.702970297029704,4.406673993662798
9.722772277227723,4.448110110047871
9.742574257425742,4.485657995056555
9.762376237623764,4.519267256765035
9.782178217821782,4.5488930349506775
9.801980198019802,4.574495927716801
9.821782178217823,4.596041930891373
9.841584158415841,4.61350238834635
9.861386138613861,4.626853951724012
9.881188118811881,4.636078548351712
9.900990099009901,4.641163356386659
9.92079207920792,4.64210078646554
9.94059405940594,4.638888469346752
9.96039603960396,4.631529249232608
9.98019801980198,4.620031182649941
10.0,4.604407542956102
10.01980198019802,4.5846768307283225
10.03960396039604,4.5608627904935215
10.05940594059406,4.532994434468354
10.07920792079208,4.501106074212277
10.099009900990099,4.465237361356407
10.118811881188119,4.425433338867135
10.138613861386139,4.3817445046444945
10.158415841584159,4.33422688965446
10.178217821782178,4.282942153264847
10.198019801980198,4.227957699015011
10.217821782178218,4.169346814721149
10.237623762376238,4.107188841629326
10.257425742574258,4.041569378310894
10.277227722772277,3.9725805261920804
10.297029702970297,3.900321185073379
10.316831683168317,3.824897408792365
10.336633663366337,3.7464228333967835
10.356435643564357,3.6650191929288702
10.376237623762377,3.5808169413043376
10.396039603960396,3.493956002962505
10.415841584158416,3.4045866801638436
10.435643564356436,3.3128707512580227
10.455445544554454,3.2189828022233855
10.475247524752476,3.1231118436134113
10.495049504950495,3.0254632770893597
10.514851485148514,2.9262612903068903
10.534653465346535,2.825751776295587
10.554455445544555,2.724205893589853
10.574257425742573,2.6219244056236817
10.594059405940595,2.5192429605316633
10.613861386138614,2.4165384916328843
10.633663366336632,2.3142369268983174
10.653465346534654,2.2128223786385326
10.673267326732674,2.112847918171984
10.693069306930692,2.014947884162126
10.712871287128714,1.9198513652546843
10.732673267326733,1.8283959489426005
10.752475247524751,1.7415399310172148
10.772277227722773,1.6603698415839672
