Time (s),Filtered Signal
0.0,-0.05078732187438496
0.03337008452774715,0.38967582092452324
0.0667401690554943,0.7667095279344984
0.10011025358324147,1.0253098943944632
0.1334803381109886,1.1280272033476861
0.16685042263873576,1.064727019865156
0.20022050716648293,0.8584186761586788
0.23359059169423008,0.5623250145033127
0.2669606762219772,0.24653502800650623
0.30033076074972437,-0.02214164007954865
0.3337008452774715,-0.1994653558486278
0.36707092980521866,-0.2744760786685549
0.40044101433296586,-0.2679333390429752
0.433811098860713,-0.22045998506989978
0.46718118338846015,-0.17631913785686432
0.5005512679162073,-0.1691060034567329
0.5339213524439544,-0.2130137114247978
0.5672914369717016,-0.30012522394302515
0.6006615214994487,-0.40262007483330736
0.6340316060271959,-0.4792919067541848
0.667401690554943,-0.4867579682100274
0.7007717750826902,-0.39498001420146744
0.7341418596104373,-0.20345059100408566
0.7675119441381845,0.049423240885342966
0.8008820286659317,0.29186250557891086
0.8342521131936789,0.4421863013773392
0.867622197721426,0.4435881023856242
0.9009922822491732,0.29482022311461575
0.9343623667769203,0.059727091840377826
0.9677324513046675,-0.1532274869566172
1.0011025358324146,-0.23548786971615143
1.0344726203601617,-0.12749091672825966
1.0678427048879089,0.1515502544556957
1.101212789415656,0.5089682862225412
1.1345828739434032,0.817987177971331
1.1679529584711503,0.9728987840752342
1.2013230429988975,0.9335998454162798
1.2346931275266446,0.7381581008070305
1.2680632120543918,0.47814782020139573
1.301433296582139,0.2501608332281262
1.334803381109886,0.10843628964429997
1.3681734656376332,0.042110665010089955
1.4015435501653803,-0.012757314508662403
1.4349136346931275,-0.134252136415418
1.4682837192208746,-0.36988833140448674
1.5016538037486218,-0.7090844627333436
1.535023888276369,-1.085680405248841
1.568393972804116,-1.407116712977179
1.6017640573318634,-1.593467184614955
1.6351341418596106,-1.6060186011195332
1.6685042263873577,-1.4528749918616632
1.7018743109151049,-1.173029306109497
1.735244395442852,-0.8120345612163684
1.7686144799705992,-0.40510286110676924
1.8019845644983463,0.02377668319912388
1.8353546490260935,0.4500368946309605
1.8687247335538406,0.8360983215143808
1.9020948180815878,1.1304429500221989
1.935464902609335,1.2821985809833971
1.968834987137082,1.2644300756097195
2.002205071664829,1.0927308527108337
2.0355751561925763,0.827207699446526
2.0689452407203235,0.5544382457473084
2.1023153252480706,0.356423146147829
2.1356854097758178,0.28021130855772425
2.169055494303565,0.32152422236392336
2.202425578831312,0.4290755402906733
2.235795663359059,0.5271197255501682
2.2691657478868064,0.54643880394466
2.3025358324145535,0.4512917248400085
2.3359059169423007,0.2522070532077308
2.369276001470048,0.0004042056594013191
2.402646085997795,-0.23329299355831715
2.436016170525542,-0.38640573647766546
2.4693862550532892,-0.4285269056726345
2.5027563395810364,-0.3716426597675722
2.5361264241087835,-0.26346215657003946
2.5694965086365307,-0.1671397520675879
2.602866593164278,-0.13612870183354786
2.636236677692025,-0.1944463309326911
2.669606762219772,-0.32992074923459375
2.7029768467475193,-0.5023318215377005
2.7363469312752664,-0.6620955956743805
2.7697170158030135,-0.7707811829061053
2.8030871003307607,-0.8141520701950906
2.836457184858508,-0.8020658729526009
2.869827269386255,-0.7560829610724225
2.903197353914002,-0.6920511238811177
2.9365674384417493,-0.6078577581724385
2.9699375229694964,-0.4839919483252025
3.0033076074972436,-0.297425336973997
3.0366776920249907,-0.041310401989833316
3.070047776552738,0.26124907721765134
3.103417861080485,0.5587388155745114
3.136787945608232,0.789354714233436
3.1701580301359793,0.907426187235181
3.203528114663727,0.90437412885788
3.236898199191474,0.8125130500999728
3.270268283719221,0.6889714658779329
3.3036383682469683,0.5880262306366223
3.3370084527747155,0.5367846008015696
3.3703785373024626,0.5271756945166527
3.4037486218302098,0.5274921087392559
3.437118706357957,0.505072615985037
3.470488790885704,0.4454424439512669
3.503858875413451,0.3563470905336107
3.5372289599411983,0.2555785620867176
3.5705990444689455,0.15245431146037855
3.6039691289966926,0.0371211238607161
3.63733921352444,-0.11332657093677415
3.670709298052187,-0.31441538698649807
3.704079382579934,-0.5526460642087205
3.7374494671076812,-0.7785345234208904
3.7708195516354284,-0.9228093115488711
3.8041896361631755,-0.9302774933940615
3.8375597206909227,-0.7935332842128339
3.87092980521867,-0.5659317715212374
3.904299889746417,-0.34287146893961123
3.937669974274164,-0.21775816255961872
3.9710400588019112,-0.2342377898986718
4.004410143329658,-0.3602088340675882
4.0377802278574055,-0.4989000494746687
4.071150312385153,-0.5332580004476323
4.1045203969129,-0.38242085739394016
4.137890481440647,-0.04257687515906926
4.171260565968394,0.4077322177557867
4.204630650496141,0.8401564977392411
4.238000735023888,1.1309136698407598
4.2713708195516356,1.2110938298403267
4.304740904079383,1.0900239161492111
4.33811098860713,0.8427167790653571
4.371481073134877,0.5698844907721867
4.404851157662624,0.3512807724842494
4.438221242190371,0.2145462376568172
4.471591326718118,0.13234197178435825
4.504961411245866,0.045857187203108926
4.538331495773613,-0.0995334297828179
4.57170158030136,-0.3248015830837071
4.605071664829107,-0.607103437985984
4.638441749356854,-0.8911009903690555
4.671811833884601,-1.1133387579480365
4.7051819184123485,-1.226212378791647
4.738552002940096,-1.2105199328197362
4.771922087467843,-1.0734315298748465
4.80529217199559,-0.8371182572927861
4.838662256523337,-0.5273956381504901
4.872032341051084,-0.16949307935652214
4.905402425578831,0.20856780372945893
4.9387725101065785,0.5707845691365101
4.972142594634326,0.8735789073940665
5.005512679162073,1.0751315366853904
5.03888276368982,1.1501790075782135
5.072252848217567,1.1019989192568445
5.105622932745314,0.963788793561676
5.138993017273061,0.787162595701562
5.1723631018008085,0.6226094470272305
5.205733186328556,0.5011502119326325
5.239103270856303,0.4255734514311295
5.27247335538405,0.3742989102399877
5.305843439911797,0.3145098689102759
5.339213524439544,0.21744742595437497
5.372583608967291,0.06932848994816994
5.4059536934950385,-0.12499210986659533
5.439323778022786,-0.34460946742007886
5.472693862550533,-0.5585848928267697
5.50606394707828,-0.7331222694417521
5.539434031606027,-0.8391021042569538
5.572804116133774,-0.8597735764796837
5.606174200661521,-0.797454811512347
5.6395442851892685,-0.6764480251530203
5.672914369717016,-0.5388101729497154
5.706284454244763,-0.4315336936996767
5.73965453877251,-0.3879397004406915
5.773024623300257,-0.41063453059387234
5.806394707828004,-0.46520219114515715
5.839764792355751,-0.4907102000712275
5.873134876883499,-0.4255084811985488
5.906504961411246,-0.23815124566923876
5.939875045938993,0.051490622122749706
5.97324513046674,0.37318142148571765
6.006615214994487,0.6317731289492688
6.039985299522234,0.7471719428032657
6.073355384049981,0.6904083100594667
6.106725468577729,0.49799522321312095
6.140095553105476,0.25674426711710463
6.173465637633223,0.06573568074680722
6.20683572216097,-0.006386728992086574
6.240205806688717,0.05163741260991334
6.273575891216464,0.19472293770224752
6.3069459757442115,0.34839652883731925
6.340316060271959,0.44683307839478176
6.373686144799706,0.4625015036049542
6.407056229327454,0.4135371619429687
6.440426313855201,0.34730325209220164
6.473796398382948,0.31084772259917237
6.507166482910695,0.32472306418489083
6.540536567438442,0.37337639724840893
6.5739066519661895,0.41542073517976874
6.607276736493937,0.4063068670610764
6.640646821021684,0.32011896267632234
6.674016905549431,0.15926974474867392
6.707386990077178,-0.0509400353053989
6.740757074604925,-0.2768524554786792
6.774127159132672,-0.48965282106477054
6.8074972436604195,-0.669599299761919
6.840867328188167,-0.8013151301019347
6.874237412715914,-0.8672613399252139
6.907607497243661,-0.8479683786178185
6.940977581771408,-0.7322915720219517
6.974347666299155,-0.5324691494565237
7.007717750826902,-0.2930793747339871
7.0410878353546495,-0.08442340386966275
7.074457919882397,0.02089810490858844
7.107828004410144,-0.020826336752357084
7.141198088937891,-0.20056481821857342
7.174568173465638,-0.4530995551554726
7.207938257993385,-0.6777581825632126
7.241308342521132,-0.7753797632827898
7.27467842704888,-0.6856615716536031
7.308048511576627,-0.4089194397429299
7.341418596104374,-0.003775309223065799
7.374788680632121,0.4367216281059009
7.408158765159868,0.8190610463007987
7.441528849687615,1.0788857339838254
7.4748989342153624,1.1954987702531201
7.50826901874311,1.1882791774599697
7.541639103270857,1.0998433362621756
7.575009187798604,0.9752244211739941
7.608379272326351,0.8459900207814243
7.641749356854098,0.7240633614311658
7.675119441381845,0.604685119617575
7.7084895259095925,0.4742585472293645
7.74185961043734,0.31826592133456616
7.775229694965087,0.1265532662990528
7.808599779492834,-0.10388192000249831
7.841969864020581,-0.36693804552352105
7.875339948548328,-0.6452675736067626
7.908710033076075,-0.9089533623683771
7.9420801176038225,-1.1176421546799762
7.97545020213157,-1.228394360985755
8.008820286659317,-1.208785615621359
8.042190371187063,-1.051045394334934
8.075560455714811,-0.7805939398944659
8.108930540242557,-0.4532513727975945
8.142300624770305,-0.1398992637189187
8.175670709298052,0.09651755462418624
8.2090407938258,0.22235368122384963
8.242410878353546,0.2436593778987578
8.275780962881294,0.2009577897109073
8.30915104740904,0.15084358789476512
8.342521131936788,0.14269779588458767
8.375891216464534,0.20048944860172643
8.409261300992283,0.3165149723151196
8.442631385520029,0.4579651414409297
8.476001470047777,0.5817065017948616
8.509371554575523,0.6502917312369759
8.542741639103271,0.6435072995617434
8.57611172363102,0.5630516957121027
8.609481808158765,0.43075090480772776
8.642851892686513,0.2817084839047441
8.67622197721426,0.15359548428900308
8.709592061742008,0.07363414897388541
8.742962146269754,0.046598858881068524
8.776332230797502,0.04919418724829495
8.809702315325248,0.03599467781041991
8.843072399852996,-0.04192449717089143
8.876442484380743,-0.21144554437423066
8.90981256890849,-0.45670257749695836
8.943182653436237,-0.715557237719075
8.976552737963985,-0.8989154736784954
9.009922822491731,-0.9271649251462468
9.04329290701948,-0.7680354389039173
9.076662991547225,-0.4575916331131523
9.110033076074973,-0.09287056131107758
9.14340316060272,0.20241614018054932
9.176773245130468,0.32529615258838657
9.210143329658214,0.23442532517663942
9.243513414185962,-0.032089152741038074
9.276883498713708,-0.3686012319123683
9.310253583241456,-0.6385256113372317
9.343623667769203,-0.7218825119864094
9.37699375229695,-0.5570692857804384
9.410363836824697,-0.1629395873960243
9.443733921352445,0.3658359451409894
9.477104005880191,0.8884777079681574
9.51047409040794,1.2631601064779485
9.543844174935685,1.3925611019270825
9.577214259463434,1.254566752426591
9.61058434399118,0.9075476160451189
9.643954428518928,0.4683033339399674
9.677324513046674,0.07048906738043356
9.710694597574422,-0.18146529755822755
9.744064682102168,-0.24613634667563186
9.777434766629916,-0.1543604378425882
9.810804851157663,0.008848581305278833
9.84417493568541,0.1418755348603673
9.877545020213157,0.1681449159045931
9.910915104740905,0.06504692475974959
9.944285189268651,-0.13106524122812055
9.9776552737964,-0.3447507287817028
10.011025358324146,-0.49655077674773473
10.044395442851894,-0.5373316556519835
10.07776552737964,-0.46701751750438303
10.111135611907388,-0.33061503586504937
10.144505696435134,-0.1950847435426924
10.177875780962882,-0.11890729343058777
10.211245865490628,-0.1283488098846525
10.244615950018376,-0.20999270431691522
10.277986034546123,-0.32083848791042946
10.31135611907387,-0.4093948078784095
10.344726203601617,-0.43722164479705167
10.378096288129365,-0.39162528627549126
10.411466372657111,-0.2855003474581751
10.44483645718486,-0.1467282805191581
10.478206541712606,-0.0038986268543917037
10.511576626240354,0.12444497351050289
10.5449467107681,0.23296449154248686
10.578316795295848,0.3255372655106685
10.611686879823594,0.40788197596972775
10.645056964351342,0.48124343164601774
10.678427048879088,0.5398607278293874
10.711797133406836,0.5722973624695521
10.745167217934583,0.56482172104974
10.77853730246233,0.5048690587774466
10.811907386990077,0.3839333326272431
10.845277471517825,0.2006669830387784
10.878647556045571,-0.03502387216592431
10.91201764057332,-0.2979175556405953
10.945387725101066,-0.5467497426293777
10.978757809628814,-0.7305126886492888
11.01212789415656,-0.8025936594837684
11.045497978684308,-0.7385362991442503
11.078868063212054,-0.549311784934692
11.112238147739802,-0.28237991179431066
11.145608232267548,-0.008023425498341064
11.178978316795297,0.20431146722882532
11.212348401323043,0.3098756306044851
11.24571848585079,0.3028588180900595
11.279088570378537,0.2158774458668299
11.312458654906285,0.10600209375590933
11.345828739434031,0.03341375357882875
11.37919882396178,0.040295781300919896
11.412568908489526,0.13639679039297886
11.445938993017274,0.295400309348676
11.47930907754502,0.46368352195086415
11.512679162072768,0.5799384567039241
11.546049246600514,0.6000947828650683
11.579419331128262,0.518108837081836
11.612789415656009,0.3721830830169794
11.646159500183757,0.23035629227621487
11.679529584711503,0.15884438293156516
11.71289966923925,0.18679670985385555
11.746269753766997,0.2859617651283387
11.779639838294745,0.37871414912930185
11.813009922822491,0.3739839526362722
11.84638000735024,0.2147281920335568
11.879750091877986,-0.08798989113439784
11.913120176405734,-0.45432525432609433
11.94649026093348,-0.7713104273730524
11.979860345461228,-0.9474974847999257
12.013230429988974,-0.9575465046335095
12.046600514516722,-0.8521666484885074
12.079970599044469,-0.7275802285472145
12.113340683572217,-0.6712047680412875
12.146710768099963,-0.7134455446705428
12.180080852627711,-0.8117530955170437
12.213450937155457,-0.8748510050507935
12.246821021683205,-0.8130001488733797
12.280191106210951,-0.5867391993337603
12.3135611907387,-0.22864872025448904
12.346931275266446,0.17174854819466615
12.380301359794194,0.5100995891288669
12.41367144432194,0.7134237455432817
12.447041528849688,0.7674289277808567
12.480411613377434,0.7137238347427158
12.513781697905182,0.6219386454215083
12.547151782432929,0.5535693329918623
12.580521866960677,0.5361762727175738
12.613891951488423,0.5587010901734734
12.647262036016171,0.5864254305271221
12.680632120543917,0.5844163222072835
12.714002205071665,0.5359062167210447
12.747372289599411,0.4472020240915522
12.78074237412716,0.3395621611366021
12.814112458654908,0.23560311580301682
12.847482543182654,0.1493748605426599
12.880852627710402,0.0850857625853888
12.914222712238148,0.04280250551852797
12.947592796765896,0.02476804683658402
12.980962881293642,0.03615909384844568
13.01433296582139,0.07874747227302731
13.047703050349137,0.1417549530447819
13.081073134876885,0.19722109269151006
13.114443219404631,0.20532384382634083
13.147813303932379,0.1293487161519366
13.181183388460125,-0.04614041462519439
13.214553472987873,-0.30323150338654614
13.24792355751562,-0.5918306284293501
13.281293642043368,-0.8450616469111655
13.314663726571114,-1.002891490089264
13.348033811098862,-1.0336236889777441
13.381403895626608,-0.9434927411314546
13.414773980154356,-0.7700649135004918
13.448144064682102,-0.5629687291202677
13.48151414920985,-0.3617033599299736
13.514884233737597,-0.18158461886665261
13.548254318265345,-0.014481911095863158
13.581624402793091,0.1568547019646584
13.614994487320839,0.33925912306184886
13.648364571848585,0.5155784422801742
13.681734656376333,0.6452540725692971
13.71510474090408,0.6800196541211188
13.748474825431828,0.5878282450383455
13.781844909959574,0.37352578097381106
13.815214994487322,0.08571090838509143
13.848585079015068,-0.19481945407341836
13.881955163542816,-0.3815462338515459
13.915325248070562,-0.4136142597649054
13.94869533259831,-0.27983252996303093
13.982065417126057,-0.02558456764602224
14.015435501653805,0.26078894841648087
14.048805586181551,0.477914219727412
14.082175670709299,0.5469981560552544
14.115545755237045,0.439826032979599
14.148915839764793,0.18831424532104032
14.18228592429254,-0.12802918952643846
14.215656008820288,-0.4112934559498757
14.249026093348034,-0.578771703641371
14.282396177875782,-0.5877019669159852
14.315766262403528,-0.4430029095206078
14.349136346931276,-0.18818409040129352
14.382506431459023,0.1135533644546587
14.41587651598677,0.3989315002926066
14.449246600514517,0.6184778737614921
14.482616685042265,0.7428299872374468
14.515986769570011,0.7630517372346926
14.54935685409776,0.6874729041617305
14.582726938625505,0.5367527383245075
14.616097023153253,0.33798161744251987
14.649467107681,0.11864962551671193
14.682837192208748,-0.098091256241185
14.716207276736494,-0.295320312011545
14.749577361264242,-0.4608859009193199
14.782947445791988,-0.583901681098118
14.816317530319736,-0.6519034886170998
14.849687614847483,-0.6512163811011539
14.88305769937523,-0.5712932410204116
14.916427783902977,-0.4113909936054077
14.949797868430725,-0.18634913863934213
14.983167952958471,0.07176125573891254
15.01653803748622,0.3179074783620609
15.049908122013965,0.5039448403798884
15.083278206541713,0.591612061510865
15.11664829106946,0.5646613070038035
15.150018375597208,0.4355373771473361
15.183388460124954,0.24304094592688572
15.216758544652702,0.040298702598925554
15.250128629180448,-0.12356961857966778
15.283498713708196,-0.22121612949854907
15.316868798235943,-0.25655344393202817
15.35023888276369,-0.2611349918794743
15.383608967291437,-0.27833160635579945
15.416979051819185,-0.3421405100450084
15.450349136346931,-0.46037725842352073
15.48371922087468,-0.6100052338751953
15.517089305402425,-0.7462519247719862
15.550459389930174,-0.8202793738580239
15.58382947445792,-0.7964831276344042
15.617199558985668,-0.6620311765332598
15.650569643513414,-0.42672176738642226
15.683939728041162,-0.11686037962909031
15.717309812568908,0.2310211050103518
15.750679897096656,0.5732241096413186
15.784049981624403,0.8602040209166819
15.81742006615215,1.041042472389395
15.850790150679897,1.074928536421818
15.884160235207645,0.9480651909985925
15.917530319735391,0.6879970344419483
15.95090040426314,0.36487353310168913
15.984270488790886,0.07367877922203404
16.017640573318634,-0.0985086493446961
16.05101065784638,-0.10643531797089702
16.084380742374126,0.03483480765054316
16.117750826901876,0.2566791932663513
16.151120911429622,0.4658948792663436
16.18449099595737,0.581585450302416
16.217861080485115,0.5626051251183701
16.251231165012864,0.4147056676412682
16.28460124954061,0.1779944402381498
16.317971334068357,-0.09527652589610672
16.351341418596103,-0.36005611452514313
16.384711503123853,-0.586951218335818
16.4180815876516,-0.759521070964839
16.451451672179346,-0.8663377347479206
16.484821756707092,-0.8953926063871516
16.51819184123484,-0.835445014975699
16.551561925762588,-0.683590548517399
16.584932010290334,-0.45387085040383085
16.61830209481808,-0.18061095696740462
16.65167217934583,0.08711328156226075
16.685042263873576,0.29855871199609596
16.718412348401323,0.41643665412780645
16.75178243292907,0.42753412417510034
16.78515251745682,0.34485024162263317
16.818522601984565,0.2015575126939902
16.85189268651231,0.04039820087170696
16.885262771040058,-0.09724827493150034
16.918632855567807,-0.1800334143840645
16.952002940095554,-0.19246500407113107
16.9853730246233,-0.13798464781865133
17.018743109151046,-0.03858284721538468
17.052113193678796,0.07058552099599386
17.085483278206542,0.15222638155559204
17.11885336273429,0.18126024442999633
17.15222344726204,0.15684806456136047
17.185593531789785,0.10536142428305757
17.21896361631753,0.07047699699824495
17.252333700845277,0.09270910124018392
17.285703785373027,0.18694115264445926
17.319073869900773,0.32914136535104077
17.35244395442852,0.4603802838478294
17.385814038956266,0.5084980513046039
