Time (s),Filtered Signal
0.0,-0.08431032313849561
0.03337004405286344,-0.19681166069779937
0.06674008810572687,-0.3006187688705958
0.10011013215859031,-0.3883454897339163
0.13348017621145375,-0.4527782854571366
0.16685022026431717,-0.4864184153437437
0.20022026431718062,-0.4814521184815602
0.23359030837004408,-0.4310649887439708
0.2669603524229075,-0.3323626509987441
0.3003303964757709,-0.1899572260522744
0.33370044052863435,-0.01827872462523585
0.3670704845814978,0.1593289776099919
0.40044052863436125,0.31538881449738854
0.43381057268722467,0.4255994451769497
0.46718061674008815,0.47572940401515557
0.5005506607929515,0.4650332905504314
0.533920704845815,0.40473130060797546
0.5672907488986785,0.3125966453200687
0.6006607929515418,0.20662544931693433
0.6340308370044053,0.10092090277514562
0.6674008810572687,0.005205367377632521
0.7007709251101322,-0.07308803565241502
0.7341409691629956,-0.12675400999831526
0.767511013215859,-0.14901950745979825
0.8008810572687225,-0.1362530485748396
0.834251101321586,-0.09124976798857944
0.8676211453744493,-0.024386184633669556
0.9009911894273128,0.048876873329779476
0.9343612334801763,0.11332457415698077
0.9677312775330397,0.15942304489921175
1.001101321585903,0.18591358145805056
1.0344713656387665,0.1982211344294288
1.06784140969163,0.20372686811541915
1.1012114537444935,0.2066911131435783
1.134581497797357,0.20571290808937745
1.1679515418502202,0.19508601719928478
1.2013215859030837,0.16914680759860495
1.2346916299559472,0.12692314197677979
1.2680616740088106,0.0740296438642901
1.3014317180616741,0.02009870965649476
1.3348017621145374,-0.027416419720962593
1.3681718061674009,-0.0696766728588381
1.4015418502202643,-0.11867512793151792
1.4349118942731278,-0.19227007392727513
1.4682819383259913,-0.30291514849738543
1.5016519823788548,-0.4453929962390232
1.535022026431718,-0.5911317591878598
1.5683920704845815,-0.6947206082143738
1.601762114537445,-0.7122129435139567
1.6351321585903085,-0.6235973018614982
1.668502202643172,-0.4477013842975606
1.7018722466960352,-0.2398964238409987
1.7352422907488987,-0.07103166985151466
1.7686123348017622,0.0039061755700865396
1.8019823788546256,-0.027544499941169434
1.8353524229074891,-0.12717170103731235
1.8687224669603526,-0.22172614907539903
1.9020925110132159,-0.2358718418749934
1.9354625550660793,-0.12714364809653203
1.9688325991189428,0.09370540948530537
2.002202643171806,0.36661380489045176
2.0355726872246698,0.6082756167938558
2.068942731277533,0.7477018319406673
2.1023127753303967,0.7545843337317845
2.13568281938326,0.6480811855793608
2.1690528634361232,0.4837204432613836
2.202422907488987,0.3265299609401123
2.23579295154185,0.22404490056408072
2.269162995594714,0.1912706053121783
2.302533039647577,0.2125173807503224
2.3359030837004404,0.25636722219152247
2.369273127753304,0.2942320297543668
2.4026431718061674,0.31254923246884875
2.436013215859031,0.31334336505314453
2.4693832599118943,0.3048766959732266
2.5027533039647576,0.2895894676418512
2.5361233480176213,0.2575871282221312
2.5694933920704845,0.19014807227380703
2.6028634361233483,0.07141265278660043
2.6362334801762115,-0.0987048538718258
2.6696035242290748,-0.29831578415637755
2.7029735682819385,-0.48837854749561976
2.7363436123348017,-0.6268366180796042
2.7697136563876654,-0.6853973763653064
2.8030837004405287,-0.6609618012813424
2.8364537444933924,-0.5764760102242479
2.8698237885462556,-0.47108450271743724
2.903193832599119,-0.38424439746911737
2.9365638766519826,-0.3407518415497203
2.969933920704846,-0.3427124172254337
3.0033039647577096,-0.37112291407393816
3.036674008810573,-0.3955887502574354
3.070044052863436,-0.38754047617191556
3.1034140969162998,-0.33131691537425956
3.136784140969163,-0.22888809075791558
3.1701541850220267,-0.09706156332457953
3.20352422907489,0.04066126974245596
3.2368942731277532,0.16334911470732774
3.270264317180617,0.25889725738840375
3.30363436123348,0.3252091891459057
3.337004405286344,0.36700270576531213
3.370374449339207,0.39084320175479464
3.4037444933920704,0.4011385815390482
3.437114537444934,0.39849652391993784
3.4704845814977974,0.38025539479580955
3.503854625550661,0.34228685904693634
3.5372246696035243,0.28149302548271976
3.5705947136563876,0.19892724390215955
3.6039647577092513,0.10316350197582044
3.6373348017621145,0.012363252509783913
3.6707048458149782,-0.04743265168463098
3.7040748898678415,-0.04950012719597489
3.737444933920705,0.02197699600824807
3.7708149779735685,0.1605142016378166
3.8041850220264317,0.3325303802398048
3.8375550660792954,0.4838509368423804
3.8709251101321587,0.5571983211355968
3.9042951541850224,0.5143964863571846
3.9376651982378856,0.3534510032829895
3.971035242290749,0.11189022607451747
4.004405286343612,-0.14633460985913782
4.037775330396476,-0.35528075655180924
4.0711453744493395,-0.4720349311995252
4.104515418502203,-0.49119056726737187
4.137885462555066,-0.4427322623183077
4.171255506607929,-0.3751383638009876
4.2046255506607935,-0.3321413399080983
4.237995594713657,-0.3338835527535642
4.27136563876652,-0.3704357196506501
4.304735682819383,-0.4095044673186566
4.3381057268722465,-0.41369953459748016
4.371475770925111,-0.3588450346403721
4.404845814977974,-0.244992518893906
4.438215859030837,-0.09566450058951474
4.4715859030837,0.053472173496830054
4.504955947136564,0.17044770169048737
4.538325991189428,0.23951358035980375
4.571696035242291,0.2646784345452668
4.605066079295154,0.2635456936056839
4.638436123348018,0.2557989692531424
4.671806167400881,0.2530277292786766
4.705176211453745,0.25503848858583117
4.738546255506608,0.2535336737901336
4.7719162995594715,0.23978657317525387
4.805286343612335,0.21116408658145805
4.838656387665198,0.17276253200839262
4.872026431718062,0.13377048570185157
4.905396475770925,0.10127373870857456
4.938766519823789,0.07538492260853244
4.972136563876652,0.048480782566528186
5.005506607929515,0.008893932445497925
5.038876651982379,-0.05291874797515872
5.072246696035243,-0.13879129381084362
5.105616740088106,-0.24041940606944065
5.138986784140969,-0.34106976783472875
5.172356828193832,-0.4206067902524976
5.2057268722466965,-0.4617909524334239
5.23909691629956,-0.4555105305099272
5.272466960352423,-0.40313806706911126
5.305837004405286,-0.31523127089808756
5.3392070484581495,-0.20704399268680374
5.372577092511014,-0.09254762640626787
5.405947136563877,0.020476474687879668
5.43931718061674,0.13177279113580742
5.4726872246696034,0.24524514018990412
5.506057268722468,0.362152808192832
5.539427312775331,0.4744260133908753
5.572797356828194,0.5623913918601476
5.606167400881057,0.5995410339248619
5.639537444933921,0.5634222392824254
5.672907488986785,0.44801217306023494
5.706277533039648,0.27119223832264333
5.739647577092511,0.07245154202155007
5.7730176211453745,-0.09964898842633338
5.806387665198238,-0.20548449057020052
5.839757709251102,-0.2297842975505742
5.873127753303965,-0.1870427468304754
5.9064977973568284,-0.11406766876073209
5.939867841409692,-0.053065426528550015
5.973237885462555,-0.03329831187504909
6.006607929515419,-0.05986098649108253
6.039977973568282,-0.11429023500479539
6.073348017621146,-0.16574026092984778
6.106718061674009,-0.18657083898183816
6.140088105726872,-0.1647798455307832
6.173458149779736,-0.1080403474137459
6.2068281938325995,-0.03853089856327733
6.240198237885463,0.01806976809693449
6.273568281938326,0.04388644544304081
6.306938325991189,0.03536342041958893
6.3403083700440535,0.002503253884262583
6.373678414096917,-0.03810334455955177
6.40704845814978,-0.07241133045726009
6.440418502202643,-0.09520921214136588
6.4737885462555065,-0.11023640372975459
6.507158590308371,-0.12441158580459
6.540528634361234,-0.14002324233196264
6.573898678414097,-0.15011393369019038
6.60726872246696,-0.14049654705805825
6.640638766519824,-0.09779994561501117
6.674008810572688,-0.01903479365983988
6.707378854625551,0.08318160845575734
6.740748898678414,0.18344146305179954
6.774118942731278,0.25358032553848164
6.807488986784141,0.2748528382384138
6.840859030837005,0.24575120879486903
6.874229074889868,0.18130039094369918
6.9075991189427315,0.10444991452288101
6.940969162995595,0.03462857327580575
6.974339207048458,-0.020006661984927027
7.007709251101322,-0.06252425370064399
7.041079295154185,-0.10016795829075849
7.074449339207049,-0.13546848468011716
7.107819383259912,-0.16176555565879816
7.141189427312775,-0.16643844619870984
7.174559471365639,-0.14000395418837555
7.207929515418503,-0.08520913898012678
7.241299559471366,-0.019922223691670942
7.274669603524229,0.02878323796383534
7.308039647577092,0.03672031148837852
7.3414096916299565,-0.005437190321796985
7.37477973568282,-0.08657701729578209
7.408149779735683,-0.17875028252615738
7.441519823788546,-0.2479341106047452
7.47488986784141,-0.26652958212868605
7.508259911894274,-0.22184189153396525
7.541629955947137,-0.11744098536941047
7.575,0.03170600178756302
7.608370044052863,0.2063281080753328
7.641740088105728,0.387615946931103
7.675110132158591,0.5573879355631516
7.708480176211454,0.6951362508522914
7.741850220264317,0.7762500667785969
7.775220264317181,0.7755272232917325
7.808590308370045,0.676604084204445
7.841960352422908,0.4831744197087548
7.875330396475771,0.22508199271184587
7.9087004405286345,-0.04615015632764367
7.942070484581498,-0.2724860215415971
7.975440528634362,-0.4093207681505712
8.008810572687224,-0.4412084634124477
8.042180616740088,-0.38616790553922886
8.075550660792953,-0.2869273263710374
8.108920704845815,-0.1935939575076896
8.142290748898679,-0.14565289918426477
8.175660792951541,-0.1604691384590137
8.209030837004406,-0.2315399690535193
8.24240088105727,-0.33509800869384293
8.275770925110132,-0.44069398497329637
8.309140969162996,-0.5211167723567761
8.342511013215859,-0.5588022326199354
8.375881057268723,-0.5481773759470983
8.409251101321587,-0.49482016983841115
8.44262114537445,-0.4125145566429089
8.475991189427313,-0.318856655898652
8.509361233480176,-0.22993417036896313
8.54273127753304,-0.15514868362399845
8.576101321585904,-0.09400244438297484
8.609471365638766,-0.03667172130277002
8.64284140969163,0.031140914714102467
8.676211453744493,0.1207933865782646
8.709581497797357,0.2341944506339
8.742951541850221,0.3616208088805443
8.776321585903084,0.4851861216962712
8.809691629955948,0.5862438230300908
8.84306167400881,0.6528324614279976
8.876431718061674,0.6832949081341156
8.909801762114538,0.6844072172385531
8.9431718061674,0.6654290654202402
8.976541850220265,0.631667109979571
9.009911894273127,0.5812500039093758
9.043281938325991,0.506894744883444
9.076651982378856,0.40164485231526764
9.110022026431718,0.2654065045399166
9.143392070484582,0.10866573179046336
9.176762114537445,-0.0488277859731918
9.210132158590309,-0.1841244795412015
9.243502202643173,-0.27921707504202875
9.276872246696035,-0.3274752012948876
9.3102422907489,-0.3353305716103325
9.343612334801762,-0.31849219888226094
9.376982378854626,-0.2947275305962337
9.41035242290749,-0.2769388784421678
9.443722466960352,-0.269885957038669
9.477092511013216,-0.2716357125771994
9.510462555066079,-0.2780410385144941
9.543832599118943,-0.28701390526895687
9.577202643171807,-0.30000676209228877
9.61057268722467,-0.32037766378457605
9.643942731277534,-0.3504771115178134
9.677312775330396,-0.38976507571593816
9.71068281938326,-0.4348147300949627
9.744052863436124,-0.4800453271349261
9.777422907488987,-0.5173332783231872
9.81079295154185,-0.5340886080806843
9.844162995594713,-0.5118655607524413
9.877533039647577,-0.4288304962512206
9.910903083700441,-0.267797827946483
9.944273127753304,-0.02757986557682481
9.977643171806168,0.2683038010850482
10.01101321585903,0.5719880336114688
10.044383259911895,0.8233210092933093
10.077753303964759,0.97000941898571
10.111123348017621,0.987241189263209
10.144493392070485,0.8875103036281324
10.177863436123348,0.7155866992884299
10.211233480176212,0.5304678674496173
10.244603524229076,0.3821738720751155
10.277973568281938,0.29348910264718225
10.311343612334802,0.25428497498257596
10.344713656387665,0.23019628060052758
10.378083700440529,0.1809922228485703
10.411453744493393,0.07996612366481433
10.444823788546255,-0.07417935272743591
10.47819383259912,-0.25744859081730165
10.511563876651982,-0.4314260339765546
10.544933920704846,-0.5590641269430052
10.57830396475771,-0.618154773717955
10.611674008810573,-0.6073286642495971
10.645044052863437,-0.5434757090032034
10.678414096916299,-0.45326157271295925
10.711784140969163,-0.36321764966973324
10.745154185022027,-0.2923010321310047
10.77852422907489,-0.24870009681587138
10.811894273127754,-0.23039917638833676
10.845264317180618,-0.22774928044481288
10.87863436123348,-0.22637946099978354
10.912004405286345,-0.20977252641194066
10.945374449339207,-0.16184460252134816
10.978744493392071,-0.07017694222124647
11.012114537444935,0.07002645453571954
11.045484581497798,0.25221412902868606
11.078854625550662,0.4567216471598144
11.112224669603524,0.6526124701337377
11.145594713656388,0.8037101184667064
11.178964757709252,0.8777251224519759
11.212334801762115,0.8557937571807162
11.245704845814979,0.7390437586000581
11.279074889867841,0.5494931641796144
11.312444933920705,0.32455616123320186
11.34581497797357,0.10685306437227242
11.379185022026432,-0.06724376634876207
11.412555066079296,-0.17663391636198575
11.445925110132158,-0.21955352434718453
11.479295154185023,-0.21200738999220906
11.512665198237887,-0.181605644721028
11.546035242290749,-0.15895078588096706
11.579405286343613,-0.16915786452802542
11.612775330396476,-0.22586742707872365
11.64614537444934,-0.32918136253334446
11.679515418502204,-0.4674393543581464
11.712885462555066,-0.6212318147901836
11.74625550660793,-0.7673927496027118
11.779625550660793,-0.881478475469404
11.812995594713657,-0.9390190764416119
11.846365638766521,-0.9173574021526362
11.879735682819383,-0.7998729553048765
11.913105726872248,-0.5825490843133864
11.94647577092511,-0.2802956878142339
11.979845814977974,0.07097402912002188
12.013215859030838,0.4195045732722898
12.0465859030837,0.7098837458613402
12.079955947136565,0.8983448873783588
12.113325991189427,0.9652390599535223
12.146696035242291,0.9195955489431893
12.180066079295155,0.7940535838275781
12.213436123348018,0.6325430124665491
12.246806167400882,0.47586786624080946
12.280176211453744,0.3506224562653757
12.313546255506608,0.264844206441918
12.346916299559473,0.2107298394050909
12.380286343612335,0.1720812582129674
12.413656387665199,0.13286294473130145
12.447026431718061,0.08353521003014658
12.480396475770926,0.023268185544323455
12.51376651982379,-0.04196085915980622
12.547136563876652,-0.10376266554107921
12.580506607929516,-0.15582438563575063
12.613876651982379,-0.19640778503414802
12.647246696035243,-0.22798849409343222
12.680616740088107,-0.25468189492389315
12.71398678414097,-0.2791514449763086
12.747356828193833,-0.30075660765557294
12.780726872246696,-0.3158121168138781
12.81409691629956,-0.3195898222183408
12.847466960352424,-0.3088409718845405
12.880837004405286,-0.2835490013731483
12.91420704845815,-0.24719502224667514
12.947577092511013,-0.20556314493784758
12.980947136563877,-0.16464062799353138
13.014317180616741,-0.12837627084145303
13.047687224669604,-0.09703905957410026
13.081057268722468,-0.06674665799670998
13.11442731277533,-0.030415274801500122
13.147797356828194,0.020050479931338103
13.181167400881058,0.09091856652335589
13.21453744493392,0.18393515311587474
13.247907488986785,0.2944805463381091
13.281277533039647,0.4109888144282735
13.314647577092511,0.5157517038544689
13.348017621145376,0.5871104273303204
13.381387665198238,0.6030883744526815
13.414757709251102,0.5464686400796096
13.448127753303964,0.41080617454066215
13.481497797356829,0.20580817454058056
13.514867841409693,-0.04053094520362491
13.548237885462555,-0.2856563174977082
13.58160792951542,-0.48283948844023244
13.614977973568282,-0.5957356784366162
13.648348017621146,-0.6115349082502232
13.68171806167401,-0.546355369021909
13.715088105726872,-0.4391516221371315
13.748458149779736,-0.3355574107429699
13.781828193832599,-0.2682473413782901
13.815198237885463,-0.2428169058041387
13.848568281938327,-0.236313079215658
13.88193832599119,-0.2099334976237841
13.915308370044054,-0.1305242711448415
13.948678414096916,0.009292224736866325
13.98204845814978,0.18260139870966333
14.015418502202644,0.3364436643863054
14.048788546255507,0.4139574008017373
14.08215859030837,0.3805456858952033
14.115528634361233,0.24182405553195277
14.148898678414097,0.04467801702396152
14.182268722466961,-0.13947627607689708
14.215638766519824,-0.24201515103201035
14.249008810572688,-0.2231933362224293
14.28237885462555,-0.08606624086304557
14.315748898678414,0.1269481719155011
14.349118942731279,0.35232019708206613
14.382488986784141,0.529767274169395
14.415859030837005,0.6221836522982157
14.449229074889868,0.6236767504451849
14.482599118942732,0.5543766612357811
14.515969162995596,0.4466214535650023
14.549339207048458,0.33002154041861353
14.582709251101322,0.22182862285633861
14.616079295154185,0.1252089419680475
14.649449339207049,0.03387302673792903
14.682819383259913,-0.06083252983855285
14.716189427312775,-0.16408843421766833
14.74955947136564,-0.27484652475023946
14.782929515418502,-0.3859391705230409
14.816299559471366,-0.4858597162761044
14.84966960352423,-0.5612442694934122
14.883039647577093,-0.5997415216384482
14.916409691629957,-0.5931694999246144
14.94977973568282,-0.540412962027368
14.983149779735683,-0.44895482099232653
15.016519823788547,-0.3339853668916327
15.04988986784141,-0.21492557007501947
15.083259911894274,-0.11044586790515176
15.116629955947138,-0.03381400551440744
15.15,0.009872742418359195
15.183370044052865,0.024096928037475093
15.216740088105727,0.01954071765465414
15.250110132158591,0.011737654392614582
15.283480176211455,0.01805460390905644
15.316850220264318,0.05378478803910459
15.350220264317182,0.12743199405038885
15.383590308370044,0.23639032583574104
15.416960352422908,0.36523833531503197
15.450330396475772,0.4886103528652053
15.483700440528635,0.5786925859405838
15.517070484581499,0.6146851943237922
15.550440528634361,0.5897868771297788
15.583810572687225,0.5118702523666777
15.61718061674009,0.3971629709188586
15.650550660792952,0.260360923006759
15.683920704845816,0.10715049755122678
15.717290748898678,-0.06580532748736961
15.750660792951543,-0.26264943312830014
15.784030837004407,-0.47643183401085104
15.817400881057269,-0.6811623771323354
15.850770925110133,-0.8341353203284977
15.884140969162996,-0.8895370961494086
15.91751101321586,-0.8178800063870749
15.950881057268724,-0.6218400430020473
15.984251101321586,-0.3399996768327138
16.01762114537445,-0.03554129883755594
16.050991189427315,0.22570742151967027
16.084361233480177,0.39816958456791807
16.11773127753304,0.47020361353720364
16.151101321585905,0.46303632162254865
16.184471365638768,0.4165695477351999
16.21784140969163,0.3696328617876233
16.251211453744492,0.3440661154696502
16.284581497797358,0.33914260891890813
16.31795154185022,0.3372026178005567
16.351321585903083,0.31607662861333696
16.38469162995595,0.2614792434431286
16.41806167400881,0.17376256632697443
16.451431718061674,0.06702524772063105
16.48480176211454,-0.0376011125294521
16.518171806167402,-0.12048124657155251
16.551541850220264,-0.1699268205081816
16.584911894273127,-0.18447867726227996
16.618281938325993,-0.17117069389391412
16.651651982378855,-0.1414823787995682
16.685022026431717,-0.10707653486709652
16.718392070484583,-0.07681362022284495
16.751762114537446,-0.0554909684180929
16.785132158590308,-0.04387930050602127
16.818502202643174,-0.03932971525394737
16.851872246696036,-0.036555206517831944
16.8852422907489,-0.028814573686105825
16.91861233480176,-0.010074779864948022
16.951982378854627,0.02165409928666242
16.98535242290749,0.06070388646545738
17.01872246696035,0.09189583244360121
17.052092511013218,0.09272832872631737
17.08546255506608,0.04053737427593565
17.118832599118942,-0.07707532649712326
17.152202643171808,-0.2528437348989601
17.18557268722467,-0.45659609896197134
17.218942731277533,-0.6413657792311186
17.2523127753304,-0.7578680330199924
