Frequency (Hz),Amplitude
0.0,2.457636349954158
0.019801980198019802,2.456653886198842
0.039603960396039604,2.4537080007747334
0.0594059405940594,2.4488032141080396
0.07920792079207921,2.4419470699712766
0.09900990099009901,2.433150150287842
0.1188118811881188,2.4224260962850175
0.13861386138613863,2.4097916364323106
0.15841584158415842,2.3952666217411154
0.1782178217821782,2.3788740691525283
0.19801980198019803,2.360640213904911
0.21782178217821782,2.3405945719550454
0.2376237623762376,2.3187700137299063
0.25742574257425743,2.2952028507134328
0.27722772277227725,2.2699329366286576
0.297029702970297,2.243003785264066
0.31683168316831684,2.2144627073178578
0.33663366336633666,2.184360968999653
0.3564356435643564,2.1527539755385896
0.37623762376237624,2.119701483202662
0.39603960396039606,2.0852678439361534
0.4158415841584158,2.0495222872672407
0.43564356435643564,2.012539244716753
0.45544554455445546,1.9743987225352364
0.4752475247524752,1.9351867291778049
0.495049504950495,1.8949957644463125
0.5148514851485149,1.8539253776101976
0.5346534653465347,1.8120828019447823
0.5544554455445545,1.7695836728301881
0.5742574257425742,1.7265528355894058
0.594059405940594,1.6831252472644587
0.613861386138614,1.6394469730554742
0.6336633663366337,1.595676272532554
0.6534653465346534,1.551984762128409
0.6732673267326733,1.5085586277677407
0.6930693069306931,1.4655998435277937
0.7128712871287128,1.4233273275897704
0.7326732673267327,1.3819779341991572
0.7524752475247525,1.3418071392437445
0.7722772277227723,1.3030892280555952
0.7920792079207921,1.2661167403039235
0.8118811881188118,1.2311988755118224
0.8316831683168316,1.1986585265279244
0.8514851485148516,1.168827606505243
0.8712871287128713,1.1420403925241285
0.891089108910891,1.1186247519702988
0.9108910891089109,1.0988913635810906
0.9306930693069307,1.083121388172309
0.9504950495049505,1.071553441228637
0.9702970297029703,1.064371083899599
0.99009900990099,1.0616922636495005
1.00990099009901,1.0635620920693676
1.0297029702970297,1.0699499961425991
1.0495049504950495,1.0807516700891255
1.0693069306930694,1.0957955333668525
1.0891089108910892,1.114852756757359
1.108910891089109,1.1376495118124363
1.1287128712871286,1.1638799985657866
1.1485148514851484,1.193218979742123
1.1683168316831685,1.2253328951715585
1.188118811881188,1.25988902887021
1.2079207920792079,1.296562559016568
1.227722772277228,1.3350415864354184
1.2475247524752475,1.3750303986025103
1.2673267326732673,1.4162512979184243
1.2871287128712872,1.458445330374476
1.3069306930693068,1.5013722193663803
1.3267326732673268,1.5448097597997428
1.3465346534653466,1.58855287368957
1.3663366336633662,1.6324124782564688
1.3861386138613863,1.6762142748457876
1.405940594059406,1.7197975328841921
1.4257425742574257,1.7630139170637542
1.4455445544554455,1.805726386839196
1.4653465346534653,1.8478081837791291
1.4851485148514851,1.8891419130380895
1.504950495049505,1.9296187191109828
1.5247524752475248,1.9691375522091696
1.5445544554455446,2.007604519376678
1.5643564356435644,2.0449323133383968
1.5841584158415842,2.0810397116700408
1.6039603960396038,2.115851138941598
1.6237623762376237,2.1492962848284085
1.6435643564356437,2.181309771683831
1.6633663366336633,2.2118308656414722
1.683168316831683,2.240803225910341
1.7029702970297032,2.268174687509328
1.7227722772277227,2.2938970732392985
1.7425742574257426,2.317926031200877
1.7623762376237624,2.340220894630553
1.782178217821782,2.3607445612450664
1.801980198019802,2.3794633896579542
1.8217821782178218,2.3963471107638132
1.8415841584158414,2.4113687522811706
1.8613861386138615,2.4245045749060323
1.881188118811881,2.4357340187610714
1.900990099009901,2.4450396590325774
1.920792079207921,2.4524071698732492
1.9405940594059405,2.4578252958169426
1.9603960396039604,2.461285830104606
1.98019801980198,2.46278359946208
2.0,2.462316455002609
2.01980198019802,2.4598852690528714
2.0396039603960396,2.4554939378230776
2.0594059405940595,2.449149389961787
2.0792079207920793,2.4408616011570814
2.099009900990099,2.4306436150694126
2.118811881188119,2.418511571011038
2.1386138613861387,2.404484738924048
2.1584158415841586,2.38858556235692
2.1782178217821784,2.370839710300947
2.1980198019801978,2.351276138925353
2.217821782178218,2.32992716444753
2.237623762376238,2.306828548595221
2.257425742574257,2.2820195983647804
2.2772277227722775,2.255543282057749
2.297029702970297,2.2274463638902704
2.3168316831683167,2.1977795598203924
2.336633663366337,2.166597717629717
2.3564356435643563,2.1339600247300416
2.376237623762376,2.0999302476423796
2.3960396039603964,2.0645770076112453
2.4158415841584158,2.027974097362227
2.4356435643564356,1.9902008445687558
2.455445544554456,1.951342528134542
2.4752475247524752,1.911490853875165
2.495049504950495,1.8707444965214515
2.514851485148515,1.8292097150601578
2.5346534653465347,1.787001048112871
2.5544554455445545,1.7442420951012587
2.5742574257425743,1.7010663870321248
2.594059405940594,1.6576183474118162
2.6138613861386135,1.6140543384667887
2.633663366336634,1.5705437797235493
2.6534653465346536,1.5272703141073218
2.673267326732673,1.484432979897548
2.6930693069306932,1.4422473238787297
2.712871287128713,1.4009463607127741
2.7326732673267324,1.3607812453104147
2.7524752475247527,1.322021479364354
2.7722772277227725,1.2849544230047922
2.792079207920792,1.2498838340854805
2.811881188118812,1.2171271222444104
2.8316831683168315,1.1870109998936953
2.8514851485148514,1.1598652602658093
2.8712871287128716,1.1360145376810387
2.891089108910891,1.1157681246563407
2.910891089108911,1.0994082323068222
2.9306930693069306,1.0871774496781943
2.9504950495049505,1.0792665093135951
2.9702970297029703,1.07580369534446
2.99009900990099,1.0768472326865286
3.00990099009901,1.0823817147217518
3.0297029702970297,1.0923190913607106
3.0495049504950495,1.106504070048401
3.0693069306930694,1.124723151434132
3.089108910891089,1.1467160862115813
3.108910891089109,1.1721883831834774
3.128712871287129,1.2008236097068163
3.148514851485148,1.2322945212770309
3.1683168316831685,1.26627242752089
3.1881188118811883,1.302434552758695
3.2079207920792077,1.3404694230071432
3.227722772277228,1.380080488563973
3.2475247524752473,1.4209882802248124
3.267326732673267,1.4629314193031189
3.2871287128712874,1.5056667810976936
3.3069306930693068,1.5489690687841344
3.3267326732673266,1.592630004545231
3.346534653465347,1.6364572960990174
3.366336633663366,1.6802734942460393
3.386138613861386,1.7239148223157092
3.4059405940594063,1.7672300313974787
3.4257425742574257,1.8100793150910754
3.4455445544554455,1.8523333029836822
3.4653465346534653,1.893872141937037
3.485148514851485,1.9345846674600928
3.504950495049505,1.9743676630618696
3.5247524752475248,2.0131252028247184
3.5445544554455446,2.0507680709822753
3.564356435643564,2.087213251638496
3.5841584158415842,2.1223834816452363
3.603960396039604,2.156206859867173
3.6237623762376234,2.1886165064692498
3.6435643564356437,2.219550266370028
3.6633663366336635,2.24895045155445
3.683168316831683,2.2767636174921493
3.702970297029703,2.302940369439449
3.722772277227723,2.3274351949010215
3.7425742574257423,2.3502063189844287
3.762376237623762,2.3712155797952983
3.7821782178217824,2.390428321393506
3.801980198019802,2.4078133021637793
3.8217821782178216,2.4233426167506087
3.841584158415842,2.4369916299715837
3.8613861386138613,2.4487389213581428
3.881188118811881,2.4585662391830274
3.9009900990099013,2.466458463022084
3.9207920792079207,2.47240357406855
3.9405940594059405,2.4763926325732433
3.96039603960396,2.478419761927348
3.98019801980198,2.4784821390383858
4.0,2.476579990776764
4.01980198019802,2.4727165963931217
4.03960396039604,2.4668982959268373
4.0594059405940595,2.459134504746989
4.079207920792079,2.449437734489967
4.099009900990099,2.4378236207859665
4.118811881188119,2.424310958301561
4.138613861386139,2.4089217437704677
4.158415841584159,2.3916812278414157
4.178217821782178,2.3726179767445212
4.198019801980198,2.3517639449674483
4.217821782178218,2.329154560344299
4.237623762376238,2.3048288231958813
4.257425742574258,2.2788294214236284
4.2772277227722775,2.251202863753769
4.297029702970297,2.2219996336566363
4.316831683168317,2.1912743668296786
4.336633663366336,2.159086055533158
4.356435643564357,2.125498283502715
4.376237623762377,2.090579495627977
4.3960396039603955,2.0544033070709298
4.415841584158416,2.0170488569828864
4.435643564356436,1.9786012124343813
4.455445544554455,1.9391518285504656
4.475247524752476,1.8987990710723612
4.4950495049504955,1.8576488075391544
4.514851485148514,1.8158150728466853
4.534653465346535,1.7734208138771932
4.554455445544555,1.7305987159017648
4.574257425742574,1.6874921101274176
4.594059405940594,1.6442559565488901
4.613861386138614,1.601057888473269
4.633663366336633,1.5580792938533639
4.653465346534653,1.5155163928941353
4.673267326732674,1.4735812502349062
4.693069306930693,1.4325026324453796
4.712871287128713,1.3925265871863677
4.732673267326733,1.3539165798355204
4.752475247524752,1.31695297926401
4.772277227722772,1.2819316424239495
4.792079207920793,1.2491613173344682
4.811881188118812,1.218959580739822
4.8316831683168315,1.1916470692885246
4.851485148514852,1.1675398718765144
4.871287128712871,1.14694014060565
4.891089108910891,1.130125247666981
4.910891089108912,1.1173361375254551
4.930693069306931,1.108765837212944
4.9504950495049505,1.1045493050210657
4.97029702970297,1.1047558296097446
4.99009900990099,1.109384982090926
5.00990099009901,1.1183666856775054
5.02970297029703,1.1315653911942194
5.0495049504950495,1.1487877735711387
5.069306930693069,1.1697929345975475
5.089108910891089,1.1943038978804945
5.108910891089109,1.222019222505816
5.128712871287129,1.2526237847547226
5.148514851485149,1.285798092082815
5.1683168316831685,1.3212258139688482
5.188118811881188,1.3585994807771895
5.207920792079208,1.3976244879389148
5.227722772277227,1.4380216484447998
5.247524752475248,1.4795285770222895
5.267326732673268,1.5219001847700189
5.2871287128712865,1.5649085323970024
5.306930693069307,1.6083422481252265
5.326732673267327,1.6520056724192267
5.346534653465346,1.6957178515000133
5.366336633663367,1.7393114675831234
5.3861386138613865,1.7826317665557068
5.405940594059405,1.825535522931545
5.425742574257426,1.8678900664777864
5.445544554455446,1.9095723838456806
5.465346534653465,1.9504683008702468
5.485148514851486,1.990471746079275
5.504950495049505,2.0294840926811806
5.524752475247524,2.0674135743475976
5.544554455445545,2.1041747690671113
5.564356435643565,2.139688144922702
5.584158415841584,2.173879661624777
5.603960396039604,2.2066804218616336
5.623762376237624,2.238026366906546
5.643564356435643,2.26785801137308
5.663366336633663,2.2961202124921427
5.683168316831684,2.3227619697646307
5.702970297029703,2.3477362513048736
5.7227722772277225,2.3709998436214814
5.742574257425743,2.3925132219793737
5.762376237623762,2.4122404388474883
5.782178217821782,2.430149028262374
5.801980198019803,2.4462099242301636
5.821782178217822,2.460397391551212
5.841584158415841,2.4726889676860684
5.861386138613861,2.4830654144919446
5.881188118811881,2.491510678848108
5.900990099009901,2.4980118613603035
5.920792079207921,2.5025591924911903
5.9405940594059405,2.505146015608074
5.96039603960396,2.5057687765746905
5.98019801980198,2.504427019641312
6.0,2.501123389511069
6.01980198019802,2.495863639580724
6.03960396039604,2.4886566464745643
6.0594059405940595,2.4795144311123396
6.079207920792079,2.4684521866780953
6.099009900990099,2.4554883139892962
6.118811881188119,2.4406444649064762
6.138613861386139,2.4239455945754314
6.158415841584159,2.405420023459134
6.178217821782178,2.385099510297661
6.198019801980198,2.363019337334101
6.217821782178218,2.3392184093652024
6.237623762376237,2.313739368420215
6.257425742574258,2.2866287261418914
6.2772277227722775,2.257937016241834
6.297029702970296,2.2277189697289677
6.316831683168317,2.196033715964015
6.336633663366337,2.162945012970917
6.356435643564356,2.1285215108311673
6.376237623762377,2.092837052386219
6.396039603960396,2.0559710158551856
6.415841584158415,2.0180087043077557
6.435643564356436,1.9790417871658863
6.455445544554456,1.9391687989704633
6.475247524752475,1.8984957004364562
6.495049504950495,1.8571365061856953
6.514851485148515,1.81521398228703
6.534653465346534,1.7728604145729594
6.554455445544554,1.730218445272749
6.574257425742575,1.6874419703281696
6.594059405940594,1.644697082242956
6.6138613861386135,1.6021630327459595
6.633663366336634,1.5600331751223433
6.653465346534653,1.5185158269907064
6.673267326732673,1.4778349699619113
6.693069306930694,1.4382306728804417
6.712871287128713,1.3999590910709423
6.732673267326732,1.3632918576983937
6.752475247524753,1.3285146500101503
6.772277227722772,1.2959246911927937
6.792079207920792,1.2658269499123618
6.811881188118813,1.2385288394495655
6.8316831683168315,1.214333312320209
6.851485148514851,1.1935304053103506
6.871287128712871,1.1763875125524397
6.891089108910891,1.163138928762968
6.910891089108911,1.153975464264285
6.930693069306931,1.1490351207375056
6.9504950495049505,1.1483958611916887
6.97029702970297,1.1520713620951724
6.99009900990099,1.1600103018487922
7.00990099009901,1.1720992788937052
7.02970297029703,1.1881689699727431
7.0495049504950495,1.2080027474774573
7.069306930693069,1.231346755139639
7.089108910891089,1.257920417634444
7.108910891089109,1.2874265005814398
7.128712871287128,1.3195600777842942
7.148514851485149,1.3540160313429972
7.1683168316831685,1.390494952016211
7.188118811881187,1.4287074909211592
7.207920792079208,1.4683773311353077
7.227722772277228,1.5092430062584663
7.247524752475247,1.5510588070688323
7.267326732673268,1.593595002758077
7.287128712871287,1.6366375731920588
7.306930693069306,1.6799876129102405
7.326732673267327,1.7234605323040888
7.346534653465347,1.7668851499411808
7.366336633663366,1.8101027437111588
7.3861386138613865,1.8529661075397093
7.405940594059406,1.8953386443770563
7.425742574257425,1.9370935142701775
7.445544554455446,1.9781128477661096
7.465346534653466,2.018287028919674
7.485148514851485,2.057514048153422
7.504950495049505,2.095698922622506
7.524752475247524,2.1327531801678554
7.544554455445544,2.1685944020903105
7.564356435643565,2.2031458196185785
7.584158415841584,2.236335958908908
7.603960396039604,2.2680983295864694
7.623762376237624,2.298371152133978
7.643564356435643,2.327097119795627
7.663366336633663,2.3542231910552056
7.683168316831684,2.37970040914146
7.702970297029703,2.403483745396076
7.7227722772277225,2.42553196370031
7.742574257425743,2.445807503491304
7.762376237623762,2.464276379206047
7.782178217821782,2.4809080942705473
7.801980198019803,2.4956755680046845
7.821782178217822,2.5085550740421536
7.841584158415841,2.519526189071673
7.861386138613862,2.52857175089323
7.881188118811881,2.535677824953815
7.900990099009901,2.540833678683721
7.92079207920792,2.5440317630992024
7.9405940594059405,2.5452677012727247
7.96039603960396,2.5445402834002246
7.980198019801979,2.541851468318045
8.0,2.53720639144249
8.01980198019802,2.5306133792243384
8.03960396039604,2.5220839703311753
8.05940594059406,2.5116329438939378
8.07920792079208,2.4992783552827316
8.099009900990099,2.485041580012594
8.118811881188119,2.468947366524954
8.138613861386139,2.4510238987462274
8.158415841584159,2.4313028694944827
8.178217821782178,2.4098195659894626
8.198019801980198,2.3866129689227553
8.217821782178218,2.361725866765293
8.237623762376238,2.3352049872290097
8.257425742574258,2.3071011480597825
8.277227722772277,2.2774694296176072
8.297029702970297,2.2463693719953697
8.316831683168317,2.2138651997332905
8.336633663366337,2.180026077492932
8.356435643564357,2.1449264003464528
8.376237623762377,2.108646122590486
8.396039603960396,2.071271129173773
8.415841584158416,2.0328936538831845
8.435643564356436,1.993612748291905
8.455445544554456,1.953534805035208
8.475247524752476,1.912774138106708
8.495049504950495,1.8714536213750206
8.514851485148515,1.8297053841623991
8.534653465346535,1.7876715591871601
8.554455445544555,1.7455050730527004
8.574257425742575,1.7033704622885641
8.594059405940595,1.6614446881637863
8.613861386138613,1.6199179105229236
8.633663366336634,1.5789941642235685
8.653465346534654,1.5388918610829825
8.673267326732672,1.4998440157477355
8.693069306930694,1.462098066617316
8.712871287128714,1.4259151352690111
8.732673267326732,1.3915685440627354
8.752475247524753,1.359341398482922
8.772277227722773,1.3295230475677846
8.792079207920791,1.3024042735805414
8.811881188118813,1.278271141768773
8.831683168316832,1.2573975695321111
8.85148514851485,1.2400368492773945
8.871287128712872,1.2264125638930683
8.891089108910892,1.2167095341290484
8.91089108910891,1.211065585229908
8.930693069306932,1.2095649651201197
8.950495049504951,1.2122341522442206
8.97029702970297,1.2190405541984701
8.990099009900991,1.229894255858041
9.00990099009901,1.2446525987207346
9.029702970297029,1.263127044067283
9.04950495049505,1.2850915577409716
9.06930693069307,1.3102916843248227
9.089108910891088,1.338453543246904
9.10891089108911,1.3692921390979291
9.12871287128713,1.4025185818662775
9.148514851485148,1.4378460137918665
9.16831683168317,1.4749942070508661
9.188118811881187,1.513692916463193
9.207920792079207,1.553684143471839
9.227722772277229,1.5947234996181587
9.247524752475247,1.6365808606968073
9.267326732673267,1.6790404875568579
9.287128712871288,1.7219007649471814
9.306930693069306,1.7649736821678905
9.326732673267326,1.8080841525296978
9.346534653465348,1.8510692448621806
9.366336633663366,1.8937773804117528
9.386138613861386,1.9360675325130532
9.405940594059407,1.9778084540600513
9.425742574257425,2.018877948516981
9.445544554455445,2.059162193421753
9.465346534653467,2.0985551205119233
9.485148514851485,2.1369578532811158
9.504950495049505,2.1742782005724375
9.524752475247526,2.210430203431709
9.544554455445544,2.245333731644765
9.564356435643564,2.2789141259931918
9.584158415841586,2.3111018821517098
9.603960396039604,2.3418323722225884
9.623762376237623,2.371045600090339
9.643564356435645,2.398685987035556
9.663366336633663,2.4247021843369496
9.683168316831683,2.4490469098934247
9.702970297029704,2.4716768061986265
9.722772277227723,2.4925523172901616
9.742574257425742,2.5116375825688575
9.762376237623764,2.528900345638203
9.782178217821782,2.54431187654883
9.801980198019802,2.5578469060486797
9.821782178217823,2.569483570637163
9.841584158415841,2.5792033674024872
9.861386138613861,2.586991117787787
9.881188118811881,2.5928349395851007
9.900990099009901,2.5967262265989906
9.92079207920792,2.5986596355553853
9.94059405940594,2.5986330799582396
9.96039603960396,2.596647730718251
9.98019801980198,2.592708023496696
10.0,2.5868216728244233
10.01980198019802,2.578999693173665
10.03960396039604,2.5692564272794307
10.05940594059406,2.5576095821307527
10.07920792079208,2.544080273180072
10.099009900990099,2.5286930774546446
10.118811881188119,2.511476096397488
10.138613861386139,2.4924610294191853
10.158415841584159,2.471683259306642
10.178217821782178,2.4491819508117056
10.198019801980198,2.4250001639321526
10.217821782178218,2.399184983599179
10.237623762376238,2.3717876676983343
10.257425742574258,2.3428638155719907
10.277227722772277,2.312473559375717
10.297029702970297,2.280681780880773
10.316831683168317,2.247558356517665
10.336633663366337,2.213178433623649
10.356435643564357,2.1776227409638675
10.376237623762377,2.140977936604895
10.396039603960396,2.1033369960797303
10.415841584158416,2.0647996434250517
10.435643564356436,2.025472827000737
10.455445544554454,1.9854712408945097
10.475247524752476,1.9449178910084
10.495049504950495,1.903944702413145
10.514851485148514,1.8626931609845054
10.534653465346535,1.8213149773948778
10.554455445544555,1.77997275487078
10.574257425742573,1.7388406333661326
10.594059405940595,1.6981048715869846
10.613861386138614,1.6579643143839855
10.633663366336632,1.6186306763886862
10.653465346534654,1.5803285538274638
10.673267326732674,1.5432950563257744
10.693069306930692,1.5077789313719012
10.712871287128714,1.4740390394644016
