Frequency (Hz),Amplitude
0.0,3.4395876675436767
0.01978021978021978,3.4379011770816734
0.03956043956043956,3.432843377145745
0.05934065934065934,3.4244192805838183
0.07912087912087912,3.4126372371391445
0.0989010989010989,3.397508925961324
0.11868131868131868,3.379049345154026
0.13846153846153844,3.3572767983926166
0.15824175824175823,3.332212878655697
0.17802197802197803,3.303882449126651
0.1978021978021978,3.272313621334391
0.21758241758241756,3.2375377306183184
0.23736263736263735,3.199589309019988
0.2571428571428572,3.158506055725328
0.2769230769230769,3.1143288052064877
0.2967032967032967,3.06710149324311
0.31648351648351647,3.016871121040745
0.3362637362637363,2.9636877177108407
0.35604395604395606,2.9076043014361583
0.3758241758241758,2.8486768397202424
0.3956043956043956,2.7869642092160856
0.4153846153846154,2.7225281557539356
0.4351648351648351,2.655433255351956
0.45494505494505494,2.5857468772097905
0.4747252747252747,2.513539149974782
0.4945054945054945,2.4388829329618353
0.5142857142857143,2.361853794542998
0.5340659340659341,2.2825300006631686
0.5538461538461538,2.200992517475636
0.5736263736263736,2.1173250335642617
0.5934065934065934,2.0316140093422836
0.6131868131868132,1.9439487643248619
0.6329670329670329,1.854421617598962
0.6527472527472528,1.7631281038300421
0.6725274725274726,1.670167298002934
0.6923076923076923,1.5756422992760557
0.7120879120879121,1.479660952194768
0.7318681318681318,1.3823369299608017
0.7516483516483516,1.2837913842922126
0.7714285714285715,1.1841555084411888
0.7912087912087912,1.083574622685435
0.810989010989011,0.9822148998481987
0.8307692307692308,0.8802748833020595
0.8505494505494506,0.7780061865671669
0.8703296703296702,0.6757529458136211
0.8901098901098901,0.5740326224754924
0.9098901098901099,0.4737167352592013
0.9296703296703297,0.376480306821308
0.9494505494505494,0.2860558593103401
0.9692307692307692,0.21193046041181468
0.989010989010989,0.1764711542782
1.0087912087912088,0.20140644490062953
1.0285714285714287,0.2704528319612939
1.0483516483516484,0.3588234877582131
1.0681318681318681,0.4551641217733669
1.087912087912088,0.5550643452590254
1.1076923076923075,0.6565998867669508
1.1274725274725275,0.7587960064448067
1.1472527472527472,0.8610873171806466
1.1670329670329669,0.9631052054163912
1.1868131868131868,1.0645845356069468
1.2065934065934065,1.1653187852649414
1.2263736263736265,1.2651367957505204
1.2461538461538462,1.3638899662311657
1.2659340659340659,1.4614448380965859
1.2857142857142858,1.5576786209067437
1.3054945054945055,1.6524764010798967
1.3252747252747252,1.745729352895679
1.3450549450549452,1.8373335676891853
1.3648351648351649,1.9271892760195575
1.3846153846153846,2.0152003263003904
1.4043956043956045,2.1012738346723965
1.4241758241758242,2.185319951502133
1.443956043956044,2.267251708667165
1.4637362637362636,2.3469849236012092
1.4835164835164834,2.424438143675692
1.5032967032967033,2.499532619488933
1.523076923076923,2.5721922989780186
1.542857142857143,2.6423438365458174
1.5626373626373626,2.70991661297149
1.5824175824175823,2.7748427629795898
1.6021978021978023,2.837057208130685
1.621978021978022,2.896497693264535
1.6417582417582417,2.953104825141554
1.6615384615384616,3.006822112234319
1.6813186813186813,3.057596004849366
1.7010989010989013,3.1053759349318115
1.720879120879121,3.1501143550366213
1.7406593406593405,3.1917667760514035
1.7604395604395604,3.230291803334228
1.7802197802197801,3.2656511709915255
1.7999999999999998,3.297809774070389
1.8197802197802198,3.3267356984785437
1.8395604395604395,3.3524002484774305
1.8593406593406594,3.374777971619828
1.879120879120879,3.3938466810253067
1.8989010989010988,3.4095874749051576
1.9186813186813187,3.421984753264102
1.9384615384615385,3.431026231719759
1.9582417582417584,3.4367029523930137
1.978021978021978,3.43900929183319
1.9978021978021978,3.4379429659520366
2.0175824175824175,3.433505031949863
2.0373626373626372,3.4256998872261533
2.0571428571428574,3.4145352652758794
2.076923076923077,3.4000222285813835
2.096703296703297,3.3821751585188666
2.1164835164835165,3.361011742308011
2.1362637362637362,3.3365529570431587
2.1560439560439564,3.3088230508558563
2.175824175824176,3.27784952127054
2.195604395604396,3.2436630908293855
2.215384615384615,3.20629768007832
2.2351648351648348,3.165790378025143
2.254945054945055,3.1221814102034013
2.2747252747252746,3.075514104502704
2.2945054945054943,3.02583485495957
2.314285714285714,2.9731930837444533
2.3340659340659338,2.9176412016317728
2.353846153846154,2.859234567305857
2.3736263736263736,2.798031445939279
2.3934065934065933,2.734092967588534
2.413186813186813,2.667483086093793
2.4329670329670328,2.5982685393565923
2.452747252747253,2.5265188121188977
2.4725274725274726,2.4523061027037487
2.4923076923076923,2.375705295637157
2.512087912087912,2.296793942705012
2.5318681318681318,2.2156522558854843
2.5516483516483515,2.1323631168536257
2.5714285714285716,2.047012109560596
2.5912087912087913,1.9596875850259272
2.610989010989011,1.8704807713946752
2.6307692307692307,1.7794859482274639
2.6505494505494505,1.6868007131172011
2.6703296703296706,1.5925263831140826
2.6901098901098903,1.4967685966837083
2.70989010989011,1.3996382204982347
2.7296703296703297,1.3012527313443798
2.7494505494505495,1.2017383601982599
2.769230769230769,1.101233500263085
2.7890109890109893,0.9998942934672906
2.808791208791209,0.8979041442881395
2.8285714285714287,0.7954906989653275
2.8483516483516484,0.6929579391936038
2.8681318681318677,0.5907512872183466
2.887912087912088,0.4896017401518947
2.9076923076923076,0.3908811944563941
2.9274725274725273,0.2975953189464446
2.947252747252747,0.2174543075350242
2.9670329670329667,0.17064582337418063
2.986813186813187,0.18475566004416757
3.0065934065934066,0.2496197504581987
3.0263736263736263,0.33694911514838677
3.046153846153846,0.43313589337848296
3.0659340659340657,0.5331361646539354
3.085714285714286,0.6348516320616666
3.1054945054945056,0.7372559126714552
3.1252747252747253,0.8397679399812429
3.145054945054945,0.9420149321498688
3.1648351648351647,1.0437314015836634
3.184615384615385,1.1447116712560312
3.2043956043956046,1.2447856966292303
3.2241758241758243,1.34380593344
3.243956043956044,1.441639819967817
3.2637362637362637,1.5381652847150074
3.2835164835164834,1.6332679667328667
3.3032967032967036,1.7268394470589408
3.3230769230769233,1.818776099045251
3.342857142857143,1.9089783295198561
3.3626373626373627,1.997350073541774
3.3824175824175824,2.083798457615238
3.4021978021978025,2.168233577105357
3.4219780219780223,2.250568352426364
3.441758241758242,2.3307184403559087
3.4615384615384617,2.408602184375483
3.481318681318681,2.4841405928728673
3.501098901098901,2.5572573373341907
3.520879120879121,2.6278787648867645
3.5406593406593405,2.6959339210944275
3.5604395604395602,2.761354579985776
3.58021978021978,2.82407527906163
3.5999999999999996,2.8840333575784833
3.61978021978022,2.9411689968060895
3.6395604395604395,2.99542526125256
3.659340659340659,3.046748140070516
3.679120879120879,3.0950865880233516
3.6989010989010986,3.1403925655168443
3.718681318681319,3.1826210772981547
3.7384615384615385,3.221730209499457
3.758241758241758,3.2576811647623756
3.7780219780219784,3.2904382952263447
3.7978021978021976,3.3199691332013024
3.8175824175824173,3.346244419375669
3.8373626373626375,3.3692381284354056
3.8571428571428568,3.3889274919906103
3.876923076923077,3.4052930187237114
3.896703296703296,3.418318511688103
3.916483516483517,3.427991082698957
3.936263736263736,3.4343011637695007
3.956043956043956,3.4372425155562443
3.9758241758241755,3.4368122327858925
3.9956043956043956,3.433010746645556
4.015384615384615,3.4258418241261954
4.035164835164835,3.4153125643171136
4.054945054945055,3.4014333916575286
4.0747252747252745,3.38421804615913
4.094505494505494,3.363683570622136
4.114285714285715,3.339850294875935
4.134065934065934,3.3127418170850755
4.153846153846154,3.2823849821717785
4.173626373626373,3.2488098574178794
4.193406593406594,3.21204970532237
4.213186813186813,3.1721409538063314
4.232967032967033,3.1291231638752466
4.252747252747253,3.0830389948705785
4.2725274725274724,3.033934167469094
4.292307692307692,2.9818574246208898
4.312087912087913,2.9268604906580875
4.331868131868132,2.868998028857016
4.351648351648352,2.8083275978023288
4.371428571428571,2.744909606985439
4.391208791208792,2.6788072721792773
4.410989010989011,2.6100865712756747
4.43076923076923,2.5388162014634306
4.450549450549451,2.4650675388835785
4.4703296703296695,2.388914602249454
4.49010989010989,2.310434022403691
4.50989010989011,2.229705020458926
4.52967032967033,2.1468093981239225
4.549450549450549,2.061831545185116
4.569230769230769,1.9748584711070196
4.589010989010989,1.8859798706659627
4.608791208791209,1.7952882379816797
4.628571428571428,1.7028790501545075
4.648351648351649,1.608851052472895
4.6681318681318675,1.5133066944742855
4.687912087912088,1.4163527947830146
4.707692307692308,1.3181015614493197
4.7274725274725276,1.2186721805162026
4.747252747252747,1.118193343009629
4.767032967032967,1.016807381761998
4.786813186813187,0.9146772955080602
4.806593406593407,0.8119992310311083
4.826373626373626,0.7090259531147538
4.846153846153847,0.6061141879494056
4.8659340659340655,0.503828936349361
4.885714285714286,0.4032004872456621
4.905494505494506,0.3064527275504817
4.9252747252747255,0.21940913194354272
4.945054945054945,0.15947034796031492
4.964835164835165,0.16085012214766964
4.984615384615385,0.22240386616552127
5.004395604395604,0.3100147597621579
5.024175824175824,0.40697095307093306
5.043956043956045,0.5076788137506759
5.0637362637362635,0.609986295200465
5.083516483516483,0.7128894320103033
5.103296703296703,0.8158344372718
5.123076923076923,0.9184699793230608
5.142857142857143,1.0205461584440363
5.162637362637362,1.1218684836786013
5.182417582417583,1.2222749891583875
5.2021978021978015,1.3216240346022805
5.221978021978022,1.4197874269876714
5.241758241758242,1.5166463632284026
5.2615384615384615,1.612088948624198
5.281318681318681,1.7060086353091046
5.301098901098901,1.7983032185141572
5.320879120879121,1.8888741822154946
5.340659340659341,1.9776262698445648
5.36043956043956,2.064467203526333
5.380219780219781,2.149307503392034
5.3999999999999995,2.232060375511565
5.41978021978022,2.312641647558535
5.43956043956044,2.3909697380503867
5.4593406593406595,2.4669656493850374
5.479120879120879,2.540552977801842
5.498901098901099,2.6116579353589278
5.518681318681319,2.6802093803683946
5.538461538461538,2.7461388536726523
5.558241758241758,2.809380618811528
5.578021978021979,2.869871704607915
5.5978021978021975,2.927551949046783
5.617582417582418,2.9823640435777965
5.637362637362637,3.0342535771612758
5.6571428571428575,3.083169079520138
5.676923076923077,3.1290620631685666
5.696703296703297,3.1718870638715555
5.716483516483517,3.2116016792539908
5.736263736263735,3.248166605328631
5.756043956043956,3.281545670752445
5.775824175824176,3.3117058686532137
5.795604395604395,3.3386173858941453
5.815384615384615,3.3622536296661556
5.835164835164835,3.3825912513149134
5.854945054945055,3.399610167325387
5.874725274725275,3.413293577399072
5.894505494505494,3.423627979570694
5.914285714285715,3.430603182320956
5.934065934065933,3.4342123136509404
5.953846153846154,3.43445182709178
5.973626373626374,3.4313215046309566
5.993406593406593,3.424824456543705
6.013186813186813,3.414967118124818
6.032967032967033,3.401759243323042
6.052747252747253,3.385213895286964
6.072527472527473,3.365347433838122
6.092307692307692,3.3421794998942644
6.112087912087913,3.3157329968731664
6.131868131868131,3.2860340691154986
6.151648351648352,3.253112077374163
6.171428571428572,3.2169995714273925
6.191208791208791,3.1777322598840976
6.210989010989011,3.135348977263169
6.230769230769231,3.089891648443543
6.2505494505494505,3.0414052506003775
6.270329670329671,2.9899377727647156
6.29010989010989,2.9355401731715625
6.309890109890111,2.878266334595358
6.329670329670329,2.818173017914936
6.349450549450549,2.7553198142053033
6.36923076923077,2.6897690957250706
6.3890109890109885,2.621585966261814
6.408791208791209,2.550838211421712
6.428571428571428,2.477596249616046
6.4483516483516485,2.401933084722557
6.468131868131868,2.3239242617092675
6.487912087912088,2.2436478269392444
6.507692307692308,2.161184295481832
6.527472527472527,2.0766166286247065
6.547252747252747,1.9900302260427039
6.567032967032967,1.901512938942751
6.5868131868131865,1.8111551133062114
6.606593406593407,1.7190496766471464
6.626373626373626,1.6252922884392629
6.6461538461538465,1.5299815851732976
6.665934065934065,1.4332195688222102
6.685714285714286,1.3351122177424235
6.705494505494506,1.2357704521545472
6.725274725274725,1.135311683227555
6.745054945054945,1.0338623593808869
6.764835164835165,0.9315622933688336
6.7846153846153845,0.8285723404317014
6.804395604395605,0.7250887929347709
6.824175824175824,0.6213723168702167
6.8439560439560445,0.5178115586168912
6.863736263736263,0.41508024362659784
6.883516483516484,0.3145902504774639
6.903296703296704,0.22009464137202156
6.923076923076923,0.14461143859011039
6.942857142857143,0.1283981434872891
6.962637362637362,0.18755882169671098
6.9824175824175825,0.2773339488362885
7.002197802197802,0.3762019695289591
7.021978021978022,0.4782930487430865
7.041758241758242,0.5816173216774377
7.061538461538461,0.6853024380498981
7.081318681318681,0.7888781180825946
7.101098901098901,0.8920453782398471
7.1208791208791204,0.9945880112684613
7.140659340659341,1.0963339285216671
7.16043956043956,1.1971365266746639
7.1802197802197805,1.2968649915021506
7.199999999999999,1.395398939067146
7.21978021978022,1.4926253100633908
7.23956043956044,1.5884365021921703
7.259340659340659,1.6827292155580642
7.279120879120879,1.775403725398776
7.298901098901099,1.8663634197781436
7.318681318681318,1.9555145064067136
7.338461538461539,2.042765830122292
7.358241758241758,2.1280287643000313
7.3780219780219785,2.211217152505888
7.397802197802197,2.292247284754746
7.417582417582418,2.3710378978244617
7.437362637362638,2.4475101923691986
7.457142857142857,2.5215878617490417
7.476923076923077,2.5931971289544973
7.496703296703297,2.6622667890047476
7.516483516483516,2.728728254893719
7.536263736263736,2.792515605648367
7.556043956043957,2.8535656354144
7.575824175824176,2.9118179027387763
7.595604395604395,2.967214779404841
7.615384615384615,3.0197014983143453
7.635164835164835,3.0692262000146378
7.654945054945055,3.1157399775483516
7.674725274725275,3.1591969193636307
7.694505494505494,3.19955415007014
7.7142857142857135,3.236771868863376
7.734065934065935,3.270813385469145
7.753846153846154,3.3016451534842135
7.7736263736263735,3.329236801008433
7.793406593406592,3.353561158479699
7.813186813186814,3.374594283637038
7.832967032967034,3.392315483548163
7.852747252747252,3.4067073336482596
7.872527472527472,3.417755693745226
7.892307692307693,3.425449720954652
7.912087912087912,3.429781879534727
7.931868131868132,3.4307479475978897
7.951648351648351,3.4283470206820064
7.971428571428572,3.422581512169679
7.991208791208791,3.4134571505496822
8.010989010989011,3.4009829735199166
8.03076923076923,3.3851713189365404
8.05054945054945,3.3660378126190285
8.07032967032967,3.3436013530263677
8.09010989010989,3.317884092824897
8.10989010989011,3.2889114173739196
8.129670329670331,3.256711920161274
8.149450549450549,3.2213173752273034
8.169230769230769,3.1827627066226944
8.189010989010988,3.1410859549533963
8.20879120879121,3.0963282410745547
8.22857142857143,3.04853372700547
8.248351648351647,2.997749574149506
8.268131868131867,2.9440258989168946
8.287912087912087,2.8874157258655937
8.307692307692308,2.8279749384966166
8.327472527472528,2.765762227866778
8.347252747252746,2.7008390392158765
8.367032967032966,2.633269516849011
8.386813186813187,2.563120447572431
8.406593406593407,2.4904612030576474
8.426373626373627,2.415363681611508
8.446153846153845,2.3379022499705386
8.465934065934066,2.258153685932409
8.485714285714286,2.1761971229104
8.505494505494505,2.0921139978862633
8.525274725274725,2.0059880047998235
8.545054945054945,1.9179050562429807
8.564835164835165,1.827953257568634
8.584615384615384,1.736222899424037
8.604395604395604,1.642806477685022
8.624175824175826,1.5477987545113567
8.643956043956043,1.4512968820337508
8.663736263736263,1.3534006233573674
8.683516483516483,1.2542127286008282
8.703296703296704,1.153839565514562
8.723076923076924,1.052392183539899
8.742857142857142,0.9499881483702755
8.762637362637362,0.8467548189015028
8.782417582417583,0.7428354991941833
8.802197802197803,0.6384017824902858
8.821978021978023,0.5336806037441959
8.84175824175824,0.42902099901470203
8.86153846153846,0.3250884929558568
8.881318681318682,0.22358710352723257
8.901098901098901,0.13115473716767273
8.920879120879121,0.08625678991831043
8.940659340659339,0.14402545722320464
8.96043956043956,0.23886482122031175
8.98021978021978,0.3409319824878436
9.0,0.4450206173909614
9.01978021978022,0.5496900135676474
9.03956043956044,0.6543476278921455
9.05934065934066,0.7586708244489679
9.079120879120879,0.862444116401311
9.098901098901099,0.9655015977896124
9.11868131868132,1.0677031262343266
9.138461538461538,1.1689232879699312
9.158241758241758,1.2690458346684157
9.178021978021977,1.3679606942288587
9.197802197802199,1.4655622865224238
9.217582417582419,1.5617485422287032
9.237362637362637,1.6564203200150003
9.257142857142856,1.7494810590747074
9.276923076923078,1.8408365757082852
9.296703296703297,1.9303949506906122
9.316483516483517,2.018066475258301
9.336263736263735,2.1037636356780243
9.356043956043957,2.187401123562449
9.375824175824176,2.2688958635067644
9.395604395604396,2.3481670523850524
9.415384615384616,2.425136206422623
9.435164835164835,2.499727213327017
9.454945054945055,2.5718663875405667
9.474725274725275,2.6414825272092317
9.494505494505495,2.7085069718306425
9.514285714285714,2.772873659803068
9.534065934065934,2.834519185282225
9.553846153846154,2.893382853886474
9.573626373626373,2.9494067368892494
9.593406593406593,3.0025357236106327
9.613186813186815,3.0527175717750366
9.632967032967032,3.0999029556439797
9.652747252747252,3.144045511765667
9.672527472527472,3.1851018822083876
9.692307692307693,3.223031755165469
9.712087912087913,3.2577979028358337
9.731868131868131,3.2893662164977955
9.75164835164835,3.3177057387051256
9.771428571428572,3.3427886925440755
9.791208791208792,3.3645905078982183
9.810989010989012,3.383089844675538
9.83076923076923,3.3982686129584474
9.850549450549451,3.4101119900434003
9.87032967032967,3.418608434342277
9.89010989010989,3.423749696122561
9.90989010989011,3.4255308250681713
9.92967032967033,3.4239501746472554
9.94945054945055,3.4190094032773963
9.96923076923077,3.4107134722831622
9.989010989010989,3.399070640644385
10.008791208791209,3.3840924565380552
10.028571428571428,3.365793745680063
10.048351648351648,3.3441925964771007
10.068131868131868,3.3193103420026455
10.08791208791209,3.2911715388146976
10.107692307692307,3.2598039426366707
10.127472527472527,3.225238480926587
10.147252747252747,3.1875092223635173
10.167032967032966,3.1466533432839854
10.186813186813188,3.102711091105219
10.206593406593406,3.055725744775934
10.226373626373626,3.005743572300079
10.246153846153845,2.952813785383144
10.265934065934067,2.896988491256066
10.285714285714286,2.838322641737052
10.305494505494504,2.776873979598079
10.325274725274724,2.7127029823101183
10.345054945054946,2.6458728032498127
10.364835164835165,2.5764492104610124
10.384615384615385,2.5045005230777733
10.404395604395603,2.430097545532592
10.424175824175824,2.3533134996959038
10.443956043956044,2.2742239551229386
10.463736263736264,2.1929067576252845
10.483516483516484,2.109441956441874
10.503296703296703,2.0239117303663647
10.523076923076923,1.9364003133075343
10.542857142857143,1.8469939199365089
10.562637362637362,1.7557806723443146
10.582417582417584,1.6628505290506104
10.602197802197802,1.5682952183685894
10.621978021978022,1.472208179214098
10.641758241758241,1.3746845142677722
10.661538461538463,1.2758209635609377
