Frequency (Hz),Amplitude
0.0,1.085469199929641
0.019801980198019802,1.085456449583168
0.039603960396039604,1.0854181951755995
0.0594059405940594,1.0853544268411874
0.07920792079207921,1.085265128931279
0.09900990099009901,1.0851502811993714
0.1188118811881188,1.0850098604479865
0.13861386138613863,1.0848438426247808
0.15841584158415842,1.0846522053524454
0.1782178217821782,1.0844349308733279
0.19801980198019803,1.0841920093865638
0.21782178217821782,1.083923442752487
0.2376237623762376,1.0836292485362355
0.25742574257425743,1.0833094643594374
0.27722772277227725,1.082964152526543
0.297029702970297,1.0825934048897696
0.31683168316831684,1.08219734791442
0.33663366336633666,1.0817761479043542
0.3564356435643564,1.0813300163455033
0.37623762376237624,1.0808592153237262
0.39603960396039606,1.0803640629719633
0.4158415841584158,1.0798449389004228
0.43564356435643564,1.0793022895626638
0.45544554455445546,1.0787366335096475
0.4752475247524752,1.0781485664835975
0.495049504950495,1.0775387663030154
0.5148514851485149,1.0769079974904698
0.5346534653465347,1.0762571155949456
0.5544554455445545,1.0755870711611402
0.5742574257425742,1.0748989132988527
0.594059405940594,1.0741937928066256
0.613861386138614,1.073472964805318
0.6336633663366337,1.072737790838481
0.6534653465346534,1.0719897403988474
0.6732673267326733,1.07123039184169
0.6930693069306931,1.07046143264894
0.7128712871287128,1.0696846590099531
0.7326732673267327,1.0689019746885087
0.7524752475247525,1.0681153891484154
0.7722772277227723,1.067327014913821
0.7920792079207921,1.0665390641444932
0.8118811881188118,1.0657538444102101
0.8316831683168316,1.064973753653026
0.8514851485148516,1.0642012743311264
0.8712871287128713,1.0634389667428579
0.891089108910891,1.0626894615351015
0.9108910891089109,1.061955451405605
0.9306930693069307,1.061239682014955
0.9504950495049505,1.060544942129802
0.9702970297029703,1.059874053025202
0.99009900990099,1.05922985718057
1.00990099009901,1.0586152063098715
1.0297029702970297,1.0580329487735263
1.0495049504950495,1.0574859164257264
1.0693069306930694,1.0569769109576799
1.0891089108910892,1.0565086898029707
1.108910891089109,1.0560839516779326
1.1287128712871286,1.0557053218350694
1.1485148514851484,1.0553753371133117
1.1683168316831685,1.0550964308734525
1.188118811881188,1.0548709179116038
1.2079207920792079,1.054700979447033
1.227722772277228,1.0545886482837412
1.2475247524752475,1.0545357942472242
1.2673267326732673,1.0545441099991961
1.2871287128712872,1.0546150973334
1.3069306930693068,1.0547500540549775
1.3267326732673268,1.0549500615444152
1.3465346534653466,1.0552159731043922
1.3663366336633662,1.0555484031843378
1.3861386138613863,1.0559477175728713
1.405940594059406,1.056414024642861
1.4257425742574257,1.0569471677272775
1.4455445544554455,1.057546718696811
1.4653465346534653,1.0582119728022148
1.4851485148514851,1.0589419448354984
1.504950495049505,1.0597353666549723
1.5247524752475248,1.0605906861093002
1.5445544554455446,1.0615060673858034
1.5643564356435644,1.0624793927979899
1.5841584158415842,1.0635082660169486
1.6039603960396038,1.0645900167411964
1.6237623762376237,1.0657217067894948
1.6435643564356437,1.0669001375913756
1.6633663366336633,1.0681218590412407
1.683168316831683,1.0693831796727038
1.7029702970297032,1.07068017810236
1.7227722772277227,1.072008715684367
1.7425742574257426,1.0733644503109678
1.7623762376237624,1.0747428512880617
1.782178217821782,1.0761392152103582
1.801980198019802,1.0775486827562113
1.8217821782178218,1.0789662563193536
1.8415841584158414,1.0803868183920955
1.8613861386138615,1.081805150613296
1.881188118811881,1.0832159533933046
1.900990099009901,1.0846138660281957
1.920792079207921,1.085993487216062
1.9405940594059405,1.0873493958894709
1.9603960396039604,1.088676172279464
1.98019801980198,1.0899684191290147
2.0,1.0912207829760634
2.01980198019802,1.0924279754290847
2.0396039603960396,1.0935847943610202
2.0594059405940595,1.094686144950662
2.0792079207920793,1.0957270605036002
2.099009900990099,1.0967027229881503
2.118811881188119,1.0976084832246218
2.1386138613861387,1.0984398806696352
2.1584158415841586,1.0991926627397144
2.1782178217821784,1.0998628036212221
2.1980198019801978,1.1004465225162048
2.217821782178218,1.1009403012758197
2.237623762376238,1.1013409013747604
2.257425742574257,1.1016453801820822
2.2772277227722775,1.101851106484489
2.297029702970297,1.10195577521979
2.3168316831683167,1.1019574213781036
2.336633663366337,1.1018544330292888
2.3564356435643563,1.1016455634345026
2.376237623762376,1.1013299421999183
2.3960396039603964,1.1009070854294831
2.4158415841584158,1.1003769048331085
2.4356435643564356,1.099739715745173
2.455445544554456,1.0989962440071812
2.4752475247524752,1.0981476316665193
2.495049504950495,1.0971954414419427
2.514851485148515,1.096141659904412
2.5346534653465347,1.0949886993204918
2.5544554455445545,1.0937393981035388
2.5742574257425743,1.092397019816636
2.594059405940594,1.0909652506698209
2.6138613861386135,1.0894481954533586
2.633663366336634,1.0878503718479817
2.6534653465346536,1.086176703053488
2.673267326732673,1.0844325086772248
2.6930693069306932,1.082623493825967
2.712871287128713,1.0807557363467246
2.7326732673267324,1.0788356721656365
2.7524752475247527,1.07687007867863
2.7722772277227725,1.0748660561537136
2.792079207920792,1.0728310071119544
2.811881188118812,1.0707726136634526
2.8316831683168315,1.0686988127852395
2.8514851485148514,1.0666177695406271
2.8712871287128716,1.0645378482539125
2.891089108910891,1.0624675816705969
2.910891089108911,1.0604156381514203
2.9306930693069306,1.0583907869685691
2.9504950495049505,1.056401861793921
2.9702970297029703,1.0544577224926137
2.99009900990099,1.052567215359508
3.00990099009901,1.0507391319619075
3.0297029702970297,1.0489821667778014
3.0495049504950495,1.047304873845415
3.0693069306930694,1.0457156226658852
3.089108910891089,1.0442225536259833
3.108910891089109,1.0428335332316023
3.128712871287129,1.0415561094643147
3.148514851485148,1.0403974675921739
3.1683168316831685,1.0393643867811642
3.1881188118811883,1.0384631978655174
3.2079207920792077,1.0376997426413392
3.227722772277228,1.037079335050141
3.2475247524752473,1.0366067246146609
3.267326732673267,1.0362860624800179
3.2871287128712874,1.0361208703974856
3.3069306930693068,1.0361140129668587
3.3267326732673266,1.0362676734262546
3.346534653465347,1.0365833332456948
3.366336633663366,1.037061755743507
3.386138613861386,1.0377029739031838
3.4059405940594063,1.0385062825235611
3.4257425742574257,1.039470234788009
3.4455445544554455,1.0405926432895773
3.4653465346534653,1.0418705855002872
3.485148514851485,1.0433004136240809
3.504950495049505,1.0448777687267032
3.5247524752475248,1.0465975989912817
3.5445544554455446,1.0484541819082587
3.564356435643564,1.0504411501718562
3.5841584158415842,1.0525515210238472
3.603960396039604,1.0547777287591864
3.6237623762376234,1.0571116600875998
3.6435643564356437,1.059544692030157
3.6633663366336635,1.0620677320206484
3.683168316831683,1.0646712598776709
3.702970297029703,1.0673453713147691
3.722772277227723,1.0700798226616952
3.7425742574257423,1.0728640764804964
3.762376237623762,1.0756873477734534
3.7821782178217824,1.0785386504974488
3.801980198019802,1.0814068441180202
3.8217821782178216,1.0842806799580367
3.841584158415842,1.0871488471179829
3.8613861386138613,1.0900000177680926
3.881188118811881,1.0928228916355984
3.9009900990099013,1.0956062395335202
3.9207920792079207,1.0983389457994925
3.9405940594059405,1.1010100495345574
3.96039603960396,1.1036087845517133
3.98019801980198,1.1061246179627282
4.0,1.108547287348476
4.01980198019802,1.1108668364734708
4.03960396039604,1.11307364951847
4.0594059405940595,1.115158483817076
4.079207920792079,1.1171125010916216
4.099009900990099,1.1189272971924005
4.118811881188119,1.120594930350358
4.138613861386139,1.122107947958539
4.158415841584159,1.1234594119008907
4.178217821782178,1.1246429224491168
4.198019801980198,1.1256526407489555
4.217821782178218,1.126483309916642
4.237623762376238,1.1271302747648058
4.257425742574258,1.1275895001741674
4.2772277227722775,1.1278575881237767
4.297029702970297,1.1279317933878343
4.316831683168317,1.1278100379017502
4.336633663366336,1.1274909237937258
4.356435643564357,1.126973745071169
4.376237623762377,1.1262584979435093
4.3960396039603955,1.1253458897545
4.415841584158416,1.1242373464884192
4.435643564356436,1.1229350188044602
4.455445544554455,1.1214417865441302
4.475247524752476,1.1197612616454782
4.4950495049504955,1.1178977893872466
4.514851485148514,1.1158564478748516
4.534653465346535,1.1136430456685058
4.554455445544555,1.1112641174425568
4.574257425742574,1.1087269175535472
4.594059405940594,1.1060394113836127
4.613861386138614,1.1032102643151889
4.633663366336633,1.1002488281833003
4.653465346534653,1.097165125043361
4.673267326732674,1.0939698280849675
4.693069306930693,1.090674239517495
4.712871287128713,1.0872902652503962
4.732673267326733,1.083830386191359
4.752475247524752,1.080307625989441
4.772277227722772,1.0767355150579636
4.792079207920793,1.0731280507247973
4.811881188118812,1.0694996533754013
4.8316831683168315,1.0658651184781673
4.851485148514852,1.0622395644116827
4.871287128712871,1.0586383760511353
4.891089108910891,1.0550771441156799
4.910891089108912,1.0515716003304483
4.930693069306931,1.0481375485167317
4.9504950495049505,1.0447907917901176
4.97029702970297,1.041547056119952
4.99009900990099,1.0384219105817638
5.00990099009901,1.0354306847178876
5.02970297029703,1.0325883835068679
5.0495049504950495,1.0299096005287853
5.069306930693069,1.02740842999821
5.089108910891089,1.0250983784166814
5.108910891089109,1.0229922766692252
5.128712871287129,1.0211021934524247
5.148514851485149,1.0194393509699915
5.1683168316831685,1.0180140438652974
5.188118811881188,1.016835562374291
5.207920792079208,1.0159121206755244
5.227722772277227,1.0152507913852893
5.247524752475248,1.014857447093931
5.267326732673268,1.0147367097648163
5.2871287128712865,1.0148919087209771
5.306930693069307,1.0153250478284177
5.326732673267327,1.0160367823520167
5.346534653465346,1.017026405813739
5.366336633663367,1.0182918470272355
5.3861386138613865,1.0198296773237099
5.405940594059405,1.0216351278241387
5.425742574257426,1.0237021164592512
5.445544554455446,1.0260232842944654
5.465346534653465,1.0285900405864603
5.485148514851486,1.0313926158853066
5.504950495049505,1.0344201224025793
5.524752475247524,1.0376606207944756
5.544554455445545,1.0411011924593725
5.564356435643565,1.0447280164226904
5.584158415841584,1.048526449875923
5.603960396039604,1.0524811114513812
5.623762376237624,1.056575966345931
5.643564356435643,1.0607944124544457
5.663366336633663,1.0651193667329788
5.683168316831684,1.0695333510810598
5.702970297029703,1.074018577107824
5.7227722772277225,1.0785570292266433
5.742574257425743,1.0831305456035214
5.762376237623762,1.087720896564826
5.782178217821782,1.0923098601475334
5.801980198019803,1.096879294548269
5.821782178217822,1.1014112072955615
5.841584158415841,1.1058878210317349
5.861386138613861,1.110291635845881
5.881188118811881,1.1146054881480298
5.900990099009901,1.1188126061159687
5.920792079207921,1.1228966617810485
5.9405940594059405,1.126841819847916
5.96039603960396,1.130632783365338
5.98019801980198,1.134254836382647
6.0,1.1376938837383679
6.01980198019802,1.1409364881353066
6.03960396039604,1.1439699046605427
6.0594059405940595,1.14678211290935
6.079207920792079,1.1493618468699378
6.099009900990099,1.1516986227215236
6.118811881188119,1.153782764691784
6.138613861386139,1.1556054291114437
6.158415841584159,1.15715862679472
6.178217821782178,1.158435243863445
6.198019801980198,1.159429061121469
6.217821782178218,1.1601347720736326
6.237623762376237,1.1605479996707497
6.257425742574258,1.160665311848377
6.2772277227722775,1.1604842359132972
6.297029702970296,1.1600032718165585
6.316831683168317,1.159221904336737
6.336633663366337,1.1581406141809474
6.356435643564356,1.1567608879941618
6.376237623762377,1.1550852272495178
6.396039603960396,1.1531171559737114
6.415841584158415,1.1508612272413696
6.435643564356436,1.1483230283512922
6.455445544554456,1.1455091845750445
6.475247524752475,1.1424273613442917
6.495049504950495,1.139086264718178
6.514851485148515,1.135495639945207
6.534653465346534,1.1316662679058578
6.554455445544554,1.1276099591927125
6.574257425742575,1.1233395455544688
6.594059405940594,1.1188688683986276
6.6138613861386135,1.1142127640162747
6.633663366336634,1.1093870451607342
6.653465346534653,1.1044084785818027
6.673267326732673,1.09929475808868
6.693069306930694,1.0940644726897482
6.712871287128713,1.088737069336832
6.732673267326732,1.0833328097872352
6.752475247524753,1.0778727210909005
6.772277227722772,1.0723785392143002
6.792079207920792,1.0668726453293917
6.811881188118813,1.0613779943282107
6.8316831683168315,1.055918035172716
6.851485148514851,1.050516622759267
6.871287128712871,1.0451979210683848
6.891089108910891,1.039986297486018
6.910891089108911,1.0349062083227676
6.930693069306931,1.0299820757236322
6.9504950495049505,1.0252381563510002
6.97029702970297,1.020698402436781
6.99009900990099,1.0163863160313893
7.00990099009901,1.0123247975228424
7.02970297029703,1.008535989751507
7.0495049504950495,1.005041119296508
7.069306930693069,1.0018603367477856
7.089108910891089,0.9990125579931486
7.108910891089109,0.9965153087291926
7.128712871287128,0.994384574538393
7.148514851485149,0.992634658949421
7.1683168316831685,0.9912780519062026
7.188118811881187,0.9903253110053052
7.207920792079208,0.9897849577180489
7.227722772277228,0.9896633905934246
7.247524752475247,0.9899648171450688
7.267326732673268,0.99069120576811
7.287128712871287,0.9918422586232208
7.306930693069306,0.9934154059801036
7.326732673267327,0.9954058220498031
7.346534653465347,0.9978064618729107
7.366336633663366,1.000608118388525
7.3861386138613865,1.0037994984036267
7.405940594059406,1.0073673158300445
7.425742574257425,1.0112964002678477
7.445544554455446,1.015569818797906
7.465346534653466,1.0201690087063104
7.485148514851485,1.025073918798959
7.504950495049505,1.0302631569721206
7.524752475247524,1.0357141417771347
7.544554455445544,1.0414032558452684
7.564356435643565,1.0473059992115286
7.584158415841584,1.0533971407819043
7.603960396039604,1.0596508664166373
7.623762376237624,1.0660409223408582
7.643564356435643,1.0725407528344795
7.663366336633663,1.0791236313871384
7.683168316831684,1.0857627847246067
7.702970297029703,1.0924315093157717
7.7227722772277225,1.0991032801507408
7.742574257425743,1.1057518517384106
7.762376237623762,1.112351351406328
7.782178217821782,1.1188763650962983
7.801980198019803,1.1253020159372773
7.821782178217822,1.131604035944949
7.841584158415841,1.1377588312462859
7.861386138613862,1.143743541259923
7.881188118811881,1.1495360922818032
7.900990099009901,1.1551152459324425
7.92079207920792,1.1604606429191286
7.9405940594059405,1.1655528425562565
7.96039603960396,1.1703733584703109
7.980198019801979,1.1749046908957181
8.0,1.1791303559438486
8.01980198019802,1.1830349122021504
8.03960396039604,1.1866039849935561
8.05940594059406,1.1898242885995776
8.07920792079208,1.1926836467237443
8.099009900990099,1.1951710114457808
8.118811881188119,1.1972764808919931
8.138613861386139,1.1989913158226548
8.158415841584159,1.2003079553142328
8.178217821782178,1.2012200316919586
8.198019801980198,1.201722384846963
8.217821782178218,1.2018110760515939
8.237623762376238,1.2014834013664795
8.257425742574258,1.2007379047133144
8.277227722772277,1.1995743906673648
8.297029702970297,1.1979939370037833
8.316831683168317,1.1959989070109442
8.336633663366337,1.193592961562111
8.356435643564357,1.1907810709134112
8.376237623762377,1.1875695261705277
8.396039603960396,1.1839659503387825
8.415841584158416,1.1799793088403623
8.435643564356436,1.1756199193481158
8.455445544554456,1.1708994607470167
8.475247524752476,1.1658309809913503
8.495049504950495,1.1604289035782005
8.514851485148515,1.1547090323038602
8.534653465346535,1.1486885539113556
8.554455445544555,1.1423860381715365
8.574257425742575,1.1358214348695421
8.594059405940595,1.1290160670912128
8.613861386138613,1.121992620121964
8.633663366336634,1.1147751251842886
8.653465346534654,1.1073889371506125
8.673267326732672,1.0998607052787894
8.693069306930694,1.0922183359298576
8.712871287128714,1.0844909461462906
8.732673267326732,1.076708806898642
8.752475247524753,1.068903274754683
8.772277227722773,1.0611067106949033
8.792079207920791,1.0533523847998087
8.811881188118813,1.0456743655762644
8.831683168316832,1.038107392781886
8.85148514851485,1.030686732757835
8.871287128712872,1.0234480155002579
8.891089108910892,1.016427052997569
8.91089108910891,1.009659638739801
8.930693069306932,1.0031813287703593
8.950495049504951,0.9970272051972775
8.97029702970297,0.9912316237018602
8.990099009900991,0.9858279472640031
9.00990099009901,0.9808482690411698
9.029702970297029,0.9763231280638582
9.04950495049505,0.9722812221061404
9.06930693069307,0.9687491227140957
9.089108910891088,0.9657509978815051
9.10891089108911,0.9633083482066366
9.12871287128713,0.9614397625054736
9.148514851485148,0.9601606987632921
9.16831683168317,0.9594832959591765
9.188118811881187,0.9594162216939329
9.207920792079207,0.9599645597051575
9.227722772277229,0.9611297402995482
9.247524752475247,0.9629095155196428
9.267326732673267,0.9652979795557042
9.287128712871288,0.9682856335837172
9.306930693069306,0.9718594929307688
9.326732673267326,0.9760032333084547
9.346534653465348,0.9806973718713624
9.366336633663366,0.9859194780946154
9.386138613861386,0.9916444089482959
9.405940594059407,0.9978445625840504
9.425742574257425,1.0044901447313546
9.445544554455445,1.011549442203214
9.465346534653467,1.018989098297992
9.485148514851485,1.0267743854144733
9.504950495049505,1.034869470825699
9.524752475247526,1.0432376722412007
9.544554455445544,1.0518417004867218
9.564356435643564,1.06064388731304
9.584158415841586,1.0696063969835583
9.603960396039604,1.078691420866615
9.623762376237623,1.0878613547594678
9.643564356435645,1.0970789590926349
9.663366336633663,1.1063075025040494
9.683168316831683,1.1155108895363985
9.702970297029704,1.1246537734042716
9.722772277227723,1.1337016549082901
9.742574257425742,1.1426209686504485
9.762376237623764,1.151379157737151
9.782178217821782,1.1599447381532044
9.801980198019802,1.1682873539591445
9.821782178217823,1.1763778244128926
9.841584158415841,1.1841881840512873
9.861386138613861,1.1916917166927277
9.881188118811881,1.1988629842429417
9.900990099009901,1.2056778511055148
9.92079207920792,1.2121135049192713
9.94059405940594,1.2181484742686801
9.96039603960396,1.2237626439412213
9.98019801980198,1.22893726823914
10.0,1.2336549827918581
10.01980198019802,1.2378998152601137
10.03960396039604,1.2416571952734454
10.05940594059406,1.2449139638987832
10.07920792079208,1.2476583828993235
10.099009900990099,1.2498801440089196
10.118811881188119,1.2515703784181003
10.138613861386139,1.2527216666418985
10.158415841584159,1.2533280489178011
10.178217821782178,1.2533850362624281
10.198019801980198,1.2528896222984773
10.217821782178218,1.251840295947884
10.237623762376238,1.250237055072567
10.257425742574258,1.248081421130106
10.277227722772277,1.2453764548973751
10.297029702970297,1.2421267732999368
10.316831683168317,1.2383385673678997
10.336633663366337,1.2340196213196724
10.356435643564357,1.2291793327519287
10.376237623762377,1.223828733886714
10.396039603960396,1.2179805137935418
10.415841584158416,1.2116490414641723
10.435643564356436,1.2048503895697067
10.455445544554454,1.1976023586710658
10.475247524752476,1.189924501584351
10.495049504950495,1.1818381475192823
10.514851485148514,1.1733664255104475
10.534653465346535,1.1645342865455417
10.554455445544555,1.1553685236598634
10.574257425742573,1.1458977891113318
10.594059405940595,1.1361526075726351
10.613861386138614,1.1261653840774224
10.633663366336632,1.1159704052351065
10.653465346534654,1.1056038319859052
10.673267326732674,1.0951036819072073
10.693069306930692,1.0845097988104189
