Frequency (Hz),Amplitude
0.0,2.8034770112394325
0.04,2.802148990566299
0.08,2.798166400173748
0.12,2.79153365522501
0.16,2.7822581153022283
0.19999999999999998,2.770350085993446
0.24,2.755822821362105
0.27999999999999997,2.7386925275563327
0.32,2.718978367902931
0.36,2.696702469930343
0.39999999999999997,2.6718899348792755
0.44,2.644568850394006
0.48,2.6147703072469484
0.52,2.5825284211407546
0.5599999999999999,2.5478803608649843
0.6,2.5108663843690713
0.64,2.4715298846644447
0.6799999999999999,2.4299174479047503
0.72,2.386078926538054
0.76,2.3400675311106265
0.7999999999999999,2.291939945169736
0.84,2.241756468818382
0.88,2.1895811978915902
0.9199999999999999,2.135482247551201
0.96,2.079532031467436
1.0,2.021807610853452
1.04,1.962391131691727
1.0799999999999998,1.9013703738809258
1.1199999999999999,1.83883944321062
1.1600000000000001,1.774899646694277
1.2,1.7096606047692
1.24,1.64324167147465
1.28,1.5757737577101663
1.3199999999999998,1.5074016854918548
1.3599999999999999,1.4382872460855918
1.4,1.3686131964082426
1.44,1.2985885117029106
1.48,1.228455324485217
1.52,1.158498125381055
1.5599999999999998,1.089055980015669
1.5999999999999999,1.0205387085778521
1.64,0.9534481156844677
1.68,0.888405276348749
1.72,0.8261841877379282
1.76,0.7677499926043858
1.7999999999999998,0.7142951043795365
1.8399999999999999,0.6672572476450976
1.88,0.6282896011191175
1.92,0.5991416629282895
1.9599999999999997,0.581420259391561
2.0,0.5762588108241002
2.0399999999999996,0.5840171015628285
2.08,0.6041745647783001
2.12,0.6354842074978715
2.1599999999999997,0.6762916141471331
2.2,0.7248543993093484
2.2399999999999998,0.7795575927694456
2.28,0.839012333842843
2.3200000000000003,0.9020735833119609
2.36,0.9678168639994057
2.4,1.0355009575718477
2.44,1.1045303353202796
2.48,1.1744227549537194
2.5199999999999996,1.2447832502429041
2.56,1.315283996229799
2.6,1.385649000850653
2.6399999999999997,1.4556425556076986
2.68,1.5250605369164334
2.7199999999999998,1.5937238419775528
2.76,1.6614734154068986
2.8,1.7281664614339607
2.84,1.7936735422944114
2.88,1.8578763421640927
2.92,1.9206659338002745
2.96,1.9819414272965614
2.9999999999999996,2.041608911194631
3.04,2.09958061875452
3.08,2.155774268752399
3.1199999999999997,2.2101125424031003
3.16,2.262522667082591
3.1999999999999997,2.312936084306323
3.2399999999999998,2.361288184516906
3.28,2.407518095091435
3.32,2.4515685109163576
3.36,2.4933855591293583
3.4,2.532918691364957
3.44,2.570120598189028
3.4799999999999995,2.6049471414612078
3.52,2.6373573011923215
3.5599999999999996,2.66731313411924
3.5999999999999996,2.6947797417410944
3.64,2.7197252459786476
3.6799999999999997,2.7421207709556676
3.7199999999999998,2.7619404296749868
3.76,2.7791613145861596
3.7999999999999994,2.7937634912268985
3.84,2.8057299942751075
3.88,2.8150468254789582
3.9199999999999995,2.821702953044419
3.96,2.825690312157228
4.0,2.827003806403125
4.04,2.8256413099292783
4.079999999999999,2.82160367026385
4.12,2.8148947117820704
4.16,2.805521239878208
4.199999999999999,2.793493045975762
4.24,2.778822913585367
4.28,2.76152662570393
4.319999999999999,2.741622973942126
4.36,2.7191337698741
4.4,2.694083859226915
4.4399999999999995,2.666501139672925
4.4799999999999995,2.6364165831617274
4.5200000000000005,2.603864263937496
4.56,2.5688813936414707
4.6,2.5315083652108017
4.640000000000001,2.491788807669215
4.68,2.4497696543823926
4.72,2.405501227948219
4.76,2.359037345643291
4.8,2.3104354502983653
4.84,2.259756772686937
4.88,2.2070665330634727
4.92,2.1524341914893097
4.96,2.0959337591803857
5.0,2.0376441864998087
5.039999999999999,1.9776498476693116
5.08,1.9160411481563584
5.12,1.8529152885162643
5.159999999999999,1.7883772289324584
5.2,1.7225409127722184
5.24,1.6555308264979332
5.279999999999999,1.5874839990844607
5.319999999999999,1.5185525791923846
5.36,1.448907176066302
5.3999999999999995,1.378741214734141
5.4399999999999995,1.3082766426349233
5.48,1.2377714382907135
5.52,1.1675295153837124
5.56,1.0979137806102826
5.6,1.029363259260372
5.64,0.9624152589525968
5.68,0.897733285400918
5.72,0.8361403993399505
5.76,0.7786550558484897
5.8,0.7265208825703996
5.84,0.6812121308173524
5.879999999999999,0.6443839842532925
5.92,0.617730525171557
5.96,0.6027332020624013
5.999999999999999,0.6003464180276021
6.04,0.6107470269150785
6.08,0.6332851479636324
6.119999999999999,0.6666661676818573
6.16,0.7092572901856301
6.2,0.7593742162468964
6.239999999999999,0.8154673816264848
6.279999999999999,0.8762045767811644
6.32,0.9404835364947529
6.359999999999999,1.0074093822417385
6.3999999999999995,1.0762600582994268
6.44,1.1464516504873257
6.4799999999999995,1.217508347521432
6.52,1.289038167713693
6.56,1.3607140305592953
6.6,1.4322592602276116
6.64,1.5034365725762755
6.68,1.5740397267176223
6.72,1.6438871876726189
6.76,1.712817298759875
6.8,1.780684586689451
6.84,1.847356918499125
6.88,1.9127133017938385
6.92,1.9766421733656263
6.959999999999999,2.039040060765212
7.0,2.09981053043926
7.04,2.158863357433699
7.08,2.2161138674631666
7.119999999999999,2.2714824138717358
7.16,2.324893960757315
7.199999999999999,2.376277750095594
7.239999999999999,2.425567035654049
7.28,2.4726988702499635
7.32,2.5176139357828924
7.359999999999999,2.5602564076842795
7.3999999999999995,2.6005738471390374
7.4399999999999995,2.6385171157670033
7.4799999999999995,2.6740403084965947
7.52,2.7071007011862527
7.5600000000000005,2.7376587102021848
7.599999999999999,2.765677861682007
7.64,2.7911247686324034
7.68,2.813969114347563
7.719999999999999,2.834183640910857
7.76,2.851744141768917
7.800000000000001,2.8666294575550615
7.839999999999999,2.878821474496595
7.88,2.888305124874088
7.92,2.89506838911608
7.959999999999999,2.8991022992138173
8.0,2.90040094323135
8.040000000000001,2.898961470769882
8.08,2.894784099324189
8.12,2.8878721215459158
8.159999999999998,2.878231913506105
8.2,2.865872944129686
8.24,2.8508077860606553
8.28,2.833052128310928
8.32,2.812624791151961
8.36,2.789547743829361
8.399999999999999,2.763846125822317
8.44,2.7355482725363576
8.48,2.70468574651746
8.52,2.6712933755160115
8.56,2.635409299021681
8.6,2.597075025249051
8.639999999999999,2.5563355009965614
8.68,2.51323919735125
8.72,2.4678382148991864
8.76,2.4201884129654694
8.8,2.3703495685003846
8.84,2.3183855716176778
8.879999999999999,2.2643646665683477
8.92,2.208359749219662
8.959999999999999,2.150448735067578
9.0,2.090715015660448
9.040000000000001,2.029248026350467
9.079999999999998,1.9661439549197617
9.12,1.9015066294002447
9.16,1.8354486350682537
9.2,1.7680927261642847
9.24,1.6995736187401176
9.280000000000001,1.6300402790091941
9.32,1.5596588590758673
9.36,1.4886164819692635
9.399999999999999,1.4171261440269713
9.44,1.3454330882893224
9.48,1.2738231093276156
9.52,1.202633373602033
9.559999999999999,1.132266460684328
9.6,1.0632083956648546
9.639999999999999,0.9960513255074237
9.68,0.9315209259159412
9.72,0.8705071060140814
9.76,0.8140932839446623
9.8,0.7635734561573229
9.84,0.7204373013620332
9.879999999999999,0.6862948810557983
9.92,0.6627144725976637
9.959999999999999,0.6509758126133293
10.0,0.6518002588351918
10.04,0.6651718447020286
10.079999999999998,0.6903443038366579
10.12,0.7260297148944358
10.16,0.7706690912827644
10.2,0.8226733919669121
10.24,0.8805785489198651
10.280000000000001,0.9431154832431616
10.319999999999999,1.0092222358716296
10.36,1.0780260027176896
10.4,1.148813991192322
10.44,1.2210032735120726
10.48,1.294114033103581
10.52,1.3677474893064716
10.559999999999999,1.4415683651791877
10.6,1.5152912423952916
10.639999999999999,1.5886700467893276
10.68,1.6614899771105183
10.72,1.7335613095107307
10.76,1.8047146310541082
10.799999999999999,1.8747971592721782
10.84,1.9436698878016707
10.879999999999999,2.011205362198003
10.92,2.0772859384969173
10.96,2.1418024134269738
11.0,2.204652942288068
11.04,2.265742180732506
11.08,2.3249806017930785
11.12,2.382283950826522
11.16,2.4375728095647027
11.2,2.49077224691331
11.24,2.5418115390406717
11.28,2.5906239450481707
11.319999999999999,2.637146527396622
11.36,2.6813200084926767
11.4,2.7230886565738657
11.44,2.762400195388049
11.48,2.799205733231178
11.52,2.8334597077528065
11.559999999999999,2.8651198436122063
11.6,2.894147120607508
11.64,2.920505750335472
11.68,2.9441631597928644
11.72,2.9650899806195503
11.759999999999998,2.98326004292205
11.799999999999999,2.9986503728151264
11.84,3.0112411929865845
11.879999999999999,3.0210159257337312
11.92,3.0279611980443546
11.96,3.0320668484053335
11.999999999999998,3.0333259351218773
12.04,3.0317347460233406
12.08,3.027292809520594
12.12,3.020002907067806
12.16,3.00987108717109
12.200000000000001,2.99690668118049
12.239999999999998,2.98112232120334
12.28,2.962533960589411
12.32,2.9411608975654118
12.36,2.917025802742727
12.4,2.8901547513934505
12.44,2.86057726159236
12.479999999999999,2.82832633956484
12.52,2.79343853387347
12.559999999999999,2.7559540004320096
12.6,2.7159165807718235
12.64,2.6733738965238
12.68,2.62837746374609
12.719999999999999,2.5809828315604753
12.76,2.5312497506043616
12.799999999999999,2.4792423781220174
12.84,2.4250295281878835
12.88,2.3686849776817427
12.92,2.3102878413598
12.959999999999999,2.249923032872851
12.999999999999998,2.1876818331192975
13.04,2.123662593216904
13.08,2.0579716070727083
13.12,1.9907241986125532
13.16,1.9220460819789131
13.2,1.8520750704425077
13.239999999999998,1.7809632327231544
13.28,1.7088796255415493
13.32,1.6360137705034918
13.36,1.562580093962589
13.4,1.4888236120085694
13.44,1.4150272191095148
13.479999999999999,1.3415210233628219
13.52,1.26869424796628
13.559999999999999,1.197010248358705
13.6,1.1270250925837029
13.64,1.0594097500408426
13.68,0.9949749252868137
13.719999999999999,0.9346954739738667
13.76,0.8797275516640232
13.799999999999999,0.8314059027047601
13.84,0.7912022644092532
13.88,0.7606235789371828
13.919999999999998,0.7410397989318135
13.959999999999999,0.7334632494652849
14.0,0.7383453555919008
14.04,0.7554766657826104
14.08,0.7840393087585236
14.120000000000001,0.8227849675571764
14.16,0.8702575898070273
14.2,0.9249843731013004
14.239999999999998,0.9855994727603045
14.28,1.0509027511686848
14.32,1.1198730831628991
14.36,1.1916565412063773
14.399999999999999,1.2655439992529738
14.44,1.340946553308933
14.479999999999999,1.4173727945413188
14.52,1.4944094269853236
14.56,1.5717054384118208
14.6,1.6489594804530598
14.64,1.7259099379000544
14.68,1.8023271638749254
14.719999999999999,1.8780074219234255
14.76,1.9527681578286364
14.799999999999999,2.0264443016814755
14.84,2.098885366940151
14.879999999999999,2.169953166603155
14.919999999999998,2.239520008436854
14.959999999999999,2.307467263418038
15.0,2.373684226162257
15.04,2.4380672048331062
15.079999999999998,2.5005187922613663
15.120000000000001,2.560947280835473
15.159999999999998,2.6192661919900813
15.199999999999998,2.675393897447596
15.24,2.729253314232699
15.28,2.7807716592369567
15.319999999999999,2.8298802520263395
15.36,2.8765143568581695
15.399999999999999,2.9206130566568067
15.439999999999998,2.9621191531018902
15.48,3.00097908809617
15.52,3.03714288276649
15.559999999999999,3.070564090862025
15.600000000000001,3.101199763986462
15.639999999999999,3.1290104265653103
15.679999999999998,3.153960058829058
15.72,3.176016086405192
15.76,3.19514937537161
15.799999999999999,3.2113342318417617
15.84,3.224548405336943
15.879999999999999,3.2347730953607865
15.919999999999998,3.2419929607311806
15.96,3.2461961313505343
16.0,3.2473742222106736
16.04,3.245522349537781
16.080000000000002,3.240639149088705
16.12,3.2327267967163333
16.16,3.221791031431626
16.200000000000003,3.207841181306842
16.24,3.1908901926922044
16.279999999999998,3.1709546633608396
16.319999999999997,3.1480548803592563
16.36,3.1222148635287557
16.4,3.0934624158835997
16.439999999999998,3.0618291822935677
16.48,3.027350718231887
16.52,2.9900665707279273
16.56,2.9500203741240045
16.6,2.907259963798529
16.64,2.8618375117100117
16.68,2.8138096884732207
16.72,2.763237857743483
16.759999999999998,2.7101883100155852
16.799999999999997,2.6547325446132697
16.84,2.596947610750299
16.88,2.5369165212090357
16.919999999999998,2.474728755570749
16.96,2.4104808742555113
17.0,2.3442772701661907
17.04,2.2762310918404074
17.080000000000002,2.2064653811623494
17.12,2.135114480467853
17.16,2.062325779038624
17.2,1.9882618884351702
17.24,1.913103360913732
17.279999999999998,1.837052096400756
17.32,1.7603356220231419
17.36,1.683212474047116
17.4,1.6059789632107
17.44,1.5289776542241305
17.48,1.4526079227934325
17.52,1.377338935388811
17.56,1.3037252629174603
17.6,1.2324249714838114
17.64,1.1642192359600017
17.68,1.1000310118681453
17.72,1.040937767196076
17.759999999999998,0.988169630754737
17.799999999999997,0.9430803035999541
17.84,0.9070762438875852
17.88,0.8814947921037207
17.919999999999998,0.8674389356374379
17.96,0.8656034678592801
18.0,0.8761490253696838
18.04,0.8986746271838467
18.080000000000002,0.9323003194572639
18.12,0.9758242544541335
18.159999999999997,1.0278962824532525
18.2,1.0871614691189035
18.24,1.1523540283420408
18.279999999999998,1.22234455749997
18.32,1.2961536125808286
18.36,1.372945393462008
18.4,1.4520119373481328
18.44,1.53275431080074
18.48,1.6146642775162432
18.52,1.697307997944462
18.560000000000002,1.7803122402912064
18.6,1.863353047107435
18.64,1.9461465755819012
18.679999999999996,2.028441764723343
18.72,2.110014493572727
18.759999999999998,2.1906629359224556
18.799999999999997,2.270203866158061
18.84,2.3484697175884275
18.88,2.4253062351303845
18.919999999999998,2.500570597632293
18.96,2.574129911947285
19.0,2.6458600020578387
19.04,2.71564443314022
19.080000000000002,2.7833737233782334
19.119999999999997,2.848944706382224
19.159999999999997,2.9122600148810966
19.2,2.9732276624385174
19.24,3.0317607046931725
19.279999999999998,3.0877769653413716
19.32,3.141198815002618
19.36,3.191952993414373
19.4,3.2399704672293193
19.44,3.2851863171426983
19.48,3.3275396492404004
19.52,3.366973526393482
19.560000000000002,3.4034349162802786
19.6,3.4368746532315564
19.639999999999997,3.467247411596435
19.68,3.494511688740881
19.72,3.5186297961342783
19.759999999999998,3.5395678572681795
19.8,3.5572958113958286
19.84,3.5717874222916195
19.88,3.5830202914135287
19.919999999999998,3.590975875015671
19.96,3.59563950490762
20.0,3.5970004126971884
20.04,3.595051757488101
20.08,3.5897906571376472
20.119999999999997,3.581218223316023
20.159999999999997,3.5693396007525116
20.2,3.554164011208783
20.24,3.53570480289062
20.279999999999998,3.5139795062024137
20.32,3.4890098969696326
20.36,3.460822068511477
20.4,3.4294465142475463
20.44,3.3949182228805834
20.48,3.3572767886255592
20.52,3.316566539471168
20.560000000000002,3.272836687084458
20.599999999999998,3.2261415027301945
20.639999999999997,3.1765405245072986
20.68,3.1240988023486387
20.72,3.0688871886416305
20.759999999999998,3.0109826840747376
20.8,2.9504688504861987
20.84,2.8874363051973417
20.88,2.821983314693676
20.92,2.75421650974982
20.96,2.684251749400666
21.0,2.6122151678157945
21.04,2.5382444464713023
21.08,2.462490364429014
21.119999999999997,2.385118692475018
21.159999999999997,2.3063125128008544
21.2,2.2262750652255243
21.24,2.1452332437999253
21.279999999999998,2.063441893553453
21.32,1.9811890844270852
21.36,1.8988025639494637
21.4,1.8166576033402946
21.44,1.7351864369940833
21.48,1.6548894230652613
21.52,1.5763478728113824
21.56,1.500238128656677
21.599999999999998,1.4273458010433466
21.639999999999997,1.3585779642425355
21.68,1.2949694578812052
21.72,1.2376773257717955
21.759999999999998,1.1879553990157046
21.8,1.1471004730313346
21.84,1.1163646952895045
21.88,1.0968378075305527
21.92,1.089317199057724
21.96,1.0941973054097975
22.0,1.1114125746670773
22.04,1.140453672498028
22.08,1.1804505894871737
22.119999999999997,1.2302942521236393
22.16,1.2887620394192436
22.2,1.3546216076571944
22.24,1.426702242489753
22.28,1.5039349448773223
22.32,1.5853684635333904
22.36,1.670169607905247
22.4,1.7576147716473784
22.44,1.8470774978692872
22.48,1.9380150499010338
22.519999999999996,2.0299555980246584
22.56,2.1224867663407507
22.599999999999998,2.2152457799584457
22.639999999999997,2.3079111861316486
22.68,2.400195999203158
22.72,2.491842075405456
22.759999999999998,2.582615521193716
22.8,2.6723029556501596
22.84,2.7607084714894286
22.88,2.8476511641223796
22.92,2.9329631212297382
22.96,3.0164877852651415
23.0,3.098078618058386
23.04,3.1775980104512307
23.08,3.2549163910578716
23.119999999999997,3.3299114972215937
23.16,3.40246777843154
23.2,3.47247590821242
23.24,3.539832385092514
23.28,3.6044392069269104
23.32,3.6662036057925134
23.36,3.7250378330305103
23.400000000000002,3.7808589859103647
23.44,3.8335888689221393
23.479999999999997,3.883153883945635
23.519999999999996,3.9294849445553397
23.56,3.972517410545466
23.599999999999998,4.012191039437587
23.639999999999997,4.048449952292984
23.68,4.081242611617383
23.72,4.110521809535151
23.759999999999998,4.136244664739306
23.8,4.1583726270045
23.84,4.176871488293047
23.88,4.191711399697111
23.92,4.202866893650618
23.96,4.210316911018112
23.999999999999996,4.2140448328301465
24.04,4.214038516590434
24.08,4.210290337233577
24.119999999999997,4.202797232967963
24.16,4.191560756400691
24.2,4.1765871315151974
24.24,4.157887317261962
24.28,4.135477078734767
24.32,4.10937706714524
24.36,4.0796129100850385
24.400000000000002,4.046215313886987
24.439999999999998,4.0092201802745295
24.479999999999997,3.968668739936955
24.52,3.924607706201916
24.56,3.8770894526171644
24.599999999999998,3.8261722190253677
24.64,3.7719203516499764
24.68,3.7144045838450657
24.72,3.65370236554572
24.759999999999998,3.589898251147281
24.8,3.5230843576155717
24.84,3.4533609071775797
24.88,3.3808368720761126
24.92,3.3056307427303797
24.959999999999997,3.2278714453950728
24.999999999999996,3.1476994412511545
25.04,3.065268046022118
25.08,2.980745017942146
25.119999999999997,2.894314472463381
25.16,2.806179194692483
25.2,2.7165634352786174
25.24,2.625716292131769
25.28,2.533915798151707
25.32,2.4414738522389543
25.36,2.348742143479489
25.4,2.2561192195307855
25.439999999999998,2.16405882753175
25.479999999999997,2.073079588570945
25.52,1.983775921776575
25.56,1.8968298618501
25.599999999999998,1.8130229466661192
25.64,1.7332466110994753
25.68,1.6585084502743526
25.72,1.5899303419999797
25.76,1.5287330009177749
25.8,1.4762007344354813
25.84,1.433621142472057
25.880000000000003,1.4021986411460374
25.919999999999998,1.3829486427606974
25.959999999999997,1.3765893503876547
25.999999999999996,1.383455689275789
26.04,1.4034590054847564
26.08,1.4361044860374501
26.119999999999997,1.4805604844575395
26.16,1.5357593015325248
26.2,1.6005042759051442
26.24,1.6735631647529112
26.28,1.7537375246898188
26.32,1.839906694671373
26.36,1.9310503765646085
26.4,2.0262557387947115
26.439999999999998,2.124714683559118
26.479999999999997,2.2257156821560575
26.52,2.328633206106696
26.56,2.4329166326890985
26.599999999999998,2.5380796752301733
26.64,2.6436908468313653
26.68,2.749365138829907
26.72,2.8547569125788885
26.76,2.9595539112939706
26.8,3.063472260638721
26.84,3.1662523185297218
26.88,3.2676552417720637
26.919999999999998,3.367460151103682
26.959999999999997,3.465461792332149
27.0,3.5614686070487496
27.04,3.655301140762218
27.08,3.746790728789896
27.119999999999997,3.8357784108362947
27.16,3.922114034019422
27.2,4.005655511388202
27.24,4.086268208940348
27.28,4.163824439017338
27.32,4.2382030419152095
27.36,4.309289040772514
27.4,4.376973357418434
27.439999999999998,4.441152578998751
27.479999999999997,4.501728766938195
27.52,4.5586093012200966
27.56,4.611706754128825
27.599999999999998,4.660938788556828
27.64,4.706228076764801
27.68,4.747502236133245
27.72,4.784693778981269
27.76,4.817740073974895
27.8,4.846583317018993
27.839999999999996,4.871170509837599
27.88,4.891453444707672
27.919999999999998,4.907388694030341
27.959999999999997,4.918937603608515
28.0,4.9260662886560596
28.04,4.928745631696925
28.08,4.926951281625927
28.12,4.920663653300339
28.16,4.909867927115115
28.2,4.8945540480870635
28.240000000000002,4.87471672403654
28.28,4.85035542251047
28.32,4.821474366139495
