Frequency (Hz),Amplitude
0.0,6.270750600787332
0.019801980198019802,6.2716382362019445
0.039603960396039604,6.274296926159692
0.0594059405940594,6.278714053170563
0.07920792079207921,6.2848686921486765
0.09900990099009901,6.2927317647856
0.1188118811881188,6.30226625228124
0.13861386138613863,6.313427463163627
0.15841584158415842,6.326163352164385
0.1782178217821782,6.340414885467862
0.19801980198019803,6.356116447133045
0.21782178217821782,6.373196281107151
0.2376237623762376,6.3915769630112225
0.25742574257425743,6.411175895778367
0.27722772277227725,6.431905823257131
0.297029702970297,6.453675356044443
0.31683168316831684,6.476389504070096
0.33663366336633666,6.499950210800006
0.3564356435643564,6.524256884341553
0.37623762376237624,6.549206921201452
0.39603960396039606,6.57469621894782
0.4158415841584158,6.600619674545526
0.43564356435643564,6.626871665653286
0.45544554455445546,6.653346512678501
0.4752475247524752,6.679938919871093
0.495049504950495,6.706544394191219
0.5148514851485149,6.733059641102751
0.5346534653465347,6.75938293681878
0.5544554455445545,6.785414476856212
0.5742574257425742,6.811056701042299
0.594059405940594,6.83621459535749
0.613861386138614,6.860795971197824
0.6336633663366337,6.884711722799264
0.6534653465346534,6.9078760636881675
0.6732673267326733,6.930206743110765
0.6930693069306931,6.951625243453132
0.7128712871287128,6.972056959695922
0.7326732673267327,6.9914313619579405
0.7524752475247525,7.009682142173498
0.7722772277227723,7.026747345923563
0.7920792079207921,7.042569490402138
0.8118811881188118,7.0570956694505
0.8316831683168316,7.07027764653489
0.8514851485148516,7.0820719364791
0.8712871287128713,7.092439876695304
0.891089108910891,7.101347688584372
0.9108910891089109,7.108766529702125
0.9306930693069307,7.114672537212396
0.9504950495049505,7.119046863070469
0.9702970297029703,7.121875701302979
0.99009900990099,7.123150307672717
1.00990099009901,7.122867011938852
1.0297029702970297,7.121027222845514
1.0495049504950495,7.1176374258941335
1.0693069306930694,7.112709173877045
1.0891089108910892,7.106259070072677
1.108910891089109,7.098308743924921
1.1287128712871286,7.088884818951788
1.1485148514851484,7.078018872550623
1.1683168316831685,7.065747387290425
1.188118811881188,7.052111693204169
1.2079207920792079,7.037157900518556
1.227722772277228,7.020936822183441
1.2475247524752475,7.003503885490845
1.2673267326732673,6.984919032003851
1.2871287128712872,6.965246604950402
1.3069306930693068,6.944555223177555
1.3267326732673268,6.922917640709964
1.3465346534653466,6.900410590913852
1.3663366336633662,6.87711461423774
1.3861386138613863,6.853113868485538
1.405940594059406,6.828495920579836
1.4257425742574257,6.803351518796929
1.4455445544554455,6.7777743445022125
1.4653465346534653,6.751860742491293
1.4851485148514851,6.725709429149168
1.504950495049505,6.699421177783137
1.5247524752475248,6.67309848066637
1.5445544554455446,6.646845187551549
1.5643564356435644,6.620766120679947
1.5841584158415842,6.594966666621342
1.6039603960396038,6.569552345634451
1.6237623762376237,6.544628359634081
1.6435643564356437,6.520299120287076
1.6633663366336633,6.496667759227992
1.683168316831683,6.4738356228809035
1.7029702970297032,6.451901754884576
1.7227722772277227,6.430962369633737
1.7425742574257426,6.411110320953899
1.7623762376237624,6.392434570405888
1.782178217821782,6.375019660151216
1.801980198019802,6.358945195682729
1.8217821782178218,6.344285344017724
1.8415841584158414,6.331108353146535
1.8613861386138615,6.319476098612304
1.881188118811881,6.309443663054093
1.900990099009901,6.301058954367581
1.920792079207921,6.294362367819996
1.9405940594059405,6.289386496998688
1.9603960396039604,6.28615589788416
1.98019801980198,6.284686909626839
2.0,6.284987534792831
2.01980198019802,6.287057380947141
2.0396039603960396,6.290887664489702
2.0594059405940595,6.296461276678907
2.0792079207920793,6.303752910798688
2.099009900990099,6.312729248478127
2.118811881188119,6.323349202285833
2.1386138613861387,6.335564210919551
2.1584158415841586,6.34931858261666
2.1782178217821784,6.364549881839114
2.1980198019801978,6.381189353848192
2.217821782178218,6.399162381486156
2.237623762376238,6.418388968321697
2.257425742574257,6.4387842422909
2.2772277227722775,6.460258974063586
2.297029702970297,6.4827201045744856
2.3168316831683167,6.506071276463304
2.336633663366337,6.530213364549787
2.3564356435643563,6.555045000911343
2.376237623762376,6.580463090613496
2.3960396039603964,6.606363314650123
2.4158415841584158,6.632640617165173
2.4356435643564356,6.659189674536709
2.455445544554456,6.685905344395926
2.4752475247524752,6.712683093117808
2.495049504950495,6.739419400751037
2.514851485148515,6.766012142744526
2.5346534653465347,6.792360948176794
2.5544554455445545,6.818367534497455
2.5742574257425743,6.843936019050286
2.594059405940594,6.868973207863667
2.6138613861386135,6.893388862370257
2.633663366336634,6.917095944855491
2.6534653465346536,6.940010843537649
2.673267326732673,6.962053578254135
2.6930693069306932,6.983147987772886
2.712871287128713,7.003221899768076
2.7326732673267324,7.022207284499118
2.7524752475247527,7.040040393214286
2.7722772277227725,7.05666188226835
2.792079207920792,7.072016923900054
2.811881188118812,7.086055304562273
2.8316831683168315,7.098731511637463
2.8514851485148514,7.110004809305117
2.8712871287128716,7.119839304258422
2.891089108910891,7.128204001894036
2.910891089108911,7.135072853524574
2.9306930693069306,7.140424795087101
2.9504950495049505,7.144243777744268
2.9702970297029703,7.146518790697847
2.99009900990099,7.147243876456801
3.00990099009901,7.146418138725505
3.0297029702970297,7.144045743000126
3.0495049504950495,7.1401359098847
3.0693069306930694,7.134702901061463
3.089108910891089,7.127765997773169
3.108910891089109,7.1193494715987
3.128712871287129,7.109482547226564
3.148514851485148,7.098199356854545
3.1683168316831685,7.0855388857680905
3.1881188118811883,7.0715449085747775
3.2079207920792077,7.056265915498486
3.227722772277228,7.039755028065016
3.2475247524752473,7.02206990344197
3.267326732673267,7.003272626630295
3.2871287128712874,6.983429589645352
3.3069306930693068,6.962611356772097
3.3267326732673266,6.940892514934905
3.346534653465347,6.918351508189407
3.366336633663366,6.89507045532402
3.386138613861386,6.8711349495556915
3.4059405940594063,6.846633839320537
3.4257425742574257,6.82165898919881
3.4455445544554455,6.7963050200790995
3.4653465346534653,6.770669027760809
3.485148514851485,6.744850279322335
3.504950495049505,6.718949886745912
3.5247524752475248,6.693070457493576
3.5445544554455446,6.667315721972875
3.564356435643564,6.641790138117969
3.5841584158415842,6.616598473641564
3.603960396039604,6.591845366884774
3.6237623762376234,6.56763486760229
3.6435643564356437,6.544069959465626
3.6633663366336635,6.521252066539753
3.683168316831683,6.4992805464806915
3.702970297029703,6.478252173701871
3.722772277227723,6.458260616252895
3.7425742574257423,6.439395910630176
3.762376237623762,6.421743939179763
3.7821782178217824,6.405385915139556
3.801980198019802,6.390397880684984
3.8217821782178216,6.376850223570882
3.841584158415842,6.364807218087805
3.8613861386138613,6.354326596058874
3.881188118811881,6.345459153484575
3.9009900990099013,6.338248398189827
3.9207920792079207,6.3327302434400465
3.9405940594059405,6.328932751973521
3.96039603960396,6.326875934255563
3.98019801980198,6.32657160400985
4.0,6.3280232932437235
4.01980198019802,6.331226228079144
4.03960396039604,6.336167365757394
4.0594059405940595,6.3428254922306255
4.079207920792079,6.351171378816192
4.099009900990099,6.36116799549844
4.118811881188119,6.372770777642989
4.138613861386139,6.3859279421623185
4.158415841584159,6.40058084855811
4.178217821782178,6.41666439977626
4.198019801980198,6.434107477455122
4.217821782178218,6.452833405925629
4.237623762376238,6.472760439234343
4.257425742574258,6.49380226549583
4.2772277227722775,6.515868523032226
4.297029702970297,6.53886532300728
4.316831683168317,6.562695773596864
4.336633663366336,6.5872605011378225
4.356435643564357,6.612458164146733
4.376237623762377,6.638185956581072
4.3960396039603955,6.66434009721217
4.415841584158416,6.690816302477802
4.435643564356436,6.717510240669649
4.455445544554455,6.744317965776704
4.475247524752476,6.77113632974238
4.4950495049504955,6.797863372293868
4.514851485148514,6.824398687863275
4.534653465346535,6.850643769439619
4.554455445544555,6.8765023294665975
4.574257425742574,6.901880598135567
4.594059405940594,6.9266875996163275
4.613861386138614,6.950835406923311
4.633663366336633,6.974239376234532
4.653465346534653,6.996818361567763
4.673267326732674,7.018494910777204
4.693069306930693,7.039195443867043
4.712871287128713,7.058850414629847
4.732673267326733,7.077394456610442
4.752475247524752,7.094766514372972
4.772277227722772,7.110909961013187
4.792079207920793,7.125772702811569
4.811881188118812,7.139307271868574
4.8316831683168315,7.151470907501983
4.851485148514852,7.162225627120797
4.871287128712871,7.171538287220359
4.891089108910891,7.1793806350714755
4.910891089108912,7.185729351602605
4.930693069306931,7.190566085899526
4.9504950495049505,7.193877481671046
4.97029702970297,7.195655195954474
4.99009900990099,7.195895910257915
5.00990099009901,7.194601334261612
5.02970297029703,7.191778202124436
5.0495049504950495,7.187438261366724
5.069306930693069,7.1815982542250145
5.089108910891089,7.174279891299546
5.108910891089109,7.165509817240241
5.128712871287129,7.155319568142815
5.148514851485149,7.1437455202522795
5.1683168316831685,7.130828829498299
5.188118811881188,7.116615361315042
5.207920792079208,7.101155610127984
5.227722772277227,7.084504607823145
5.247524752475248,7.066721820450222
5.267326732673268,7.04787103235276
5.2871287128712865,7.028020216865415
5.306930693069307,7.007241392674619
5.326732673267327,6.985610464904181
5.346534653465346,6.963207049965724
5.366336633663367,6.94011428320673
5.3861386138613865,6.91641860840006
5.405940594059405,6.892209548150177
5.425742574257426,6.86757945434727
5.445544554455446,6.8426232378830685
5.465346534653465,6.817438076955953
5.485148514851486,6.792123103439451
5.504950495049505,6.766779066971706
5.524752475247524,6.741507976645117
5.544554455445545,6.71641272043678
5.564356435643565,6.691596662822741
5.584158415841584,6.667163221360738
5.603960396039604,6.643215423406061
5.623762376237624,6.619855444538743
5.643564356435643,6.5971841307224395
5.663366336633663,6.57530050667876
5.683168316831684,6.554301273435208
5.702970297029703,6.5342802984795165
5.7227722772277225,6.515328102414331
5.742574257425743,6.497531346439384
5.762376237623762,6.480972325376933
5.782178217821782,6.4657284712849705
5.801980198019803,6.45187187295413
5.821782178217822,6.439468816743631
5.841584158415841,6.428579354265504
5.861386138613861,6.419256902363204
5.881188118811881,6.411547880643796
5.900990099009901,6.405491391508377
5.920792079207921,6.401118947184261
5.9405940594059405,6.398454247702491
5.96039603960396,6.397513013093903
5.98019801980198,6.398302872315776
6.0,6.400823310585455
6.01980198019802,6.405065675914386
6.03960396039604,6.411013244727905
6.0594059405940595,6.418641345553279
6.079207920792079,6.427917538884609
6.099009900990099,6.438801850515766
6.118811881188119,6.451247054892684
6.138613861386139,6.465199004394228
6.158415841584159,6.480596999920651
6.178217821782178,6.4973741977602275
6.198019801980198,6.5154580474233414
6.217821782178218,6.534770754978548
6.237623762376237,6.5552297663932135
6.257425742574258,6.576748265462771
6.2772277227722775,6.599235681096495
6.297029702970296,6.622598198999844
6.316831683168317,6.646739273137732
6.336633663366337,6.6715601327635286
6.356435643564356,6.6969602812392015
6.376237623762377,6.7228379833360075
6.396039603960396,6.749090738179736
6.415841584158415,6.775615735475266
6.435643564356436,6.802310293102479
6.455445544554456,6.829072274609243
6.475247524752475,6.855800485531795
6.495049504950495,6.882395047841204
6.514851485148515,6.908757752145824
6.534653465346534,6.934792387570211
6.554455445544554,6.9604050494812855
6.574257425742575,6.98550442544383
6.594059405940594,7.010002059960166
6.6138613861386135,7.033812598686701
6.633663366336634,7.056854012925158
6.653465346534653,7.07904780526156
6.673267326732673,7.1003191972753745
6.693069306930694,7.120597300267136
6.712871287128713,7.139815269959239
6.732673267326732,7.157910446113336
6.752475247524753,7.174824477982986
6.772277227722772,7.190503436483415
6.792079207920792,7.204897913913566
6.811881188118813,7.21796311201217
6.8316831683168315,7.229658919069517
6.851485148514851,7.239949976752589
6.871287128712871,7.248805737233545
6.891089108910891,7.25620051114181
6.910891089108911,7.262113506788597
6.930693069306931,7.26652886104024
6.9504950495049505,7.269435662143498
6.97029702970297,7.270827964733048
6.99009900990099,7.270704797177674
7.00990099009901,7.269070161348449
7.02970297029703,7.265933024819106
7.0495049504950495,7.261307305435787
7.069306930693069,7.255211848120493
7.089108910891089,7.24767039370051
7.108910891089109,7.2387115394840205
7.128712871287128,7.228368691230751
7.148514851485149,7.216680006096632
7.1683168316831685,7.2036883260619575
7.188118811881187,7.189441101286007
7.207920792079208,7.173990302766034
7.227722772277228,7.1573923236181285
7.247524752475247,7.1397078682402295
7.267326732673268,7.12100182856747
7.287128712871287,7.101343146586555
7.306930693069306,7.080804662241683
7.326732673267327,7.059462945841988
7.346534653465347,7.037398114070997
7.366336633663366,7.014693628705457
7.3861386138613865,6.991436077176544
7.405940594059406,6.967714934153609
7.425742574257425,6.943622303402601
7.445544554455446,6.91925263927062
7.465346534653466,6.894702447277828
7.485148514851485,6.87006996346067
7.504950495049505,6.845454812307909
7.524752475247524,6.820957643365317
7.544554455445544,6.796679746856302
7.564356435643565,6.772722648974278
7.584158415841584,6.749187687846273
7.603960396039604,6.726175571543964
7.623762376237624,6.703785919922246
7.643564356435643,6.682116792491834
7.663366336633663,6.6612642049714275
7.683168316831684,6.641321637608704
7.702970297029703,6.62237953879414
7.7227722772277225,6.6045248279066575
7.742574257425743,6.587840401708943
7.762376237623762,6.572404648939903
7.782178217821782,6.558290978016177
7.801980198019803,6.545567362939887
7.821782178217822,6.534295912602418
7.841584158415841,6.524532468663778
7.861386138613862,6.516326237064555
7.881188118811881,6.509719457988532
7.900990099009901,6.504747118738389
7.92079207920792,6.501436713516456
7.9405940594059405,6.499808053527461
7.96039603960396,6.499873130150973
7.980198019801979,6.501636033185913
8.0,6.505092925367006
8.01980198019802,6.510232073516139
8.03960396039604,6.517033935844675
8.05940594059406,6.525471304089614
8.07920792079208,6.535509498371871
8.099009900990099,6.547106611930344
8.118811881188119,6.56021380223029
8.138613861386139,6.574775624385258
8.158415841584159,6.590730402378921
8.178217821782178,6.608010633235579
8.198019801980198,6.626543419067218
8.217821782178218,6.646250921819824
8.237623762376238,6.667050835547469
8.257425742574258,6.688856871149152
8.277227722772277,6.711579248701053
8.297029702970297,6.735125192790572
8.316831683168317,6.759399426595049
8.336633663366337,6.784304660832025
8.356435643564357,6.809742074124224
8.376237623762377,6.835611781758187
8.396039603960396,6.861813290256215
8.415841584158416,6.888245935617857
8.435643564356436,6.914809303508042
8.455445544554456,6.941403630067491
8.475247524752476,6.9679301823912505
8.495049504950495,6.994291618058086
8.514851485148515,7.020392323395092
8.534653465346535,7.046138730426518
8.554455445544555,7.071439612683599
8.574257425742575,7.096206360243365
8.594059405940595,7.120353234521708
8.613861386138613,7.143797603470084
8.633663366336634,7.166460157920592
8.653465346534654,7.18826510989144
8.673267326732672,7.2091403737088875
8.693069306930694,7.229017730824496
8.712871287128714,7.247832979210594
8.732673267326732,7.265526068206055
8.752475247524753,7.282041219659989
8.772277227722773,7.297327036185687
8.792079207920791,7.311336597293505
8.811881188118813,7.3240275441200655
8.831683168316832,7.335362153414603
8.85148514851485,7.345307401382392
8.871287128712872,7.353835017921392
8.891089108910892,7.360921531721483
8.91089108910891,7.366548306628101
8.930693069306932,7.370701569602799
8.950495049504951,7.373372430543727
8.97029702970297,7.374556894159043
8.990099009900991,7.374255864016026
9.00990099009901,7.372475138818773
9.029702970297029,7.369225400897429
9.04950495049505,7.364522196822412
9.06930693069307,7.3583859099878675
9.089108910891088,7.350841724940156
9.10891089108911,7.34191958315943
9.12871287128713,7.331654129935412
9.148514851485148,7.320084651913577
9.16831683168317,7.307255004824055
9.188118811881187,7.293213530845175
9.207920792079207,7.278012964995602
9.227722772277229,7.261710329895789
9.247524752475247,7.24436681819155
9.267326732673267,7.226047661891284
9.287128712871288,7.20682198783533
9.306930693069306,7.186762658493217
9.326732673267326,7.1659460972736975
9.346534653465348,7.144452097536051
9.366336633663366,7.122363614510848
9.386138613861386,7.099766539378471
9.405940594059407,7.076749454813573
9.425742574257425,7.053403371390014
9.445544554455445,7.029821444352174
9.465346534653467,7.006098670400221
9.485148514851485,6.982331564309036
9.504950495049505,6.9586178154053
9.524752475247526,6.935055924165645
9.544554455445544,6.911744819470088
9.564356435643564,6.888783457348981
9.584158415841586,6.866270402395388
9.603960396039604,6.844303393375662
9.623762376237623,6.82297889495206
9.643564356435645,6.80239163782879
9.663366336633663,6.782634150035525
9.683168316831683,6.763796282463115
9.702970297029704,6.745964732152261
9.722772277227723,6.7292225671961345
9.742574257425742,6.713648757438517
9.762376237623764,6.699317715417803
9.782178217821782,6.6862988522100455
9.801980198019802,6.674656152949897
9.821782178217823,6.664447776845451
9.841584158415841,6.655725686443323
9.861386138613861,6.648535310738133
9.881188118811881,6.642915246452493
9.900990099009901,6.638897001442127
9.92079207920792,6.6365047837089985
9.94059405940594,6.635755338943744
9.96039603960396,6.636657838878692
9.98019801980198,6.639213822030813
10.0,6.643417187668351
10.01980198019802,6.649254243066104
10.03960396039604,6.656703803344036
10.05940594059406,6.665737342433807
10.07920792079208,6.67631919300768
10.099009900990099,6.688406792554797
10.118811881188119,6.701950972214844
10.138613861386139,6.71689628449428
10.158415841584159,6.7331813656021255
10.178217821782178,6.750739327859183
10.198019801980198,6.769498177455452
10.217821782178218,6.7893812527551285
10.237623762376238,6.810307678370477
10.257425742574258,6.832192830337311
10.277227722772277,6.854948807915454
10.297029702970297,6.878484907794933
10.316831683168317,6.902708096800352
10.336633663366337,6.927523479538535
10.356435643564357,6.9528347578155225
10.376237623762377,6.978544679045051
10.396039603960396,7.004555471272203
10.415841584158416,7.030769262831683
10.435643564356436,7.057088485042453
10.455445544554454,7.083416256702703
10.475247524752476,7.10965674948516
10.495049504950495,7.135715533639861
10.514851485148514,7.161499903686858
10.534653465346535,7.1869191840228055
10.554455445544555,7.211885014575276
10.574257425742573,7.236311616814126
10.594059405940595,7.26011604057535
10.613861386138614,7.283218392268498
10.633663366336632,7.305542045128027
10.653465346534654,7.3270138322334795
10.673267326732674,7.3475642230658815
10.693069306930692,7.3671274843910926
10.712871287128714,7.3856418262667685
10.732673267326733,7.4030495339618305
10.752475247524751,7.419297086556211
10.772277227722773,7.434335262958315
10.792079207920793,7.4481192360380755
10.81188118811881,7.460608655527439
10.831683168316832,7.47176772028853
10.851485148514852,7.481565240494019
10.87128712871287,7.489974690204968
10.891089108910892,7.496974250770134
10.910891089108912,7.502546845407367
