Frequency (Hz),Amplitude
0.0,0.2163096994469983
0.019867549668874173,0.21667316363305986
0.039735099337748346,0.21775859552161114
0.059602649006622516,0.21955136253260954
0.07947019867549669,0.2220278784375552
0.09933774834437085,0.22515670677389643
0.11920529801324503,0.2288999291802725
0.13907284768211922,0.2332146443973288
0.15894039735099338,0.2380544713608522
0.17880794701986755,0.24337095351263635
0.1986754966887417,0.24911479329215214
0.2185430463576159,0.2552368783262318
0.23841059602649006,0.2616890888162511
0.2582781456953642,0.26842489637001227
0.27814569536423844,0.27539977760819223
0.2980132450331126,0.28257147230389107
0.31788079470198677,0.28990011724717146
0.33774834437086093,0.29734828519174417
0.3576158940397351,0.3048809546030017
0.3774834437086093,0.31246543156992607
0.3973509933774834,0.3200712408769441
0.4172185430463576,0.3276699992611336
0.4370860927152318,0.33523528049146845
0.45695364238410596,0.34274247914536765
0.4768211920529801,0.3501686777877655
0.49668874172185434,0.3574925206039564
0.5165562913907285,0.36469409531127306
0.5364238410596026,0.3717548242896977
0.5562913907284769,0.3786573652512012
0.5761589403973509,0.3853855213473641
0.5960264900662252,0.39192416034224026
0.6158940397350993,0.3982591423125547
0.6357615894039735,0.4043772552481223
0.6556291390728477,0.4102661578891282
0.6754966887417219,0.41591432913605786
0.695364238410596,0.42131102339017606
0.7152317880794702,0.42644623121898945
0.7350993377483444,0.43131064478504205
0.7549668874172186,0.4358956275242048
0.7748344370860927,0.4401931876083113
0.7947019867549668,0.4441959547740886
0.8145695364238411,0.4478971601456971
0.8344370860927152,0.4512906187203749
0.8543046357615894,0.4543707142259926
0.8741721854304636,0.4571323860951284
0.8940397350993378,0.459571118333485
0.9139072847682119,0.4616829300903898
0.9337748344370861,0.46346436776669847
0.9536423841059603,0.4649124985205049
0.9735099337748344,0.4660249050545489
0.9933774834437087,0.46679968159020285
1.0132450331125828,0.4672354309534735
1.033112582781457,0.46733126271709025
1.0529801324503312,0.46708679236114525
1.0728476821192052,0.4665021414321831
1.0927152317880795,0.4655779386981601
1.1125827814569538,0.4643153223139659
1.1324503311258278,0.4627159430301771
1.1523178807947019,0.46078196849573844
1.1721854304635762,0.458516088724883
1.1920529801324504,0.455921522818868
1.2119205298013245,0.4530020270553304
1.2317880794701985,0.4497619044820366
1.2516556291390728,0.4462060161782846
1.271523178807947,0.4423397943758976
1.2913907284768211,0.43816925766445625
1.3112582781456954,0.4337010285405111
1.3311258278145695,0.4289423536006823
1.3509933774834437,0.42390112672190505
1.370860927152318,0.41858591562119757
1.390728476821192,0.41300599224002305
1.410596026490066,0.4071713674565512
1.4304635761589404,0.401092830691038
1.4503311258278146,0.3947819950349724
1.4701986754966887,0.3882513486011994
1.4900662251655628,0.3815143128573863
1.5099337748344372,0.37458530876385887
1.5298013245033113,0.36747983158202646
1.5496688741721854,0.3602145352411153
1.5695364238410596,0.35280732713272733
1.5894039735099337,0.3452774741250161
1.609271523178808,0.33764572041974156
1.6291390728476822,0.32993441757701397
1.6490066225165563,0.3221676665498712
1.6688741721854303,0.3143714708332351
1.6887417218543048,0.3065738987509483
1.7086092715231789,0.2988052513712994
1.728476821192053,0.2910982304310654
1.7483443708609272,0.283488097829107
1.7682119205298013,0.2760128146050853
1.7880794701986755,0.26871314278415265
1.8079470198675496,0.2616326880960248
1.8278145695364238,0.2548178556304978
1.847682119205298,0.2483176845668594
1.8675496688741722,0.24218352327728299
1.8874172185430464,0.2364685039958339
1.9072847682119205,0.2312267790837536
1.9271523178807946,0.22651249126698364
1.9470198675496688,0.22237847039068
1.9668874172185429,0.2188746802890168
1.9867549668874174,0.2160464798212713
2.0066225165562916,0.21393280680617058
2.0264900662251657,0.2125644334214251
2.0463576158940397,0.21196246511858355
2.066225165562914,0.21213725168758957
2.086092715231788,0.21308784362506158
2.1059602649006623,0.2148020630628801
2.1258278145695364,0.21725717894675947
2.1456953642384105,0.2204210990594914
2.165562913907285,0.2242539341154948
2.185430463576159,0.22870976204008686
2.205298013245033,0.23373842481496207
2.2251655629139075,0.2392872189377988
2.2450331125827816,0.24530238243670244
2.2649006622516556,0.25173032542848606
2.2847682119205297,0.2585185893428098
2.3046357615894038,0.26561654804285106
2.324503311258278,0.2729758814650397
2.3443708609271523,0.28055086056731066
2.364238410596027,0.28829848375430284
2.384105960264901,0.2961785020273555
2.403973509933775,0.3041533649465733
2.423841059602649,0.3121881135673157
2.443708609271523,0.3202502407464651
2.463576158940397,0.3283095341015465
2.4834437086092715,0.3363379126448215
2.5033112582781456,0.34430926472216006
2.52317880794702,0.35219929228302804
2.543046357615894,0.3599853645710595
2.562913907284768,0.36764638292639523
2.5827814569536423,0.3751626574104847
2.6026490066225163,0.3825157952998549
2.622516556291391,0.3896886010645243
2.642384105960265,0.39666498718337906
2.662251655629139,0.40342989500425425
2.6821192052980134,0.40996922479280334
2.7019867549668874,0.41626977410544713
2.7218543046357615,0.4223191836469134
2.741721854304636,0.42810588982024145
2.76158940397351,0.43361908323514586
2.781456953642384,0.4388486725047515
2.801324503311258,0.44378525272513963
2.821192052980132,0.4484200780953124
2.8410596026490067,0.4527450381949107
2.8609271523178808,0.45675263749242384
2.8807947019867552,0.460435977707975
2.9006622516556293,0.4637887427010093
2.9205298013245033,0.46680518559561424
2.9403973509933774,0.46948011789406735
2.9602649006622515,0.4718089003638388
2.9801324503311255,0.47378743551419594
3.0,0.47541216150698323
3.0198675496688745,0.47668004737170694
3.0397350993377485,0.47758858941907634
3.0596026490066226,0.4781358087689089
3.0794701986754967,0.47832024992924377
3.0993377483443707,0.47814098038325986
3.119205298013245,0.4775975911597368
3.1390728476821192,0.4766901983819224
3.1589403973509933,0.4754194458086309
3.1788079470198674,0.473786508400976
3.198675496688742,0.4717930969687027
3.218543046357616,0.46944146397153574
3.23841059602649,0.46673441057468756
3.2582781456953644,0.4636752950827801
3.2781456953642385,0.4602680429052752
3.2980132450331126,0.45651715823756767
3.3178807947019866,0.45242773767791233
3.3377483443708607,0.4480054860402215
3.3576158940397347,0.44325673466905835
3.3774834437086096,0.4381884626150883
3.3973509933774837,0.4328083210892231
3.4172185430463577,0.42712466168220453
3.437086092715232,0.4211465689144748
3.456953642384106,0.4148838977701854
3.47682119205298,0.4083473169705151
3.4966887417218544,0.4015483588550939
3.5165562913907285,0.394499476867623
3.5364238410596025,0.38721411178149984
3.556291390728477,0.37970676795206626
3.576158940397351,0.371993101039589
3.596026490066225,0.36409001880468467
3.615894039735099,0.35601579672213346
3.6357615894039736,0.34779021027104995
3.6556291390728477,0.33943468580816155
3.6754966887417218,0.3309724718697122
3.695364238410596,0.32242883250941096
3.7152317880794703,0.3138312637664191
3.7350993377483444,0.30520973343166163
3.754966887417219,0.2965969427569477
3.774834437086093,0.2880286063812182
3.794701986754967,0.27954374322290304
3.814569536423841,0.27118496603970293
3.834437086092715,0.26299875040275555
3.854304635761589,0.25503565465131517
3.8741721854304636,0.24735045089388738
3.8940397350993377,0.24000211370632019
3.9139072847682117,0.2330535991424212
3.9337748344370858,0.2265713346884857
3.9536423841059607,0.22062433533870152
3.9735099337748347,0.21528286838894303
3.993377483443709,0.21061661723494376
4.013245033112583,0.2066923485909094
4.033112582781457,0.2035711691871818
4.052980132450331,0.2013055585129863
4.072847682119205,0.1999364623262125
4.0927152317880795,0.19949079610916856
4.112582781456953,0.1999797068902947
4.132450331125828,0.20139785936673937
4.152317880794702,0.20372385907046742
4.172185430463576,0.20692174049891437
4.19205298013245,0.21094328419031005
4.211920529801325,0.21573082712539063
4.231788079470199,0.2212202128859141
4.251655629139073,0.22734358023046075
4.271523178807947,0.23403178163719032
4.291390728476821,0.24121632467194368
4.311258278145695,0.24883081515493802
4.33112582781457,0.2568119409105277
4.3509933774834435,0.2651000677538037
4.370860927152318,0.27363953067147584
4.390728476821192,0.282378700166017
4.410596026490066,0.2912698930410975
4.43046357615894,0.3002691833454315
4.450331125827815,0.3093361557576792
4.470198675496689,0.31843363192605256
4.490066225165563,0.32752739073354303
4.509933774834438,0.33658589614125345
4.529801324503311,0.3455800408912995
4.549668874172186,0.35448291055772213
4.569536423841059,0.36326956985406816
4.589403973509934,0.3719168714211638
4.6092715231788075,0.38040328627447023
4.629139072847682,0.3887087544897263
4.649006622516556,0.39681455440506336
4.66887417218543,0.4047031885125345
4.688741721854305,0.41235828423007825
4.708609271523179,0.41976450783520913
4.728476821192054,0.42690748997210176
4.748344370860927,0.43377376129113293
4.768211920529802,0.44035069693139217
4.788079470198675,0.44662646870320566
4.80794701986755,0.4525900039651931
4.827814569536423,0.4582309503158835
4.847682119205298,0.46353964533319014
4.867549668874172,0.46850709069568547
4.887417218543046,0.4731249301088556
4.9072847682119205,0.4773854305377686
4.927152317880794,0.48128146631629154
4.947019867549669,0.4848065057631643
4.966887417218543,0.4879545999879018
4.986754966887418,0.49072037361567744
5.006622516556291,0.49309901720103216
5.026490066225166,0.4950862811361909
5.04635761589404,0.49667847089179473
5.066225165562914,0.49787244345663517
5.086092715231788,0.4986656048690711
5.105960264900662,0.4990559087568981
5.125827814569536,0.49904185582488114
5.14569536423841,0.49862249425068006
5.1655629139072845,0.49779742097071383
5.185430463576159,0.49656678385813663
5.205298013245033,0.494931284816448
5.225165562913908,0.4928921838338114
5.245033112582782,0.49045130406675597
5.264900662251656,0.48761103804684525
5.28476821192053,0.4843743551320114
5.304635761589404,0.4807448103548793
5.324503311258278,0.47672655485610116
5.344370860927152,0.47232434813062046
5.364238410596027,0.46754357236175875
5.3841059602649,0.4623902491719774
5.403973509933775,0.45687105918295073
5.4238410596026485,0.450993364852257
5.443708609271523,0.4447652371421496
5.463576158940397,0.43819548668061825
5.483443708609272,0.43129370019871793
5.503311258278146,0.4240702831756404
5.52317880794702,0.41653650979770124
5.543046357615895,0.40870458154519557
5.562913907284768,0.4005876959668217
5.582781456953643,0.39220012749147853
5.602649006622516,0.3835573224675356
5.622516556291391,0.37467601101523723
5.642384105960264,0.3655743387323633
5.662251655629139,0.35627202180509
5.682119205298013,0.3467905296365285
5.701986754966887,0.337153299691923
5.7218543046357615,0.32738598982594996
5.741721854304636,0.3175167738213465
5.7615894039735105,0.3075766860864373
5.781456953642384,0.29760002120078616
5.801324503311259,0.2876247928945895
5.821192052980132,0.2776932545374602
5.841059602649007,0.26785247846669913
5.860927152317881,0.2581549833340992
5.880794701986755,0.24865938554098874
5.900662251655629,0.239431030889834
5.920529801324503,0.23054253391659327
5.940397350993377,0.22207411384675993
5.960264900662251,0.2141135688910442
5.980132450331126,0.2067556806325343
6.0,0.20010080163591226
6.0198675496688745,0.19425237703462303
6.039735099337749,0.18931321921125294
6.059602649006623,0.18538052756533177
6.079470198675497,0.18253993280504144
6.099337748344371,0.18085920296131608
6.119205298013245,0.18038256107674375
6.139072847682119,0.18112667376632904
6.158940397350993,0.18307915713600637
6.178807947019867,0.1861999289997898
6.198675496688741,0.19042509209605488
6.218543046357616,0.1956725129333279
6.23841059602649,0.20184804374445342
6.258278145695365,0.20885143905762737
6.2781456953642385,0.2165813265012952
6.298013245033113,0.22493894615886195
6.317880794701987,0.2338306590784942
6.337748344370861,0.24316939885138564
6.357615894039735,0.25287530989343054
6.377483443708609,0.26287581535151017
6.397350993377484,0.27310532046533
6.417218543046357,0.2835047084496103
6.437086092715232,0.2940207395639993
6.456953642384105,0.30460542602868984
6.47682119205298,0.31521542705473327
6.496688741721854,0.3258114884339728
6.516556291390729,0.3363579380443501
6.5364238410596025,0.34682224044277093
6.556291390728477,0.357174608914973
6.5761589403973515,0.36738767077668255
6.596026490066225,0.37743618055374634
6.6158940397351,0.3872967753526579
6.635761589403973,0.3969477669022125
6.655629139072848,0.40636896516875004
6.675496688741721,0.4155415289800554
6.695364238410596,0.4244478396510154
6.715231788079469,0.4330713941425684
6.735099337748344,0.44139671477884657
6.754966887417219,0.4494092729874945
6.774834437086093,0.4570954249118829
6.794701986754967,0.4644423570751587
6.814569536423841,0.47143804055818966
6.8344370860927155,0.47807119239369134
6.854304635761589,0.48433124308111963
6.874172185430464,0.4902083092980271
6.894039735099337,0.4956931710273722
6.913907284768212,0.5007772524417597
6.933774834437086,0.5054526059873543
6.95364238410596,0.5097118991971098
6.973509933774834,0.5135484038353222
6.993377483443709,0.5169559870382273
7.013245033112583,0.519929104167735
7.033112582781457,0.522462793141199
7.052980132450331,0.5245526700391788
7.072847682119205,0.5261949258273173
7.0927152317880795,0.5273863240588039
7.112582781456954,0.5281241994504096
7.132450331125828,0.5284064572498526
7.152317880794702,0.528231573334653
7.172185430463576,0.5275985950037635
7.19205298013245,0.5265071424442519
7.211920529801324,0.5249574108752905
7.231788079470198,0.5229501733931053
7.251655629139073,0.5204867845617968
7.271523178807947,0.5175691848188354
7.291390728476822,0.5141999057894283
7.311258278145695,0.5103820766328095
7.33112582781457,0.5061194315762628
7.3509933774834435,0.5014163188303078
7.370860927152318,0.4962777111229699
7.390728476821192,0.4907092181429469
7.410596026490066,0.484717101243875
7.430463576158941,0.47830829083642923
7.450331125827814,0.47149040698518835
7.470198675496689,0.46427178383651346
7.490066225165562,0.456661498637344
7.509933774834438,0.44866940626835883
7.52980132450331,0.44030618041644626
7.549668874172186,0.43158336275985903
7.569536423841059,0.42251342184763563
7.589403973509934,0.41310982373725574
7.6092715231788075,0.4033871169307953
7.629139072847682,0.3933610347432881
7.649006622516557,0.3830486189778164
7.66887417218543,0.37246836970507163
7.6887417218543055,0.3616404270943869
7.708609271523178,0.3505867926669493
7.728476821192054,0.33933159909332394
7.748344370860927,0.32790143978533637
7.768211920529802,0.3163257720685137
7.788079470198675,0.30463741064889677
7.80794701986755,0.2928731312891876
7.827814569536423,0.28107440776399206
7.847682119205298,0.26928830757930955
7.8675496688741715,0.25756857226115026
7.887417218543046,0.24597690375781656
7.907284768211921,0.23458446535367383
7.927152317880795,0.22347357641134
7.9470198675496695,0.21273952453309578
7.966887417218543,0.20249232183820082
7.986754966887418,0.1928580782398907
8.006622516556291,0.18397944603550717
8.026490066225167,0.17601432803934863
8.046357615894038,0.16913182207737248
8.066225165562914,0.16350438604636972
8.086092715231787,0.1592957268772411
8.105960264900663,0.15664515837227322
8.125827814569536,0.1556509693047495
8.14569536423841,0.15635687500163195
8.165562913907285,0.15874569066775235
8.185430463576159,0.16274236052054775
8.205298013245034,0.1682252583972729
8.225165562913906,0.17504209576190302
8.245033112582782,0.18302614511994206
8.264900662251655,0.19200964450913233
8.28476821192053,0.2018330646930675
8.304635761589404,0.21235038559302338
8.324503311258278,0.22343127409236951
8.344370860927151,0.2349612074995021
8.364238410596027,0.24684042410673698
8.3841059602649,0.25898232587859754
8.403973509933774,0.27131172435066947
8.42384105960265,0.2837631476613127
8.443708609271523,0.2962793134624265
8.463576158940398,0.3088098051107221
8.483443708609272,0.32130995192226763
8.503311258278146,0.33373989655117425
8.52317880794702,0.3460638256642827
8.543046357615895,0.35824933897654565
8.562913907284768,0.370266933408043
8.582781456953642,0.3820895819571874
8.602649006622515,0.3936923899802267
8.62251655629139,0.4050523144980333
8.642384105960264,0.41614793473969924
8.66225165562914,0.4269592643313288
8.682119205298013,0.4374675973622651
8.701986754966887,0.4476553820512776
8.721854304635762,0.45750611694280935
8.741721854304636,0.46700426553535146
8.76158940397351,0.47613518602542493
8.781456953642383,0.48488507347688353
8.801324503311259,0.49324091222812966
8.821192052980132,0.5011904367536816
8.841059602649008,0.508722099521475
8.86092715231788,0.5158250446493372
8.880794701986755,0.5224890863764876
8.90066225165563,0.528704691537454
8.920529801324504,0.5344629653664356
8.940397350993377,0.5397556400742971
8.960264900662251,0.5445750657346089
8.980132450331126,0.548914203092545
9.0,0.5527666179747186
9.019867549668875,0.5561264770316208
9.039735099337747,0.5589885445890928
9.059602649006623,0.5613481804235256
9.079470198675496,0.5632013383075352
9.099337748344372,0.564544565201185
9.119205298013245,0.5653750009880636
9.139072847682119,0.5656903786773633
9.158940397350994,0.5654890250128493
9.178807947019868,0.5647698614479382
9.198675496688743,0.5635324054632761
9.218543046357615,0.5617767722206702
9.23841059602649,0.5595036765639799
9.258278145695364,0.5567144353956809
9.27814569536424,0.5534109704768473
9.298013245033111,0.5495958117190571
9.317880794701987,0.5452721010605464
9.33774834437086,0.5404435970454472
9.357615894039736,0.535114680256696
9.37748344370861,0.5292903597900506
9.397350993377483,0.5229762810012074
9.417218543046358,0.5161787348115702
9.437086092715232,0.5089046689239403
9.456953642384107,0.5011617013797981
9.47682119205298,0.49295813698995244
9.496688741721854,0.48430298729455606
9.516556291390728,0.4752059948653121
9.536423841059603,0.465677662959736
9.556291390728477,0.45572929178865473
9.57615894039735,0.445373022978909
9.596026490066224,0.4346218942257909
9.6158940397351,0.4234899066640769
9.635761589403973,0.4119921081813721
9.655629139072847,0.4001446968080874
9.675496688741722,0.387965149517504
9.695364238410596,0.3754723833586504
9.715231788079471,0.3626869579613872
9.735099337748345,0.3496313312879155
9.754966887417218,0.3363301843157178
9.774834437086092,0.32281083547726147
9.794701986754967,0.30910377262223254
9.814569536423841,0.2952433396255375
9.834437086092716,0.28126862730418845
9.854304635761588,0.26722463488905646
9.874172185430464,0.25316378967199166
9.894039735099337,0.23914793867360687
9.913907284768213,0.225250955246664
9.933774834437086,0.21156212830361157
9.95364238410596,0.19819050368052227
9.973509933774835,0.18527028363840098
9.993377483443709,0.17296717509622017
10.013245033112582,0.16148505405569388
10.033112582781456,0.15107125652147113
10.052980132450331,0.14201703645984828
10.072847682119205,0.13464755118908725
10.09271523178808,0.12929478688952692
10.112582781456952,0.12625059201431982
10.132450331125828,0.12570822614150098
10.152317880794701,0.1277148324544391
10.172185430463577,0.1321595963805874
10.192052980132452,0.13880438717865673
10.211920529801324,0.1473394050722464
10.2317880794702,0.15743786630118486
10.251655629139073,0.16879361015193864
10.271523178807948,0.18113942976671574
10.29139072847682,0.1942514984155956
10.311258278145695,0.20794628287382785
10.331125827814569,0.22207450901652437
10.350993377483444,0.23651469110942802
10.370860927152318,0.2511673297919801
10.390728476821192,0.2659501178587636
10.410596026490065,0.2807941419989406
10.43046357615894,0.29564093913245443
10.450331125827816,0.3104402394759684
10.470198675496688,0.3251482431914112
10.490066225165563,0.33972630452826225
10.509933774834437,0.3541399246922421
10.529801324503312,0.3683579780476051
