Frequency (Hz),Amplitude
0.0,7.399970868087702
0.01993355481727575,7.396746724258306
0.0398671096345515,7.387078584096112
0.059800664451827246,7.3709793275671265
0.079734219269103,7.348470441411324
0.09966777408637874,7.319582049936751
0.11960132890365449,7.284352959345888
0.13953488372093023,7.242830716847102
0.159468438538206,7.195071686218183
0.17940199335548174,7.141141141948226
0.19933554817275748,7.08111338460107
0.21926910299003324,7.015071880634082
0.23920265780730898,6.943109430587691
0.25913621262458475,6.8653283703552255
0.27906976744186046,6.78184081117462
0.29900332225913623,6.692768925083808
0.318936877076412,6.598245283886779
0.3388704318936877,6.498413261231505
0.3588039867109635,6.393427509256548
0.37873754152823924,6.283454523484405
0.39867109634551495,6.168673312300342
0.4186046511627907,6.04927619054574
0.4385382059800665,5.925469720576102
0.4584717607973422,5.7974758287035
0.47840531561461797,5.665533130388633
0.49833887043189373,5.529898504001342
0.5182724252491695,5.390848960552683
0.5382059800664452,5.2486838656040025
0.5581395348837209,5.103727579583524
0.5780730897009968,4.956332593834501
0.5980066445182725,4.806883251436534
0.6179401993355482,4.6558001532408575
0.637873754152824,4.503545358869735
0.6578073089700996,4.3506284965421544
0.6777408637873754,4.1976138892978545
0.6976744186046512,4.045128780110489
0.717607973421927,3.8938726814679816
0.7375415282392027,3.7446277667864263
0.7574750830564785,3.5982700339015343
0.7774086378737541,3.4557806684605707
0.7973421926910299,3.3182565748676707
0.8172757475083057,3.186918386305889
0.8372093023255814,3.063113403850814
0.8571428571428572,2.9483099136992075
0.877076411960133,2.8440784034171607
0.8970099667774087,2.75205478002679
0.9169435215946844,2.6738814714156254
0.9368770764119602,2.611125057980472
0.9568106312292359,2.56517428345219
0.9767441860465116,2.537129334048121
0.9966777408637875,2.5276999554563755
1.0166112956810631,2.5371328868082714
1.036544850498339,2.5651853917549996
1.0564784053156147,2.611151423773682
1.0764119601328903,2.673933954555617
1.0963455149501662,2.7521467252830174
1.1162790697674418,2.844224944907089
1.1362126245847177,2.9485273404373515
1.1561461794019936,3.063418633076444
1.176079734219269,3.187328557839704
1.196013289036545,3.3187887573728694
1.2159468438538206,3.456451657604038
1.2358803986710964,3.5990962199256495
1.255813953488372,3.7456250512094997
1.275747508305648,3.895056426694506
1.2956810631229239,4.046513779967536
1.3156146179401993,4.199214352145467
1.3355481727574752,4.3524580354091364
1.3554817275747508,4.505616985089545
1.3754152823920267,4.658126271454351
1.3953488372093024,4.809475654749852
1.4152823920265782,4.959202458510642
1.435215946843854,5.106885459011603
1.4551495016611296,5.252139683507676
1.4750830564784054,5.394612003521697
1.495016611295681,5.533977413493631
1.514950166112957,5.6699358943771765
1.5348837209302328,5.80220977314854
1.5548172757475083,5.930541500896994
1.5747508305647842,6.054691783255143
1.5946843853820598,6.17443800694874
1.6146179401993357,6.289572915048133
1.6345514950166113,6.399903491087931
1.6544850498338872,6.505250018676445
1.6744186046511629,6.6054452886632875
1.6943521594684385,6.700333930504358
1.7142857142857144,6.789771848286259
1.73421926910299,6.873625745063363
1.754152823920266,6.951772721822953
1.7740863787375416,7.0240999396159145
1.7940199335548175,7.090504335246977
1.8139534883720931,7.150892382473809
1.8338870431893688,7.205179891969815
1.8538205980066447,7.253291844406664
1.8737541528239203,7.295162251945081
1.893687707641196,7.330734044217358
1.9136212624584719,7.359958975566979
1.9335548172757475,7.382797550901977
1.9534883720930232,7.399218968036414
1.9734219269102993,7.409201074853787
1.993355481727575,7.412730340041199
2.0132890365448506,7.409801836524695
2.0332225913621262,7.400419237094293
2.0531561461794023,7.384594822052859
2.073089700996678,7.362349499063297
2.0930232558139537,7.3337128357140084
2.1129568106312293,7.298723105681453
2.132890365448505,7.257427349750752
2.1528239202657806,7.209881453370704
2.1727574750830567,7.156150242880491
2.1926910299003324,7.096307603064127
2.212624584717608,7.030436619281311
2.2325581395348837,6.958629748107065
2.25249169435216,6.880989021209621
2.2724252491694354,6.797626288130417
2.292358803986711,6.708663504733791
2.312292358803987,6.6142330754025425
2.332225913621263,6.514478258613061
2.352159468438538,6.409553647383751
2.3720930232558137,6.299625738314881
2.39202657807309,6.184873605602979
2.4119601328903655,6.0654896996053935
2.431893687707641,5.941680793353973
2.4518272425249172,5.813669104985657
2.471760797342193,5.681693629499
2.4916943521594686,5.546011719689611
2.511627906976744,5.406900963683326
2.5315614617940203,5.264661415256929
2.551495016611296,5.119618243111243
2.5714285714285716,4.972124876277928
2.5913621262458477,4.822566734443254
2.611295681063123,4.671365643202882
2.6312292358803986,4.518985043331264
2.6511627906976742,4.36593610692791
2.6710963455149503,4.2127848665645535
2.691029900332226,4.060160437897256
2.7109634551495017,3.9087643585908203
2.7308970099667778,3.759380957416689
2.7508305647840534,3.612888479566437
2.770764119601329,3.470270391498017
2.7906976744186047,3.3326258291213833
2.810631229235881,3.201177499525893
2.8305647840531565,3.0772744905324556
2.850498338870432,2.962386451167823
2.870431893687708,2.858084692232882
2.8903654485049834,2.766005354102718
2.910299003322259,2.6877905781955875
2.9302325581395348,2.6250063766929475
2.950166112956811,2.5790410587846813
2.9700996677740865,2.5509950406098456
2.990033222591362,2.5415794654574357
3.0099667774086383,2.5510439282630477
3.029900332225914,2.579149941183115
3.0498338870431896,2.6251966583943736
3.0697674418604657,2.6880925145578356
3.089700996677741,2.76645624533899
3.1096345514950166,2.858727005982197
3.129568106312292,2.963266096217666
3.1495016611295683,3.0784393682804647
3.169435215946844,3.2026763721634786
3.1893687707641196,3.3345074840560485
3.2093023255813957,3.4725830518473377
3.2292358803986714,3.615679402914464
3.249169435215947,3.762696169936225
3.2691029900332227,3.9126484817135276
3.289036544850499,4.064656575505881
3.3089700996677744,4.217934530079508
3.32890365448505,4.371779163006212
3.3488372093023258,4.525559674260484
3.3687707641196014,4.678708313809539
3.388704318936877,4.830712161845393
3.4086378737541527,4.981106000447617
3.428571428571429,5.129466197248888
3.4485049833887045,5.275405495615572
3.46843853820598,5.418568598856975
3.4883720930232562,5.558628439589467
3.508305647840532,5.69528303434806
3.5282392026578075,5.828252834705691
3.548172757475083,5.957278497725807
3.5681063122923593,6.082119009569706
3.588039867109635,6.202550106044744
3.60797342192691,6.318362942645945
3.6279069767441863,6.429362974209134
3.647840531561462,6.535369010738106
3.6677740863787376,6.636212421412449
3.6877076411960132,6.731736463353743
3.7076411960132893,6.821795715554015
3.727574750830565,6.906255601565564
3.7475083056478407,6.984991987218696
3.7674418604651168,7.057890841860684
3.787375415282392,7.124847953471281
3.807308970099668,7.185768689569854
3.8272425249169437,7.240567797139257
3.8471760797342194,7.289169235897052
3.867109634551495,7.331506040180984
3.887043189368771,7.367520205513671
3.9069767441860463,7.397162596597312
3.9269102990033224,7.420392874082741
3.9468438538205985,7.437179437978227
3.9667774086378738,7.4474993860254015
3.98671096345515,7.45133848578717
4.0066445182724255,7.448691159576619
4.026578073089701,7.439560481716759
4.046511627906977,7.423958187968944
4.0664451827242525,7.401904697310751
4.086378737541528,7.373429146592613
4.106312292358805,7.338569438964199
4.1262458471760795,7.297372307346831
4.146179401993356,7.24989339464745
4.166112956810632,7.196197352874097
4.186046511627907,7.136357963836251
4.205980066445183,7.070458284710751
4.225913621262459,6.998590822442926
4.245847176079734,6.920857741755869
4.26578073089701,6.8373711124817484
4.2857142857142865,6.748253203040093
4.305647840531561,6.65363682820462
4.325581395348838,6.553665760866548
4.345514950166113,6.4484952193713925
4.365448504983389,6.338292444240173
4.385382059800665,6.223237380759916
4.40531561461794,6.103523487129209
4.425249169435216,5.97935869167323
4.445182724252492,5.850966527213154
4.465116279069767,5.718587476110198
4.485049833887043,5.582480565930918
4.50498338870432,5.4429252632107765
4.524916943521594,5.3002237215012595
4.544850498338871,5.154703449757296
4.5647840531561465,5.006720477975676
4.584717607973422,4.856663108349812
4.604651162790698,4.7049563510700585
4.624584717607974,4.552067152437473
4.644518272425249,4.398510525988138
4.664451827242526,4.244856689558284
4.6843853820598005,4.091739284198043
4.704318936877076,3.9398646915101825
4.724252491694353,3.7900223550050893
4.7441860465116275,3.6430958212202658
4.764119601328904,3.5000739121813123
4.78405315614618,3.362060981564084
4.803986710963455,3.23028455728529
4.823920265780731,3.1060978277272207
4.8438538205980075,2.99097345745225
4.863787375415282,2.8864843351070615
4.883720930232559,2.79426649232226
4.9036544850498345,2.7159602538391576
4.92358803986711,2.6531284377607296
4.943521594684386,2.6071555267842283
4.963455149501661,2.579138563393486
4.983388704318937,2.5697869455709985
5.003322259136213,2.5793510450905086
5.023255813953488,2.6075959465753993
5.043189368770764,2.6538266977711893
5.063122923588041,2.7169588843988746
5.083056478405315,2.795618358049817
5.102990033222592,2.8882502118456896
5.122923588039868,2.9932197555213107
5.142857142857143,3.108894626420151
5.162790697674419,3.233704011740963
5.182724252491695,3.3661760899987336
5.20265780730897,3.5049575923633323
5.222591362126246,3.6488202321269756
5.242524916943522,3.7966584023202565
5.262458471760797,3.947481665468287
5.282392026578074,4.100404589874421
5.3023255813953485,4.254635640316416
5.322259136212625,4.4094661794110905
5.342192691029901,4.564260174587321
5.362126245847176,4.718444899625157
5.382059800664452,4.871502728459576
5.4019933554817285,5.022964006918624
5.421926910299003,5.172400927992932
5.44186046511628,5.319422308698804
5.4617940199335555,5.463669158482588
5.48172757475083,5.604810931910716
5.501661129568107,5.742542366774709
5.5215946843853825,5.876580819503838
5.541528239202658,6.006664021067598
5.561461794019934,6.13254818736241
5.5813953488372094,6.254006427922267
5.601328903654485,6.3708274054849925
5.621262458471762,6.482814206466547
5.641196013289036,6.589783388816548
5.661129568106313,6.691564179160851
5.681063122923589,6.787997795706065
5.700996677740864,6.878936877209794
5.72093023255814,6.964245001521386
5.740863787375416,7.043796279873217
5.760797342192691,7.117475015337301
5.780730897009967,7.185175415732641
5.800664451827243,7.246801352836331
5.820598006644518,7.302266161069664
5.840531561461795,7.35149246994291
5.8604651162790695,7.394412065485385
5.880398671096346,7.430965776692109
5.900332225913622,7.461103383709423
5.920265780730897,7.484783545081251
5.940199335548173,7.501973741903376
5.960132890365449,7.512650237200138
5.980066445182724,7.516798049259641
6.0,7.514410938052424
6.0199335548172765,7.505491404223627
6.039867109634551,7.490050700500787
6.059800664451828,7.468108855707552
6.0797342192691035,7.43969471192618
6.099667774086379,7.404845975718545
6.119601328903655,7.363609284706407
6.139534883720931,7.31604029123616
6.159468438538206,7.262203765324784
6.179401993355482,7.202173719613728
6.1993355481727574,7.136033559662837
6.219269102990033,7.063876263614473
6.23920265780731,6.985804596070483
6.259136212624584,6.901931361977021
6.279069767441861,6.812379707435238
6.299003322259137,6.717283475685458
6.318936877076412,6.616787628093758
6.338870431893688,6.511048741853464
6.3588039867109645,6.400235598364483
6.378737541528239,6.284529878942331
6.398671096345516,6.1641269877238525
6.418604651162791,6.039237025475688
6.438538205980066,5.910085942585959
6.458471760797343,5.776916904948185
6.4784053156146175,5.639991912846832
6.498338870431894,5.499593720431643
6.51827242524917,5.3560281119785556
6.538205980066445,5.209626600846378
6.558139534883721,5.060749627636555
6.578073089700998,4.909790345026762
6.598006644518272,4.7571790870297805
6.617940199335549,4.603388628118335
6.6378737541528245,4.448940339479916
6.6578073089701,4.29441134023213
6.677740863787376,4.140442712182916
6.6976744186046515,3.987748784556119
6.717607973421927,3.83712738076196
6.737541528239203,3.6894707259368706
6.7574750830564785,3.5457764070431446
6.777408637873754,3.407157317871552
6.797342192691031,3.2748488769905397
6.8172757475083055,3.1502109764473945
6.837209302325582,3.034721177901659
6.857142857142858,2.929954837857082
6.877076411960133,2.8375475413649927
6.897009966777409,2.7591361006797714
6.9169435215946855,2.6962771450371363
6.93687707641196,2.6503473474777444
6.956810631229236,2.6224359663942676
6.9767441860465125,2.613246530986789
6.996677740863787,2.6230270364767985
7.016611295681064,2.6515444034647664
7.036544850498339,2.6981093325299463
7.056478405315615,2.7616455314950317
7.076411960132891,2.8407876343119676
7.096345514950166,2.9339884668561282
7.116279069767442,3.03961880553164
7.136212624584719,3.1560489004343477
7.156146179401993,3.2817076622621983
7.17607973421927,3.4151204414922205
7.196013289036546,3.554929112665366
7.21594684385382,3.6998990673650307
7.235880398671097,3.8489174272361826
7.2558139534883725,4.000985959624468
7.275747508305648,4.155211240555253
7.295681063122924,4.310793780843776
7.3156146179402,4.467017187021058
7.335548172757475,4.623237968959431
7.355481727574752,4.778876298587171
7.3754152823920265,4.933407830139654
7.395348837209303,5.086356577522067
7.415282392026579,5.237288781748803
7.435215946843854,5.385807671819187
7.45514950166113,5.531549012673978
7.475083056478406,5.674177335483177
7.495016611295681,5.81338275303901
7.514950166112956,5.948878273182493
7.5348837209302335,6.080397534059908
7.554817275747508,6.207692895531921
7.574750830564784,6.330533830714044
7.5946843853820605,6.448705570197325
7.614617940199336,6.562007958943605
7.634551495016611,6.670254492226694
7.6544850498338874,6.7732715024012045
7.674418604651163,6.870897472840993
7.694352159468439,6.962982459218012
7.714285714285715,7.04938760149942
7.73421926910299,7.129984712723927
7.754152823920266,7.204655932863997
7.774086378737542,7.27329343796153
7.794019933554818,7.335799196303233
7.813953488372093,7.392084764730685
7.83388704318937,7.442071119302195
7.853820598006645,7.4856885154763315
7.8737541528239205,7.522876373799583
7.893687707641197,7.553583187780743
7.913621262458472,7.57776645124057
7.9335548172757475,7.595392602958711
7.953488372093024,7.606436986913316
7.9734219269103,7.610883826837136
7.9933554817275745,7.608726214208962
8.013289036544851,7.599966109170653
8.033222591362128,7.584614354218554
8.053156146179402,7.562690700872552
8.073089700996679,7.534223849885564
8.093023255813954,7.49925150593035
8.11295681063123,7.457820448099029
8.132890365448505,7.4099866179839715
8.152823920265782,7.355815227589184
8.172757475083056,7.295380889861637
8.192691029900331,7.22876777524892
8.21262458471761,7.156069798399978
8.232558139534884,7.0773908399526775
8.252491694352159,6.992845009319929
8.272425249169435,6.902556955526404
8.292358803986712,6.806662234497184
8.312292358803987,6.705307742801027
8.332225913621263,6.598652229757706
8.352159468438538,6.4868669020916006
8.372093023255815,6.370136138025689
8.392026578073091,6.248658330946134
8.411960132890366,6.122646886622483
8.43189368770764,5.992331402550252
8.451827242524917,5.857959063401753
8.471760797342194,5.719796292938067
8.491694352159469,5.578130710137566
8.511627906976745,5.433273445772453
8.53156146179402,5.285561885148546
8.551495016611296,5.135362912960464
8.571428571428573,4.983076746622506
8.591362126245848,4.8291414538852475
8.611295681063122,4.674038257025947
8.6312292358804,4.518297725999214
8.651162790697676,4.362506951112478
8.67109634551495,4.207317753345809
8.691029900332227,4.0534559241820505
8.710963455149502,3.9017313675897443
8.730897009966778,3.7530488182669024
8.750830564784053,3.6084184990792614
8.77076411960133,3.468965620342642
8.790697674418604,3.335936986075426
8.81063122923588,3.2107021626376158
8.830564784053157,3.094745765409757
8.850498338870432,2.989646650856213
8.870431893687707,2.8970395856833164
8.890365448504983,2.818555923005758
8.91029900332226,2.755742608613931
8.930232558139535,2.7099637593909165
8.950166112956811,2.682295425037201
8.970099667774086,2.6734299265953756
8.990033222591363,2.683608400667705
9.00996677740864,2.712596546558712
9.029900332225914,2.7597092941014987
9.049833887043189,2.823878508140122
9.069767441860467,2.9037486436156885
9.089700996677742,2.9977817393366877
9.109634551495017,3.1043554504322604
9.129568106312293,3.2218436224014924
9.14950166112957,3.3486752538827496
9.169435215946844,3.4833725711632915
9.189368770764121,3.624571692202873
9.209302325581396,3.7710302923165253
9.22923588039867,3.9216264585000093
9.249169435215949,4.075352151123248
9.269102990033224,4.231303796646452
9.289036544850498,4.3886717312178005
9.308970099667773,4.546729582832167
9.328903654485051,4.704824223567909
9.348837209302326,4.862366615110134
9.368770764119601,5.018823674067075
9.388704318936878,5.173711165438295
9.408637873754152,5.326587566905992
9.428571428571429,5.477048814419323
9.448504983388705,5.624723827772418
9.46843853820598,5.769270714923875
9.488372093023255,5.910373560181722
9.508305647840533,6.047739710707859
9.528239202657808,6.181097486083788
9.548172757475083,6.310194245805088
9.56810631229236,6.434794758957457
9.588039867109636,6.554679828718494
9.60797342192691,6.669645131660533
9.627906976744187,6.779500238137496
9.647840531561462,6.884067785408936
9.667774086378738,6.983182779696314
9.687707641196015,7.07669200718872
9.70764119601329,7.164453537225098
9.727574750830565,7.246336303570742
9.747508305647841,7.322219751961994
9.767441860465118,7.391993543986068
9.787375415282392,7.455557308954011
9.807308970099669,7.512820436766313
9.827242524916944,7.56370190590454
9.84717607973422,7.608130141646838
9.867109634551497,7.64604290042877
9.887043189368772,7.677387176980901
9.906976744186046,7.702119131490573
9.926910299003321,7.720204034577707
9.9468438538206,7.731616228356697
9.966777408637874,7.736339102293322
9.986710963455149,7.7343650829690755
10.006644518272426,7.725695637244796
10.026578073089702,7.710341288682844
10.046511627906977,7.688321647449797
10.066445182724253,7.659665454290553
10.086378737541528,7.624410639548442
10.106312292358805,7.582604398614978
10.126245847176081,7.534303285637328
10.146179401993356,7.479573327804994
10.16611295681063,7.418490163090823
10.186046511627907,7.351139204954454
10.205980066445184,7.2776158382434994
10.225913621262459,7.198025651374348
10.245847176079735,7.112484710863534
10.26578073089701,7.02111988544524
10.285714285714286,6.924069228385402
10.305647840531563,6.821482428233495
10.325581395348838,6.713521340189437
10.345514950166113,6.600360612567931
10.36544850498339,6.4821884255855515
10.385382059800666,6.359207362960526
10.40531561461794,6.231635440692597
10.425249169435217,6.09970732198144
10.445182724252492,5.963675752650965
10.465116279069768,5.823813257767486
10.485049833887045,5.680414147442902
10.50498338870432,5.5337968881073945
10.524916943521594,5.384306904713419
10.544850498338871,5.232319889081281
10.564784053156147,5.078245699253144
10.584717607973422,4.9225329430483455
10.604651162790697,4.765674343851157
10.624584717607974,4.608212984426355
10.64451827242525,4.45074950950225
10.664451827242525,4.2939503310852
10.684385382059801,4.1385568086740205
10.704318936877076,3.985395250691437
10.724252491694353,3.8353873778505427
10.74418604651163,3.689560572121655
10.764119601328904,3.54905677322739
10.784053156146179,3.415138255560267
10.803986710963457,3.289187735178256
10.823920265780732,3.1726994104952517
10.843853820598007,3.0672568589602025
10.863787375415283,2.9744936100516015
10.88372093023256,2.8960332813769516
10.903654485049834,2.833408995011271
