Time (s),Filtered Signal
0.0,0.06697830324831919
0.033370165745856356,-0.0038208862749134613
0.06674033149171271,-0.0700882455801189
0.10011049723756907,-0.12464194853573586
0.13348066298342542,-0.15767735004777214
0.16685082872928178,-0.15893349925112915
0.20022099447513814,-0.12202163939072298
0.2335911602209945,-0.04909357759764063
0.26696132596685085,0.04672593859708701
0.30033149171270723,0.14323097756217623
0.33370165745856356,0.21562033913555295
0.3670718232044199,0.2454128681619992
0.4004419889502763,0.22788265632319699
0.43381215469613266,0.17423001374343847
0.467182320441989,0.10694088795747468
0.5005524861878453,0.050124103848254976
0.5339226519337017,0.019269852422305743
0.5672928176795581,0.015313537382979326
0.6006629834254145,0.025770999398808482
0.6340331491712707,0.032137018871382456
0.6674033149171271,0.01966172314495697
0.7007734806629835,-0.01530160153155046
0.7341436464088398,-0.0635825227013382
0.7675138121546962,-0.10730503399496345
0.8008839779005525,-0.12739252026550069
0.8342541436464089,-0.11109931743954687
0.8676243093922653,-0.05701902712524874
0.9009944751381216,0.023388576191186526
0.934364640883978,0.10749497195796036
0.9677348066298344,0.1658304064361283
1.0011049723756906,0.16861716137789756
1.0344751381215471,0.09396648747220122
1.0678453038674034,-0.06367310509520309
1.1012154696132597,-0.28747741399060134
1.1345856353591162,-0.5378425517459422
1.1679558011049724,-0.7597333087616126
1.201325966850829,-0.8970756660394029
1.2346961325966852,-0.91009857016637
1.2680662983425415,-0.7893840183538752
1.301436464088398,-0.5608657252262615
1.3348066298342542,-0.2792131801418806
1.3681767955801105,-0.011572738105435916
1.401546961325967,0.18263350491726946
1.4349171270718233,0.2689419786884885
1.4682872928176796,0.24685699621870236
1.501657458563536,0.148777082258603
1.5350276243093923,0.03036058685046694
1.5683977900552488,-0.04416702159785231
1.601767955801105,-0.018030338656259883
1.6351381215469614,0.1436304963458274
1.6685082872928179,0.44286627215841545
1.7018784530386741,0.8434910165287728
1.7352486187845306,1.2734029598428702
1.768618784530387,1.636722161232829
1.8019889502762432,1.835761441266595
1.8353591160220997,1.7987969513093074
1.868729281767956,1.505195961210906
1.9020994475138122,0.9975868826883159
1.9354696132596687,0.3737405990793265
1.968839779005525,-0.24152919153771632
2.0022099447513813,-0.7350979029591481
2.0355801104972375,-1.0398688738589659
2.0689502762430942,-1.1508762275332112
2.1023204419889505,-1.1172736312393672
2.135690607734807,-1.0151837417516836
2.169060773480663,-0.9145511455673785
2.2024309392265193,-0.8545856365756014
2.235801104972376,-0.8368091146530593
2.2691712707182323,-0.8354933356628885
2.3025414364640886,-0.8173257763791602
2.335911602209945,-0.759250242223379
2.369281767955801,-0.656406220582812
2.402651933701658,-0.5186598026732285
2.436022099447514,-0.36050793912129037
2.4693922651933704,-0.19185473531778485
2.5027624309392267,-0.01527229104797847
2.536132596685083,0.16953489228705432
2.5695027624309392,0.35809451677896953
2.602872928176796,0.5362005817626325
2.636243093922652,0.6814897894292639
2.6696132596685085,0.7711751219371878
2.7029834254143648,0.7917088603347083
2.736353591160221,0.7449346419327828
2.7697237569060777,0.64724283377669
2.803093922651934,0.5221440157692775
2.8364640883977903,0.39035516545717797
2.8698342541436466,0.26296796636333347
2.903204419889503,0.14165823070342004
2.936574585635359,0.025837986045624005
2.969944751381216,-0.07788255994719923
3.003314917127072,-0.15101483194968102
3.0366850828729284,-0.16882348169037678
3.0700552486187846,-0.11615731916473461
3.103425414364641,-0.006105270401435835
3.1367955801104976,0.11055411807207226
3.170165745856354,0.1553921442493591
3.20353591160221,0.053189141213759596
3.2369060773480665,-0.2276093233285193
3.2702762430939227,-0.6452515649749645
3.3036464088397794,-1.0853248547590901
3.3370165745856357,-1.3980964913159564
3.370386740331492,-1.4592750633097813
3.4037569060773483,-1.2256937861268327
3.4371270718232045,-0.756867639160193
3.4704972375690613,-0.18961879315939356
3.5038674033149175,0.32246166887695854
3.537237569060774,0.674306839340081
3.57060773480663,0.8472425048727706
3.6039779005524863,0.902943594280885
3.6373480662983426,0.9403974672567075
3.6707182320441993,1.0404873000729318
3.7040883977900556,1.2259859506368476
3.737458563535912,1.4536608518594214
3.770828729281768,1.6376110120791354
3.8041988950276244,1.6887243629161832
3.837569060773481,1.5506285788302892
3.8709392265193374,1.217996073752379
3.9043093922651937,0.7337702523169748
3.93767955801105,0.17141210895289236
3.9710497237569062,-0.38766454088188157
4.0044198895027625,-0.8730026434199291
4.037790055248619,-1.2365069464340384
4.071160220994475,-1.4565601340284449
4.104530386740332,-1.5367669932697892
4.1379005524861885,-1.5009715159066488
4.171270718232044,-1.3854858303237085
4.204640883977901,-1.2295506303278374
4.238011049723757,-1.0659913302108028
4.271381215469614,-0.9149011424357806
4.30475138121547,-0.7828041291069641
4.338121546961326,-0.6676706828730602
4.371491712707183,-0.5671536594166529
4.404861878453039,-0.48522270589719496
4.438232044198895,-0.43265036865597223
4.471602209944752,-0.4199119428486168
4.504972375690608,-0.44558226604502926
4.538342541436465,-0.4867242157047176
4.5717127071823205,-0.49792602469837166
4.605082872928177,-0.4221131707896818
4.638453038674034,-0.21060169981563806
4.67182320441989,0.15515023802177827
4.7051933701657465,0.6494229451869491
4.738563535911602,1.2025795034346853
4.771933701657459,1.7169569353884409
4.805303867403316,2.0930489556631335
4.8386740331491715,2.2567171777577113
4.872044198895028,2.1781647518385547
4.905414364640884,1.8770932337449027
4.938784530386741,1.413915407596307
4.972154696132597,0.8716811914495985
5.005524861878453,0.33566238666507175
5.03889502762431,-0.12322021087752834
5.072265193370166,-0.4579284508165437
5.105635359116023,-0.648042416259
5.1390055248618784,-0.6980672729745431
5.172375690607735,-0.6336693563439204
5.205745856353592,-0.4966600698265273
5.239116022099448,-0.33801759762644645
5.272486187845304,-0.20811829624805167
5.30585635359116,-0.14495429768747248
5.339226519337017,-0.16345175806064255
5.372596685082874,-0.2503783622181253
5.4059668508287295,-0.3683672948815176
5.439337016574586,-0.4691627038962276
5.472707182320442,-0.5117398423145992
5.506077348066299,-0.477876566424553
5.5394475138121555,-0.3781032751779056
5.572817679558011,-0.2450570159841452
5.606187845303868,-0.11723293705787158
5.639558011049724,-0.020826897600304282
5.672928176795581,0.041725626442748846
5.706298342541437,0.09116213766890394
5.739668508287293,0.15894201432665256
5.77303867403315,0.26815112574350103
5.806408839779006,0.4155329395431716
5.839779005524862,0.5620870121615609
5.873149171270718,0.6371372823272912
5.906519337016575,0.5568127466392444
5.939889502762432,0.2530994870131532
5.9732596685082875,-0.2950557466002271
6.006629834254144,-1.0399569495273835
6.04,-1.8630450198335338
6.073370165745857,-2.5970535912629287
6.1067403314917135,-3.0679719875514015
6.140110497237569,-3.1437587507849534
6.173480662983426,-2.772929916466977
6.206850828729282,-1.9994499357169995
6.240220994475139,-0.9495067142660918
6.273591160220995,0.20362801935925323
6.306961325966851,1.2833351689718242
6.340331491712708,2.1477755088368777
6.373701657458564,2.7128284279039363
6.40707182320442,2.957271299009782
6.440441988950277,2.913607968146345
6.473812154696133,2.650895866779368
6.50718232044199,2.2556782553229384
6.5405524861878455,1.814946561303854
6.573922651933702,1.4027061344445033
6.607292817679559,1.0705090345109238
6.640662983425415,0.8423469704500798
6.674033149171271,0.7145193320801217
6.707403314917127,0.6604214305593562
6.740773480662984,0.6387493381527747
6.774143646408841,0.6027001614426708
6.8075138121546965,0.5084380049044545
6.840883977900553,0.32284087327443667
6.874254143646409,0.03141397201079696
6.907624309392266,-0.3541609055057364
6.9409944751381225,-0.7922492750367898
6.974364640883978,-1.2162240373879238
7.007734806629835,-1.5508560718688096
7.041104972375691,-1.7369176276235299
7.074475138121548,-1.7545217762667555
7.107845303867403,-1.6335314617785783
7.14121546961326,-1.4437291078002659
7.174585635359117,-1.2668892597807615
7.207955801104973,-1.162526855189143
7.241325966850829,-1.143291140047882
7.274696132596685,-1.1718801382536805
7.308066298342542,-1.1808193927451849
7.341436464088399,-1.1051593540922167
7.3748066298342545,-0.9122587177483823
7.408176795580111,-0.6152878144278328
7.441546961325967,-0.2660115551779253
7.474917127071824,0.0675151725201443
7.5082872928176805,0.3268039175283751
7.541657458563536,0.481360313084915
7.575027624309393,0.5341610677617924
7.608397790055249,0.5152062391553458
7.641767955801106,0.46833884274571047
7.675138121546962,0.43706057309871266
7.708508287292818,0.4531245652357216
7.741878453038675,0.5294442062939148
7.775248618784531,0.6577911072716853
7.808618784530387,0.8117056499643831
7.841988950276244,0.9547545985275978
7.8753591160221,1.0527998845503486
7.908729281767957,1.0866841413871222
7.9420994475138125,1.0602203085830453
7.975469613259669,0.9991008954058694
8.008839779005525,0.939649288799252
8.042209944751383,0.9110030866914754
8.075580110497238,0.9181247427698924
8.108950276243094,0.9338653766562702
8.14232044198895,0.9052868826048852
8.175690607734808,0.7735168505127921
8.209060773480664,0.5000512509455135
8.24243093922652,0.08859584681823562
8.275801104972377,-0.40768057378805617
8.309171270718233,-0.8981222538168891
8.342541436464089,-1.2823785367106995
8.375911602209946,-1.4835597447273574
8.409281767955802,-1.4736815753343284
8.442651933701658,-1.2815317251866962
8.476022099447514,-0.9806211216497953
8.509392265193371,-0.6629851991192863
8.542762430939227,-0.4094256433645649
8.576132596685083,-0.26658565985485044
8.60950276243094,-0.23714505132438568
8.642872928176796,-0.2841855045932157
8.676243093922652,-0.3467842578784445
8.709613259668508,-0.36181700741139794
8.742983425414366,-0.2860945526293854
8.776353591160222,-0.11263712018480672
8.809723756906077,0.12455346134321017
8.843093922651935,0.3603666373020712
8.87646408839779,0.5213873244105421
8.909834254143647,0.5541073309454889
8.943204419889504,0.44725806585874445
8.97657458563536,0.23808408457760982
9.009944751381216,-0.001171272764613377
9.043314917127072,-0.19123329341455245
9.07668508287293,-0.2758940000961638
9.110055248618785,-0.24092585268443906
9.143425414364641,-0.1142094269303946
9.176795580110499,0.05114589174258987
9.210165745856354,0.20092463251394727
9.24353591160221,0.2989945648564977
9.276906077348068,0.3335112208792925
9.310276243093924,0.3100953705111065
9.34364640883978,0.2391680142715596
9.377016574585635,0.1270422720759669
9.410386740331493,-0.023198392882716336
9.443756906077349,-0.20226648621869922
9.477127071823205,-0.3844185220189843
9.510497237569062,-0.5257986668478022
9.543867403314918,-0.5762770767912058
9.577237569060774,-0.5012424705296787
9.610607734806631,-0.3023049562921617
9.643977900552487,-0.02416436833188908
9.677348066298343,0.2590714691178289
9.710718232044199,0.4737282271441253
9.744088397790057,0.5782341682209216
9.777458563535912,0.5798130564786793
9.810828729281768,0.5266705911342406
9.844198895027626,0.4794961321959243
9.877569060773482,0.4777914995475642
9.910939226519337,0.5194724988048818
9.944309392265193,0.5644774127136526
9.97767955801105,0.5593826348972444
10.011049723756907,0.4684895628345912
10.044419889502763,0.2941142879774659
10.07779005524862,0.0758763693831352
10.111160220994476,-0.1291562713653078
10.144530386740332,-0.2737047011592588
10.17790055248619,-0.3404649888435923
10.211270718232045,-0.3458659370601498
10.244640883977901,-0.32723286022109827
10.278011049723757,-0.3214520165029479
10.311381215469615,-0.34663953798560926
10.34475138121547,-0.3957692219601385
10.378121546961326,-0.4444541404633916
10.411491712707184,-0.46761996096283376
10.44486187845304,-0.4553034384837702
10.478232044198895,-0.41846784796265674
10.511602209944753,-0.3812947260732041
10.544972375690609,-0.3641465830780813
10.578342541436465,-0.36722497708224106
10.61171270718232,-0.3654570037939777
10.645082872928178,-0.3195112831736566
10.678453038674034,-0.19866434969813915
10.71182320441989,-0.003501710461978126
10.745193370165747,0.22509544871412185
10.778563535911603,0.4179561292331484
10.811933701657459,0.5067492650873805
10.845303867403315,0.4564639536676403
10.878674033149172,0.2846181215510058
10.912044198895028,0.05673911260480586
10.945414364640884,-0.14036671775332332
10.978784530386742,-0.23479629763520685
11.012154696132598,-0.19796632802973896
11.045524861878453,-0.052515385394262135
11.078895027624311,0.14242267597289118
11.112265193370167,0.3197312317222436
11.145635359116023,0.4320463171385507
11.179005524861878,0.4660687114720544
11.212375690607736,0.43869490160239477
11.245745856353592,0.3796119754184871
11.279116022099448,0.31116756189521627
11.312486187845305,0.23654270168522845
11.345856353591161,0.1419394185364293
11.379226519337017,0.01069445527525674
11.412596685082875,-0.15905092539486673
11.44596685082873,-0.34327126386659657
11.479337016574586,-0.49433992645022296
11.512707182320442,-0.5567538101754808
11.5460773480663,-0.4896629193960794
11.579447513812156,-0.28601548242950886
11.612817679558011,0.020610378802420705
11.646187845303869,0.36493309013859604
11.679558011049725,0.6709564348260776
11.71292817679558,0.8759392488005721
11.746298342541436,0.9472777048034601
11.779668508287294,0.8861357785317602
11.81303867403315,0.7183993056341417
11.846408839779006,0.4794871856159252
11.879779005524863,0.20152696630940622
11.91314917127072,-0.09151274041803807
11.946519337016575,-0.38094508623005563
11.979889502762433,-0.647915224675013
12.013259668508288,-0.8715152049442929
12.046629834254144,-1.033054931091639
12.08,-1.1235687502259026
12.113370165745858,-1.1481642366209974
12.146740331491714,-1.1221493261958086
12.18011049723757,-1.0594998216808948
12.213480662983427,-0.9604750515573186
12.246850828729283,-0.8075236702813183
12.280220994475139,-0.5747584739462843
12.313591160220996,-0.24800030286995853
12.346961325966852,0.15527375945660513
12.380331491712708,0.578642267661522
12.413701657458564,0.9389872533495217
12.447071823204421,1.1547860502890788
12.480441988950277,1.17785864586346
12.513812154696133,1.0134704523200826
12.54718232044199,0.7192154966535382
12.580552486187846,0.38350738870403633
12.613922651933702,0.09404298182708251
12.64729281767956,-0.08964449573829754
12.680662983425416,-0.14887495430228148
12.714033149171271,-0.10119343643403911
12.747403314917127,0.016020611565610986
12.780773480662985,0.16400111985692895
12.81414364640884,0.3145398323574456
12.847513812154697,0.45182357106505594
12.880883977900554,0.5663123702223465
12.91425414364641,0.6465259463583654
12.947624309392266,0.6748827801623728
12.980994475138122,0.6309081950650602
13.01436464088398,0.5008102794273446
13.047734806629835,0.28865103714055534
13.081104972375691,0.022775252004145204
13.114475138121549,-0.24743442718645395
13.147845303867404,-0.46541733035179
13.18121546961326,-0.5877898657553
13.214585635359118,-0.6031489546844058
13.247955801104974,-0.5404986611218795
13.28132596685083,-0.4616766268320946
13.314696132596685,-0.43842735200758237
13.348066298342543,-0.5216965928039529
13.381436464088399,-0.7153263653140256
13.414806629834255,-0.9662626273571583
13.448176795580112,-1.1779561442745945
13.481546961325968,-1.2443747152616138
13.514917127071824,-1.0925278729517012
13.548287292817681,-0.7160711888866058
13.581657458563537,-0.18465540640991102
13.615027624309393,0.3767725381644876
13.648397790055249,0.8314211184247194
13.681767955801106,1.079148654907461
13.715138121546962,1.0898401604152872
13.748508287292818,0.9083820482269467
13.781878453038676,0.6307737785409647
13.815248618784532,0.3634146664883539
13.848618784530387,0.1839175107275196
13.881988950276245,0.1193488646051922
13.9153591160221,0.14834719849994316
13.948729281767957,0.22215681102947443
13.982099447513813,0.2918865631993076
14.01546961325967,0.3286151512318961
14.048839779005526,0.3287651046230653
14.082209944751382,0.3056244023535889
14.11558011049724,0.27436290771599625
14.148950276243095,0.23956580264205055
14.182320441988951,0.1913805804221363
14.215690607734807,0.11124029244403363
14.249060773480664,-0.01643363094563488
14.28243093922652,-0.1924019421600496
14.315801104972376,-0.39615341463514636
14.349171270718234,-0.5880220135749831
14.38254143646409,-0.719792778581027
14.415911602209945,-0.7504591763521387
14.449281767955803,-0.6615478041635016
14.482651933701659,-0.4660660884456468
14.516022099447515,-0.2070625928151328
14.54939226519337,0.05446056634666088
14.582762430939228,0.2583597094223017
14.616132596685084,0.3640933641647957
14.64950276243094,0.3623742150690457
14.682872928176797,0.27539223559764914
14.716243093922653,0.1459122863473347
14.749613259668509,0.020216515958294927
14.782983425414367,-0.06760294440789537
14.816353591160222,-0.10347965462174873
14.849723756906078,-0.09107160728766032
14.883093922651934,-0.042519441594480956
14.916464088397792,0.03090345010322758
14.949834254143648,0.12191864205795
14.983204419889503,0.22245023884482465
15.016574585635361,0.31529291421469097
15.049944751381217,0.3701921662611692
15.083314917127073,0.3505946173099848
15.116685082872928,0.23078198926922583
15.150055248618786,0.015407093769290269
15.183425414364642,-0.25044114093509934
15.216795580110498,-0.48947652545227305
15.250165745856355,-0.6185543360259793
15.283535911602211,-0.5826883400196001
15.316906077348067,-0.38091481373223285
15.350276243093925,-0.07106389379504832
15.38364640883978,0.24959833690100686
15.417016574585636,0.47939316154148365
15.450386740331492,0.5476170602370625
15.48375690607735,0.436147722062779
15.517127071823205,0.18085483475948733
15.550497237569061,-0.14418956227992993
15.583867403314919,-0.4507175272505874
15.617237569060775,-0.6591742532922515
15.65060773480663,-0.7150691504173158
15.683977900552488,-0.5978022537517548
15.717348066298344,-0.32326068181840323
15.7507182320442,0.05888848576367093
15.784088397790056,0.47351138913490876
15.817458563535913,0.8342587851775786
15.85082872928177,1.0622966186745546
15.884198895027625,1.1055183420206687
15.917569060773483,0.9526665490577986
15.950939226519338,0.6373229392079348
15.984309392265194,0.22945055837760572
16.01767955801105,-0.1837365492367327
16.051049723756908,-0.5217944056492151
16.084419889502765,-0.7319798664725679
16.11779005524862,-0.8000357050522092
16.151160220994477,-0.7478239178828452
16.18453038674033,-0.6202383715663947
16.21790055248619,-0.46792051335924717
16.251270718232046,-0.33294216456537346
16.2846408839779,-0.24170325345656302
16.318011049723758,-0.20481094062746028
16.351381215469615,-0.22044027131102442
16.38475138121547,-0.27738132152326117
16.418121546961327,-0.35630556036512945
16.451491712707185,-0.4306604016674791
16.48486187845304,-0.4697683538915623
16.518232044198896,-0.4453264591256227
16.551602209944754,-0.3396747873744453
16.584972375690608,-0.15208424220295372
16.618342541436466,0.10047459857752582
16.651712707182323,0.38907889241921667
16.685082872928177,0.6827408607830826
16.718453038674035,0.9577746634262329
16.751823204419892,1.2020074307734805
16.785193370165747,1.4115505964266377
16.818563535911604,1.5815055202051882
16.851933701657458,1.695366167686088
16.885303867403316,1.7194348312759196
16.918674033149173,1.6073089519339343
16.952044198895027,1.3155146709029388
16.985414364640885,0.8259516666231427
17.018784530386743,0.1661838776062048
17.052154696132597,-0.5828406225179762
17.085524861878454,-1.2987989227857852
17.118895027624312,-1.8493181415022328
17.152265193370166,-2.133082518320053
17.185635359116024,-2.1148574161140865
17.21900552486188,-1.838872873514524
17.252375690607735,-1.4129725711010708
17.285745856353593,-0.9685769687886111
17.31911602209945,-0.6129088481192386
17.352486187845304,-0.39413852018838996
17.385856353591162,-0.29442967115394786
