Frequency (Hz),Amplitude
0.0,2.370810121981841
0.019867549668874173,2.373398786204174
0.039735099337748346,2.3811377761611525
0.059602649006622516,2.3939469946046095
0.07947019867549669,2.4116959074563913
0.09933774834437085,2.434207734598804
0.11920529801324503,2.461264851877471
0.13907284768211922,2.4926150178586104
0.15894039735099338,2.5279780217880368
0.17880794701986755,2.5670523750024805
0.1986754966887417,2.609521726000589
0.2185430463576159,2.6550607559277983
0.23841059602649006,2.7033403931798796
0.2582781456953642,2.754032262613098
0.27814569536423844,2.8068123495510395
0.2980132450331126,2.861363908128097
0.31788079470198677,2.9173796771803713
0.33774834437086093,2.9745634865382575
0.3576158940397351,3.0326313448726863
0.3774834437086093,3.0913121001741697
0.3973509933774834,3.1503477582753474
0.4172185430463576,3.2094935358790235
0.4370860927152318,3.2685177140973596
0.45695364238410596,3.3272013477899165
0.4768211920529801,3.385337875813487
0.49668874172185434,3.442732668123398
0.5165562913907285,3.4992025377037135
0.5364238410596026,3.5545752385953544
0.5562913907284769,3.608688965775569
0.5761589403973509,3.6613918682013167
0.5960264900662252,3.7125415828219404
0.6158940397350993,3.7620047946455024
0.6357615894039735,3.80965682587104
0.6556291390728477,3.8553812555511655
0.6754966887417219,3.899069570119381
0.695364238410596,3.940620844314121
0.7152317880794702,3.9799414514825533
0.7350993377483444,4.0169448018926195
0.7549668874172186,4.051551107472914
0.7748344370860927,4.083687171300214
0.7947019867549668,4.113286200134281
0.8145695364238411,4.1402876383363365
0.8344370860927152,4.164637021584844
0.8543046357615894,4.186285848907026
0.8741721854304636,4.20519147166671
0.8940397350993378,4.221316998283562
0.9139072847682119,4.234631213598428
0.9337748344370861,4.245108511942869
0.9536423841059603,4.252728843115219
0.9735099337748344,4.257477670608592
0.9933774834437087,4.259345941579164
1.0132450331125828,4.2583300681837795
1.033112582781457,4.254431920056121
1.0529801324503312,4.247658827829505
1.0728476821192052,4.238023597753254
1.0927152317880795,4.225544537588622
1.1125827814569538,4.21024549410959
1.1324503311258278,4.192155902675213
1.1523178807947019,4.171310849481781
1.1721854304635762,4.147751147247153
1.1920529801324504,4.121523425223539
1.2119205298013245,4.092680234579379
1.2317880794701985,4.061280170332909
1.2516556291390728,4.027388011157116
1.271523178807947,3.9910748785034693
1.2913907284768211,3.95241841660455
1.3112582781456954,3.9115029950039713
1.3311258278145695,3.8684199353155253
1.3509933774834437,3.8232677639156925
1.370860927152318,3.7761524922046523
1.390728476821192,3.727187925904377
1.410596026490066,3.6764960045621637
1.4304635761589404,3.6242071719521443
1.4503311258278146,3.5704607773581665
1.4701986754966887,3.515405506711456
1.4900662251655628,3.4591998411592035
1.5099337748344372,3.402012538755869
1.5298013245033113,3.344023132477067
1.5496688741721854,3.285422434522511
1.5695364238410596,3.226413032753779
1.5894039735099337,3.1672097599583133
1.609271523178808,3.108040110312754
1.6291390728476822,3.0491445698509687
1.6490066225165563,2.9907768189250414
1.6688741721854303,2.933203754725989
1.6887417218543048,2.8767052712696337
1.7086092715231789,2.8215737235315
1.728476821192053,2.7681129927249732
1.7483443708609272,2.7166370626570933
1.7682119205298013,2.667468014815358
1.7880794701986755,2.6209333549946736
1.8079470198675496,2.5773625998369507
1.8278145695364238,2.537083080500898
1.847682119205298,2.5004149649175686
1.8675496688741722,2.4676655601748645
1.8874172185430464,2.4391230303088727
1.9072847682119205,2.4150497464711345
1.9271523178807946,2.395675566609843
1.9470198675496688,2.3811914078486773
1.9668874172185429,2.3717435128105198
1.9867549668874174,2.367428809059886
2.0066225165562916,2.3682917116143476
2.0264900662251657,2.3743226230914276
2.0463576158940397,2.3854582546361365
2.066225165562914,2.4015837412365753
2.086092715231788,2.4225363794068215
2.1059602649006623,2.4481106946297593
2.1258278145695364,2.478064465932172
2.1456953642384105,2.5121253024800803
2.165562913907285,2.5499973801050673
2.185430463576159,2.591367995021862
2.205298013245033,2.6359136645396597
2.2251655629139075,2.6833055865922235
2.2450331125827816,2.7332143497466386
2.2649006622516556,2.785313854815489
2.2847682119205297,2.839284463881402
2.3046357615894038,2.8948154312794556
2.324503311258278,2.9516066950155073
2.3443708609271523,3.009370118697457
2.364238410596027,3.0678302762915495
2.384105960264901,3.126724867786808
2.403973509933775,3.1858048456510875
2.423841059602649,3.2448343217508158
2.443708609271523,3.3035903135965357
2.463576158940397,3.3618623783060984
2.4834437086092715,3.4194521731055363
2.5033112582781456,3.4761729727923645
2.52317880794702,3.5318491674547383
2.543046357615894,3.5863157578361577
2.562913907284768,3.639417860954705
2.5827814569536423,3.6910102347890037
2.6026490066225163,3.7409568278833514
2.622516556291391,3.7891303574572985
2.642384105960265,3.835411917903006
2.662251655629139,3.879690620301396
2.6821192052980134,3.9218632626920877
2.7019867549668874,3.9618340302111807
2.7218543046357615,3.9995142238021506
2.741721854304636,4.034822015956543
2.76158940397351,4.067682231811885
2.781456953642384,4.098026153893244
2.801324503311258,4.12579134880723
2.821192052980132,4.150921514264558
2.8410596026490067,4.17336634490568
2.8609271523178808,4.1930814155226575
2.8807947019867552,4.210028080402688
2.9006622516556293,4.224173387657574
2.9205298013245033,4.235490007547229
2.9403973509933774,4.243956173949382
2.9602649006622515,4.249555638272554
2.9801324503311255,4.252277635252066
3.0,4.2521168602115
3.0198675496688745,4.249073457512183
3.0397350993377485,4.243153020053335
3.0596026490066226,4.234366599824806
3.0794701986754967,4.222730729653238
3.0993377483443707,4.2082674564233145
3.119205298013245,4.191004386195885
3.1390728476821192,4.170974741788196
3.1589403973509933,4.148217433525115
3.1788079470198674,4.122777144015849
3.198675496688742,4.0947044279565645
3.218543046357616,4.064055828103892
3.23841059602649,4.030894008706171
3.2582781456953644,3.995287907812834
3.2781456953642385,3.9573129100046263
3.2980132450331126,3.9170510411882096
3.3178807947019866,3.874591187170427
3.3377483443708607,3.8300293377536843
3.3576158940397347,3.7834688580581117
3.3774834437086096,3.735020788652091
3.3973509933774837,3.684804175830329
3.4172185430463577,3.632946432975451
3.437086092715232,3.579583733325065
3.456953642384106,3.524861433575179
3.47682119205298,3.468934526503592
3.4966887417218544,3.4119681190965085
3.5165562913907285,3.3541379303937537
3.5364238410596025,3.295630800300103
3.556291390728477,3.2366451967983814
3.576158940397351,3.17739170419136
3.596026490066225,3.1180934690525635
3.615894039735099,3.0589865733699777
3.6357615894039736,3.0003202958820037
3.6556291390728477,2.942357212911769
3.6754966887417218,2.885373079382154
3.695364238410596,2.8296564196966743
3.7152317880794703,2.7755077477463206
3.7350993377483444,2.7232383268794393
3.754966887417219,2.673168376237025
3.774834437086093,2.625624631949013
3.794701986754967,2.5809371832669643
3.814569536423841,2.5394355278179237
3.834437086092715,2.501443829346021
3.854304635761589,2.4672754167591084
3.8741721854304636,2.4372266338586175
3.8940397350993377,2.41157023032034
3.9139072847682117,2.39054856796485
3.9337748344370858,2.3743669901784035
3.9536423841059607,2.363187752486293
3.9735099337748347,2.3571249253044213
3.993377483443709,2.3562406464335073
4.013245033112583,2.3605430189047616
4.033112582781457,2.369985826566321
4.052980132450331,2.3844700913111487
4.072847682119205,2.4038473437742924
4.0927152317880795,2.4279243461868423
4.112582781456953,2.456468910069711
4.132450331125828,2.4892164027234616
4.152317880794702,2.5258765357828095
4.172185430463576,2.566140069066661
4.19205298013245,2.609685131005117
4.211920529801325,2.6561829388705056
4.231788079470199,2.7053027850702067
4.251655629139073,2.7567162303257335
4.271523178807947,2.8101005050054235
4.291390728476821,2.86514116409682
4.311258278145695,2.9215340698761714
4.33112582781457,2.978986791484125
4.3509933774834435,3.0372195153156385
4.370860927152318,3.095965557412281
4.390728476821192,3.1549715616021943
4.410596026490066,3.2139974571319883
4.43046357615894,3.27281623857563
4.450331125827815,3.33121361997315
4.470198675496689,3.388987605116332
4.490066225165563,3.445948007010768
4.509933774834438,3.5019159419390715
4.529801324503311,3.556723317218179
4.549668874172186,3.610212326591248
4.569536423841059,3.662234963086335
4.589403973509934,3.712652555958068
4.6092715231788075,3.7613353358570434
4.629139072847682,3.8081620305076975
4.649006622516556,3.853019491798338
4.66887417218543,3.8958023541952476
4.688741721854305,3.9364127237005917
4.708609271523179,3.9747598961116855
4.728476821192054,4.010760103052786
4.748344370860927,4.044336284093708
4.768211920529802,4.0754178832101555
4.788079470198675,4.103940667850538
4.80794701986755,4.129846568933549
4.827814569536423,4.153083540194834
4.847682119205298,4.1736054354177226
4.867549668874172,4.191371902214553
4.887417218543046,4.2063482911650425
4.9072847682119205,4.218505579262715
4.927152317880794,4.2278203067667
4.947019867549669,4.234274526702008
4.966887417218543,4.2378557663969305
4.986754966887418,4.238557000589393
5.006622516556291,4.236376635776518
5.026490066225166,4.231318505622593
5.04635761589404,4.223391877380957
5.066225165562914,4.212611469425708
5.086092715231788,4.198997480129854
5.105960264900662,4.182575628468574
5.125827814569536,4.1633772068698365
5.14569536423841,4.141439146979926
5.1655629139072845,4.1168040991586485
5.185430463576159,4.089520526667305
5.205298013245033,4.059642815661159
5.225165562913908,4.027231402244534
5.245033112582782,3.9923529179884074
5.264900662251656,3.9550803554423886
5.28476821192053,3.915493255288624
5.304635761589404,3.873677916875902
5.324503311258278,3.8297276339247723
5.344370860927152,3.783742957192788
5.364238410596027,3.7358319858106994
5.3841059602649,3.6861106888161426
5.403973509933775,3.634703258084511
5.4238410596026485,3.5817424933383037
5.443708609271523,3.527370219146518
5.463576158940397,3.4717377327291956
5.483443708609272,3.415006279866483
5.503311258278146,3.3573475541667905
5.52317880794702,3.2989442122452943
5.543046357615895,3.239990393856674
5.562913907284768,3.1806922315589476
5.582781456953643,3.1212683289023735
5.602649006622516,3.0619501793053807
5.622516556291391,3.0029824896175112
5.642384105960264,2.9446233628974285
5.662251655629139,2.8871442843405837
5.682119205298013,2.8308298430170784
5.701986754966887,2.7759771109236997
5.7218543046357615,2.7228945910780067
5.741721854304636,2.6719006398076455
5.7615894039735105,2.6233212674283766
5.781456953642384,2.5774872290919184
5.801324503311259,2.5347303369118173
5.821192052980132,2.495378958490397
5.841059602649007,2.4597527175933083
5.860927152317881,2.4281564798282442
5.880794701986755,2.400873786547123
5.900662251655629,2.3781599866641088
5.920529801324503,2.3602353975290584
5.940397350993377,2.3472788883504982
5.960264900662251,2.3394223083068937
5.980132450331126,2.336746164707837
6.0,2.339276889223445
6.0198675496688745,2.346985916365911
6.039735099337749,2.359790651818155
6.059602649006623,2.3775572499302484
6.079470198675497,2.4001049735267235
6.099337748344371,2.4272117960685837
6.119205298013245,2.458620839778171
6.139072847682119,2.494047227471949
6.158940397350993,2.533184955268444
6.178807947019867,2.575713456244074
6.198675496688741,2.6213036068552498
6.218543046357616,2.669623014484579
6.23841059602649,2.720340504722504
6.258278145695365,2.7731297938860116
6.2781456953642385,2.827672382629899
6.298013245033113,2.88365974024881
6.317880794701987,2.940794868351215
6.337748344370861,2.9987933399729476
6.357615894039735,3.0573839090850994
6.377483443708609,3.116308778767369
6.397350993377484,3.175323606470689
6.417218543046357,3.234197313594895
6.437086092715232,3.292711755313197
6.456953642384105,3.350661295976854
6.47682119205298,3.4078523259664197
6.496688741721854,3.4641027477041177
6.516556291390729,3.5192414517231674
6.5364238410596025,3.573107798120984
6.556291390728477,3.625551114269842
6.5761589403973515,3.676430216163884
6.596026490066225,3.7256129580894495
6.6158940397351,3.772975813270822
6.635761589403973,3.8184034866360936
6.655629139072848,3.8617885597588213
6.675496688741721,3.9030311672668865
6.695364238410596,3.942038703497198
6.715231788079469,3.9787255578512695
6.735099337748344,4.013012877126431
6.754966887417219,4.044828353021403
6.774834437086093,4.074106033015489
6.794701986754967,4.100786152875218
6.814569536423841,4.124814989134043
6.8344370860927155,4.1461447300078
6.854304635761589,4.1647333633416785
6.874172185430464,4.180544580326645
6.894039735099337,4.193547693870886
6.913907284768212,4.203717570660826
6.933774834437086,4.211034576095283
6.95364238410596,4.21548453142434
6.973509933774834,4.217058682570535
6.993377483443709,4.2157536802541955
7.013245033112583,4.2115715711882
7.033112582781457,4.204519800248973
7.052980132450331,4.194611223672823
7.072847682119205,4.181864133468447
7.0927152317880795,4.16630229338037
7.112582781456954,4.147954986882627
7.132450331125828,4.126857077829445
7.152317880794702,4.103049084539248
7.172185430463576,4.076577268239607
7.19205298013245,4.04749373695412
7.211920529801324,4.0158565660644
7.231788079470198,3.981729936930879
7.251655629139073,3.9451842950994176
7.271523178807947,3.906296529752288
7.291390728476822,3.8651501761736093
7.311258278145695,3.8218356430797273
7.33112582781457,3.7764504667002385
7.3509933774834435,3.7290995934640576
7.370860927152318,3.6798956930230173
7.390728476821192,3.628959503096457
7.410596026490066,3.5764202072019793
7.430463576158941,3.5224158456923775
7.450331125827814,3.467093759576988
7.470198675496689,3.410611065278981
7.490066225165562,3.3531351566630265
7.509933774834438,3.294844228233228
7.52980132450331,3.23592781020394
7.549668874172186,3.176587302025051
7.569536423841059,3.117036485730628
7.589403973509934,3.057501994017496
7.6092715231788075,2.9982237001279093
7.629139072847682,2.9394549873668523
7.649006622516557,2.8814628455294904
7.66887417218543,2.8245277299699434
7.6887417218543055,2.768943107157668
7.708609271523178,2.7150145994321684
7.728476821192054,2.6630586329262553
7.748344370860927,2.6134004885552096
7.768211920529802,2.5663716594494357
7.788079470198675,2.5223064325596365
7.80794701986755,2.4815376407219265
7.827814569536423,2.4443915768742235
7.847682119205298,2.4111821253118646
7.8675496688741715,2.3822042439458326
7.887417218543046,2.3577270206770513
7.907284768211921,2.337986616058206
7.927152317880795,2.323179479446738
7.9470198675496695,2.3134562711661077
7.966887417218543,2.308916924676425
7.986754966887418,2.3096072318868863
8.006622516556291,2.315517232025797
8.026490066225167,2.3265815409213895
8.046357615894038,2.3426815932217018
8.066225165562914,2.363649609922491
8.086092715231787,2.3892739715274973
8.105960264900663,2.4193055907092846
8.125827814569536,2.4534648450619727
8.14569536423841,2.491448647715871
8.165562913907285,2.532937290430833
8.185430463576159,2.57760077523044
8.205298013245034,2.625104441236389
8.225165562913906,2.675113780244083
8.245033112582782,2.7272984089885863
8.264900662251655,2.7813352235347857
8.28476821192053,2.836910800937971
8.304635761589404,2.8937231368874343
8.324503311258278,2.951482818439703
8.344370860927151,3.009913731568708
8.364238410596027,3.0687533973258763
8.3841059602649,3.1277530206126287
8.403973509933774,3.186677323991112
8.42384105960265,3.245304227049202
8.443708609271523,3.3034244205291574
8.463576158940398,3.360840874252586
8.483443708609272,3.41736830906944
8.503311258278146,3.472832655667425
8.52317880794702,3.527070517029574
8.543046357615895,3.5799286464825464
8.562913907284768,3.631263449472733
8.582781456953642,3.6809405142739893
8.602649006622515,3.728834174612097
8.62251655629139,3.7748271055471636
8.642384105960264,3.818809952765994
8.66225165562914,3.860680994601424
8.682119205298013,3.900345835533239
8.701986754966887,3.937717129569564
8.721854304635762,3.9727143317060345
8.741721854304636,4.005263475572634
8.76158940397351,4.035296975372721
8.781456953642383,4.062753450272075
8.801324503311259,4.087577569488809
8.821192052980132,4.109719916455778
8.841059602649008,4.129136870563814
8.86092715231788,4.145790505141785
8.880794701986755,4.159648500481368
8.90066225165563,4.170684070868628
8.920529801324504,4.178875904737699
8.940397350993377,4.18420811721413
8.960264900662251,4.186670214464866
8.980132450331126,4.1862570694198
9.0,4.182968908575316
9.019867549668875,4.176811309735054
9.039735099337747,4.167795210686825
9.059602649006623,4.155936928959133
9.079470198675496,4.141258192945693
9.099337748344372,4.123786184833831
9.119205298013245,4.10355359592199
9.139072847682119,4.080598695063998
9.158940397350994,4.054965411133395
9.178807947019868,4.026703430559056
9.198675496688743,3.9958683111430084
9.218543046357615,3.9625216135310306
9.23841059602649,3.9267310518628733
9.258278145695364,3.888570665277425
9.27814569536424,3.848121012082617
9.298013245033111,3.8054693885100273
9.317880794701987,3.760710074048356
9.33774834437086,3.713944605369759
9.357615894039736,3.665282080805493
9.37748344370861,3.614839497161935
9.397350993377483,3.5627421203538914
9.417218543046358,3.509123890818326
9.437086092715232,3.4541278638912303
9.456953642384107,3.3979066842019536
9.47682119205298,3.3406230915594928
9.496688741721854,3.2824504536521206
9.516556291390728,3.223573318008477
9.536423841059603,3.164187971910319
9.556291390728477,3.104502994123998
9.57615894039735,3.0447397762473094
9.596026490066224,2.9851329839907703
9.6158940397351,2.9259309197231747
9.635761589403973,2.8673957371200256
9.655629139072847,2.8098034469592816
9.675496688741722,2.753443640501552
9.695364238410596,2.698618844378046
9.715231788079471,2.6456434099380672
9.735099337748345,2.5948418326872584
9.754966887417218,2.5465463965850414
9.774834437086092,2.5010940469788263
9.794701986754967,2.458822418536982
9.814569536423841,2.42006498407077
9.834437086092716,2.385145348679173
9.854304635761588,2.354370790750393
9.874172185430464,2.3280252427486743
9.894039735099337,2.3063620014634103
9.913907284768213,2.289596545944789
9.933774834437086,2.2778999050479327
9.95364238410596,2.2713930387443733
9.973509933774835,2.270142665843366
9.993377483443709,2.2741588817907545
10.013245033112582,2.2833947713366918
10.033112582781456,2.297748050630625
10.052980132450331,2.3170645976227817
10.072847682119205,2.341143575752763
10.09271523178808,2.369743745837314
10.112582781456952,2.40259050693588
10.132450331125828,2.439383209317976
10.152317880794701,2.4798023320955163
10.172185430463577,2.523516199140492
10.192052980132452,2.5701870024706417
10.211920529801324,2.6194759972886
10.2317880794702,2.6710478164544544
10.251655629139073,2.7245739183167967
10.271523178807948,2.7797352287135553
10.29139072847682,2.836224066822944
10.311258278145695,2.893745458400397
10.331125827814569,2.9520179424552437
10.350993377483444,3.010773972193338
10.370860927152318,3.0697600011527824
10.390728476821192,3.1287363332787876
10.410596026490065,3.1874768029204485
10.43046357615894,3.2457683384926685
10.450331125827816,3.303410452467847
10.470198675496688,3.360214690744649
10.490066225165563,3.4160040663555535
10.509933774834437,3.470612495854466
10.529801324503312,3.5238842514234143
10.549668874172186,3.5756734375775854
10.56953642384106,3.6258434981445737
10.589403973509933,3.6742667567757104
10.609271523178808,3.7208239924586444
10.629139072847682,3.7654040502095634
10.649006622516556,3.8079034862192422
10.66887417218543,3.848226246119801
10.688741721854305,3.8862833746557355
10.70860927152318,3.9219927548270754
10.728476821192054,3.9552788744787675
10.748344370860927,3.9860726183056006
10.7682119205298,4.01431108329885
10.788079470198676,4.039937415760921
10.80794701986755,4.062900668141576
