Time (s),Filtered Signal
0.0,-0.0034635016576476845
0.033370165745856356,-0.03818610137836739
0.06674033149171271,-0.09848140051270886
0.10011049723756907,-0.19254799853002805
0.13348066298342542,-0.3033743531203977
0.16685082872928178,-0.39368143602815314
0.20022099447513814,-0.42180842690206694
0.2335911602209945,-0.36095092800172646
0.26696132596685085,-0.21261613035426644
0.30033149171270723,-0.00810798582137421
0.33370165745856356,0.2023526929629746
0.3670718232044199,0.36763968069207426
0.4004419889502763,0.45288765484532945
0.43381215469613266,0.4490148412854303
0.467182320441989,0.37187866575209816
0.5005524861878453,0.2530127645741035
0.5339226519337017,0.1269401008764426
0.5672928176795581,0.020418990030845494
0.6006629834254145,-0.052958283464708836
0.6340331491712707,-0.09229381379699003
0.6674033149171271,-0.1049256439051153
0.7007734806629835,-0.10089277399148798
0.7341436464088398,-0.08879605916440919
0.7675138121546962,-0.07418242166105442
0.8008839779005525,-0.060120379639031774
0.8342541436464089,-0.04871270205146149
0.8676243093922653,-0.04219184191435039
0.9009944751381216,-0.0428434779245955
0.934364640883978,-0.051889937353494814
0.9677348066298344,-0.06814981722396354
1.0011049723756906,-0.08743993899454888
1.0344751381215471,-0.10327243092388823
1.0678453038674034,-0.10869086773839286
1.1012154696132597,-0.09848550362912178
1.1345856353591162,-0.07083765080485392
1.1679558011049724,-0.027733088053042178
1.201325966850829,0.02592292285565778
1.2346961325966852,0.08396166293383761
1.2680662983425415,0.1405361659905068
1.301436464088398,0.19091799712259394
1.3348066298342542,0.23131644889026873
1.3681767955801105,0.2582093658256281
1.401546961325967,0.26809871694943765
1.4349171270718233,0.2584221554299106
1.4682872928176796,0.22952699987763128
1.501657458563536,0.18656068062259923
1.5350276243093923,0.13957233975404157
1.5683977900552488,0.1006513276564815
1.601767955801105,0.07854272001843475
1.6351381215469614,0.07308347111308547
1.6685082872928179,0.07276146038020509
1.7018784530386741,0.05780044391417765
1.7352486187845306,0.008532318095282045
1.768618784530387,-0.08428951496245109
1.8019889502762432,-0.2123485128457861
1.8353591160220997,-0.3500621568020845
1.868729281767956,-0.46324179395533416
1.9020994475138122,-0.5227801511959169
1.9354696132596687,-0.5171166403925008
1.968839779005525,-0.4573604006657951
2.0022099447513813,-0.3722736628766004
2.0355801104972375,-0.29525211502157805
2.0689502762430942,-0.24945499386001516
2.1023204419889505,-0.23820926652329727
2.135690607734807,-0.24519227533887564
2.169060773480663,-0.24403048898648919
2.2024309392265193,-0.2123393718143066
2.235801104972376,-0.14318822326388722
2.2691712707182323,-0.04845780350007231
2.3025414364640886,0.04726904411816233
2.335911602209945,0.11893354540199182
2.369281767955801,0.15310889277763023
2.402651933701658,0.15407906086473427
2.436022099447514,0.1412223633192025
2.4693922651933704,0.1394213155430261
2.5027624309392267,0.16747190839358744
2.536132596685083,0.23003436119633663
2.5695027624309392,0.31650424129082233
2.602872928176796,0.40662175733673833
2.636243093922652,0.4795598331966757
2.6696132596685085,0.5220552800909556
2.7029834254143648,0.532188199826595
2.736353591160221,0.5178850000338148
2.7697237569060777,0.49175611449150514
2.803093922651934,0.46526484002071367
2.8364640883977903,0.44494833255030075
2.8698342541436466,0.4318330311675091
2.903204419889503,0.4232726939000181
2.936574585635359,0.41524731260303444
2.969944751381216,0.4033128211856297
3.003314917127072,0.38174786248012177
3.0366850828729284,0.3421624414771834
3.0700552486187846,0.2737777954390528
3.103425414364641,0.16695217666889517
3.1367955801104976,0.019388417677655773
3.170165745856354,-0.15808920375493316
3.20353591160221,-0.34059967019481935
3.2369060773480665,-0.4962597370651993
3.2702762430939227,-0.60050776341068
3.3036464088397794,-0.652092593599235
3.3370165745856357,-0.681931119627132
3.370386740331492,-0.747036007915264
3.4037569060773483,-0.9076255286241839
3.4371270718232045,-1.1943508141592887
3.4704972375690613,-1.5800257386757195
3.5038674033149175,-1.9717005855814884
3.537237569060774,-2.2320988516663127
3.57060773480663,-2.226297396976568
3.6039779005524863,-1.876066421067892
3.6373480662983426,-1.1978415063474808
3.6707182320441993,-0.30550139947045013
3.7040883977900556,0.6253796059864333
3.737458563535912,1.4168500171007836
3.770828729281768,1.9453356021826618
3.8041988950276244,2.1719847742844736
3.837569060773481,2.1371039767993403
3.8709392265193374,1.9270960620849793
3.9043093922651937,1.6336989229771675
3.93767955801105,1.3248112100354517
3.9710497237569062,1.0359526855744923
4.0044198895027625,0.7788292345452988
4.037790055248619,0.5559299796741994
4.071160220994475,0.3705682473111834
4.104530386740332,0.22801913630834586
4.1379005524861885,0.13036110234340445
4.171270718232044,0.0710902253888576
4.204640883977901,0.034423135905034236
4.238011049723757,0.0002641403076534822
4.271381215469614,-0.047959128170318055
4.30475138121547,-0.1168690234600424
4.338121546961326,-0.20125716955683934
4.371491712707183,-0.2872780010637443
4.404861878453039,-0.35880170069380535
4.438232044198895,-0.4038921218626277
4.471602209944752,-0.41882858555742436
4.504972375690608,-0.4085795817426118
4.538342541436465,-0.3842746913691271
4.5717127071823205,-0.3592422639864068
4.605082872928177,-0.3452555098417159
4.638453038674034,-0.3499503766674719
4.67182320441989,-0.3755024929910899
4.7051933701657465,-0.4181676431141783
4.738563535911602,-0.4684544187567101
4.771933701657459,-0.5122350165910902
4.805303867403316,-0.5333731351393307
4.8386740331491715,-0.517948831331513
4.872044198895028,-0.4590133640435205
4.905414364640884,-0.3598272238322324
4.938784530386741,-0.2336600869660671
4.972154696132597,-0.09971200058082498
5.005524861878453,0.023238605017618565
5.03889502762431,0.12257365396374723
5.072265193370166,0.19444412167619704
5.105635359116023,0.24251889949717553
5.1390055248618784,0.2741770382991968
5.172375690607735,0.2964744334542676
5.205745856353592,0.31376480571220233
5.239116022099448,0.3274627786265375
5.272486187845304,0.3371534684643007
5.30585635359116,0.3418397491077123
5.339226519337017,0.3405760318535321
5.372596685082874,0.3324739157024779
5.4059668508287295,0.3164764027811149
5.439337016574586,0.291232377299834
5.472707182320442,0.2551544741019537
5.506077348066299,0.2066574631304211
5.5394475138121555,0.14468620722940387
5.572817679558011,0.06967662517805938
5.606187845303868,-0.015196061383118778
5.639558011049724,-0.10312380878281974
5.672928176795581,-0.1840174245342309
5.706298342541437,-0.2465981755607089
5.739668508287293,-0.28176328681655805
5.77303867403315,-0.2858210778458576
5.806408839779006,-0.2619570570708237
5.839779005524862,-0.2190151394890768
5.873149171270718,-0.16798559053797832
5.906519337016575,-0.1177459764434059
5.939889502762432,-0.07198365548095502
5.9732596685082875,-0.028674154947114682
6.006629834254144,0.01769481980813586
6.04,0.07222164531439475
6.073370165745857,0.13585986470232417
6.1067403314917135,0.20365936510487134
6.140110497237569,0.2658803417186918
6.173480662983426,0.31148795541593954
6.206850828729282,0.33231818939502644
6.240220994475139,0.3258440471010457
6.273591160220995,0.29524066139340444
6.306961325966851,0.2469568013999466
6.340331491712708,0.1873593849383142
6.373701657458564,0.12039970047200546
6.40707182320442,0.04745471710919366
6.440441988950277,-0.03091624542139495
6.473812154696133,-0.11267617396338213
6.50718232044199,-0.19303324676374378
6.5405524861878455,-0.2649941448324266
6.573922651933702,-0.3214473882360862
6.607292817679559,-0.35765984275995705
6.640662983425415,-0.3729177464811265
6.674033149171271,-0.3705146772413264
6.707403314917127,-0.3560775328677657
6.740773480662984,-0.33496968466346494
6.774143646408841,-0.30993294143953026
6.8075138121546965,-0.28006129898312065
6.840883977900553,-0.24163658858182782
6.874254143646409,-0.1905055464094187
6.907624309392266,-0.12492310173589918
6.9409944751381225,-0.0475184058793622
6.974364640883978,0.03457662093505322
7.007734806629835,0.11154683732103106
7.041104972375691,0.17389666030868783
7.074475138121548,0.21540378337777336
7.107845303867403,0.23490981245063547
7.14121546961326,0.2363896411107378
7.174585635359117,0.22740429482985353
7.207955801104973,0.2165303952783124
7.241325966850829,0.2105780111687047
7.274696132596685,0.21240876596096095
7.308066298342542,0.22001298068687514
7.341436464088399,0.2272041318134787
7.3748066298342545,0.22583384821825508
7.408176795580111,0.2088952865479012
7.441546961325967,0.17345507778912955
7.474917127071824,0.12226297350788312
7.5082872928176805,0.06326734718138308
7.541657458563536,0.007040975384119381
7.575027624309393,-0.036993562110640636
7.608397790055249,-0.06404959220252575
7.641767955801106,-0.07568421295018123
7.675138121546962,-0.0789060456627572
7.708508287292818,-0.08294343813375617
7.741878453038675,-0.0949606879692058
7.775248618784531,-0.1165146587770198
7.808618784530387,-0.14229783705587226
7.841988950276244,-0.1618217288585111
7.8753591160221,-0.16352045347998614
7.908729281767957,-0.13975116684700412
7.9420994475138125,-0.09071489171836625
7.975469613259669,-0.02561333773724599
8.008839779005525,0.03966271443306929
8.042209944751383,0.08767593096714589
8.075580110497238,0.10558978189286868
8.108950276243094,0.08996731553227003
8.14232044198895,0.048265306743778325
8.175690607734808,-0.003725821193804604
8.209060773480664,-0.04768025101174267
8.24243093922652,-0.0696344777067945
8.275801104972377,-0.06529866914872129
8.309171270718233,-0.041593986744198785
8.342541436464089,-0.013655129349613625
8.375911602209946,0.0016141933476560403
8.409281767955802,-0.007174651379797253
8.442651933701658,-0.040864534398405275
8.476022099447514,-0.08919739675373978
8.509392265193371,-0.13502290198749076
8.542762430939227,-0.1614187642053269
8.576132596685083,-0.1585542502823168
8.60950276243094,-0.12729556807047365
8.642872928176796,-0.07811765713321785
8.676243093922652,-0.026063087198726295
8.709613259668508,0.015786389844883293
8.742983425414366,0.04136880999000666
8.776353591160222,0.05315639775616207
8.809723756906077,0.05979429231874031
8.843093922651935,0.07127700970117548
8.87646408839779,0.09402995125523783
8.909834254143647,0.12805719155347647
8.943204419889504,0.1671481827671792
8.97657458563536,0.20164648146312467
9.009944751381216,0.22221790834631727
9.043314917127072,0.2228782639825468
9.07668508287293,0.20222212763611122
9.110055248618785,0.1628704210523082
9.143425414364641,0.11000475132595963
9.176795580110499,0.050042764246746196
9.210165745856354,-0.009993759349859474
9.24353591160221,-0.06266494353903074
9.276906077348068,-0.10062408303902445
9.310276243093924,-0.11808251554074706
9.34364640883978,-0.1130913000493124
9.377016574585635,-0.08959333284783924
9.410386740331493,-0.057782654517172884
9.443756906077349,-0.03178432896240553
9.477127071823205,-0.024918212435565867
9.510497237569062,-0.044207834525629465
9.543867403314918,-0.0865479993439498
9.577237569060774,-0.1385528171797217
9.610607734806631,-0.18066234529750805
9.643977900552487,-0.19422889645905678
9.677348066298343,-0.1688842139326265
9.710718232044199,-0.1071655048795555
9.744088397790057,-0.02434276240609366
9.777458563535912,0.0567081243710821
9.810828729281768,0.11367247166166661
9.844198895027626,0.13275509938784372
9.877569060773482,0.11321906626754459
9.910939226519337,0.06674399618214652
9.944309392265193,0.012074976779933796
9.97767955801105,-0.032569329042673116
10.011049723756907,-0.056012623609473525
10.044419889502763,-0.056924529064168866
10.07779005524862,-0.04213954262253928
10.111160220994476,-0.021843697224075007
10.144530386740332,-0.004306718314749277
10.17790055248619,0.007271270589540464
10.211270718232045,0.014624745726082704
10.244640883977901,0.02167210555811424
10.278011049723757,0.031100672161027354
10.311381215469615,0.04233036310573034
10.34475138121547,0.05188256237951223
10.378121546961326,0.055712460098492775
10.411491712707184,0.05196770547948199
10.44486187845304,0.042469641045841035
10.478232044198895,0.03201058061209886
10.511602209944753,0.02585101028696301
10.544972375690609,0.026860525351695315
10.578342541436465,0.03397630996905575
10.61171270718232,0.04290959776142555
10.645082872928178,0.04872821614953244
10.678453038674034,0.04883364200228339
10.71182320441989,0.044584034197788495
10.745193370165747,0.04055275639730712
10.778563535911603,0.041741764850506145
10.811933701657459,0.050250658525959065
10.845303867403315,0.06328197057847723
10.878674033149172,0.07372140262809804
10.912044198895028,0.07319325496174436
10.945414364640884,0.056157105707802045
10.978784530386742,0.02299023812805582
11.012154696132598,-0.01957004461610542
11.045524861878453,-0.06097978249425088
11.078895027624311,-0.0913245009498814
11.112265193370167,-0.10559307448507166
11.145635359116023,-0.10580076191400409
11.179005524861878,-0.09997049106901422
11.212375690607736,-0.09841590594573858
11.245745856353592,-0.10895667053762784
11.279116022099448,-0.1331228713780953
11.312486187845305,-0.1649490060247326
11.345856353591161,-0.19287512755721448
11.379226519337017,-0.2040227379633528
11.412596685082875,-0.18916747633072709
11.44596685082873,-0.14643838342984639
11.479337016574586,-0.08226501143550671
11.512707182320442,-0.009211169356157081
11.5460773480663,0.05836292130820569
11.579447513812156,0.10896053834667148
11.612817679558011,0.1370211625367115
11.646187845303869,0.14334191457959972
11.679558011049725,0.13311041473077412
11.71292817679558,0.11291706057516467
11.746298342541436,0.08841168086335963
11.779668508287294,0.06363193293657277
11.81303867403315,0.041863370382092244
11.846408839779006,0.02688791462976632
11.879779005524863,0.023229225977657187
11.91314917127072,0.0346777431325756
11.946519337016575,0.061619795099337876
11.979889502762433,0.0987825171831938
12.013259668508288,0.135215835511412
12.046629834254144,0.15737361312097753
12.08,0.1544325167584658
12.113370165745858,0.12346014260177435
12.146740331491714,0.07168919496473702
12.18011049723757,0.01433424354215769
12.213480662983427,-0.031430684154516934
12.246850828729283,-0.053682765662054654
12.280220994475139,-0.0507303169291157
12.313591160220996,-0.031399987273919766
12.346961325966852,-0.01041478375231678
12.380331491712708,-0.0010725872620770177
12.413701657458564,-0.008813021223749913
12.447071823204421,-0.028857029824196877
12.480441988950277,-0.04907078156113673
12.513812154696133,-0.05654412299873005
12.54718232044199,-0.04445341299063163
12.580552486187846,-0.01563603686238448
12.613922651933702,0.018931538580772556
12.64729281767956,0.04579927599601106
12.680662983425416,0.05565709287722553
12.714033149171271,0.0472625369516205
12.747403314917127,0.026689340724430077
12.780773480662985,0.0026612960272860042
12.81414364640884,-0.019039602432325883
12.847513812154697,-0.0387279484053983
12.880883977900554,-0.061802341681933784
12.91425414364641,-0.09439801079217336
12.947624309392266,-0.13845094514337689
12.980994475138122,-0.18910795703232658
13.01436464088398,-0.23591437958815686
13.047734806629835,-0.26702894325161297
13.081104972375691,-0.27414392180372593
13.114475138121549,-0.25563179738936614
13.147845303867404,-0.2166260410391007
13.18121546961326,-0.16646488345477353
13.214585635359118,-0.11515858561701359
13.247955801104974,-0.07063891094795212
13.28132596685083,-0.03760906261423079
13.314696132596685,-0.017581259857670548
13.348066298342543,-0.009062630061863678
13.381436464088399,-0.007244782439553137
13.414806629834255,-0.0035961455878500055
13.448176795580112,0.013452197114472198
13.481546961325968,0.05575816084785051
13.514917127071824,0.1309502147613363
13.548287292817681,0.23794357884206718
13.581657458563537,0.36496215109438473
13.615027624309393,0.49170648718201454
13.648397790055249,0.5952695543629062
13.681767955801106,0.6572870851169854
13.715138121546962,0.6689387598696311
13.748508287292818,0.6314672088210922
13.781878453038676,0.5523791142128455
13.815248618784532,0.43998559188931674
13.848618784530387,0.29984496811396255
13.881988950276245,0.13532209923300206
13.9153591160221,-0.048339152302682264
13.948729281767957,-0.2395112585749262
13.982099447513813,-0.41882470491467644
14.01546961325967,-0.5627020914840108
14.048839779005526,-0.6505412039320109
14.082209944751382,-0.6720397102995903
14.11558011049724,-0.6309617643448183
14.148950276243095,-0.5435318101355866
14.182320441988951,-0.4323955989407205
14.215690607734807,-0.3191430970403951
14.249060773480664,-0.2187404791450128
14.28243093922652,-0.1378822721298099
14.315801104972376,-0.0771119252117472
14.349171270718234,-0.034732494943156084
14.38254143646409,-0.009913928724921332
14.415911602209945,-0.003208897997914758
14.449281767955803,-0.014407112920552812
14.482651933701659,-0.039337107916365584
14.516022099447515,-0.06795516126942847
14.54939226519337,-0.08545056444750002
14.582762430939228,-0.07648201812545781
14.616132596685084,-0.0309238456585594
14.64950276243094,0.051423885706712504
14.682872928176797,0.15935530164776712
14.716243093922653,0.2728078786526494
14.749613259668509,0.36854697500607864
14.782983425414367,0.42689739175186614
14.816353591160222,0.4371737636565256
14.849723756906078,0.40009075430335944
14.883093922651934,0.32658893197309036
14.916464088397792,0.2337510728907399
14.949834254143648,0.13941798797039517
14.983204419889503,0.05744379357261501
15.016574585635361,-0.004884208540294979
15.049944751381217,-0.04675724460651499
15.083314917127073,-0.07175585467944454
15.116685082872928,-0.08516198190686179
15.150055248618786,-0.09200235996551394
15.183425414364642,-0.09637595048308292
15.216795580110498,-0.10166555271369188
15.250165745856355,-0.11072309760794263
15.283535911602211,-0.125347308276149
15.316906077348067,-0.14512923882792295
15.350276243093925,-0.16646336582053914
15.38364640883978,-0.182687272542105
15.417016574585636,-0.18578353843665657
15.450386740331492,-0.16917242354610135
15.48375690607735,-0.13040006250527528
15.517127071823205,-0.07243079830559519
15.550497237569061,-0.0028629518754192196
15.583867403314919,0.06861576961303487
15.617237569060775,0.133364751947564
15.65060773480663,0.18609002102733055
15.683977900552488,0.2253314219400848
15.717348066298344,0.25206753673121374
15.7507182320442,0.2672485417421451
15.784088397790056,0.26951760814875575
15.817458563535913,0.2542765489578278
15.85082872928177,0.21472350693922831
15.884198895027625,0.14475193881557455
15.917569060773483,0.04282339898948096
15.950939226519338,-0.08470170570581784
15.984309392265194,-0.2224756242747889
16.01767955801105,-0.3484519873270651
16.051049723756908,-0.4393659791180726
16.084419889502765,-0.477660797765402
16.11779005524862,-0.45716795781431446
16.151160220994477,-0.38514728466086556
16.18453038674033,-0.2797777189900953
16.21790055248619,-0.1641189078459112
16.251270718232046,-0.05897715850080905
16.2846408839779,0.022616865650159843
16.318011049723758,0.07749639338333886
16.351381215469615,0.1107348343708271
16.38475138121547,0.13151639754338076
16.418121546961327,0.14851766938696817
16.451491712707185,0.1666830285885086
16.48486187845304,0.186363115672258
16.518232044198896,0.20460035354201322
16.551602209944754,0.21747970216024004
16.584972375690608,0.22227086849129535
16.618342541436466,0.21851113905279906
16.651712707182323,0.20784516965809527
16.685082872928177,0.19296577611838323
16.718453038674035,0.17623249390290915
16.751823204419892,0.15855030170230486
16.785193370165747,0.1389727716361509
16.818563535911604,0.11525412347521255
16.851933701657458,0.08517825059967397
16.885303867403316,0.048039408429419714
16.918674033149173,0.005420617804040491
16.952044198895027,-0.039316024555749604
16.985414364640885,-0.08267206601806254
17.018784530386743,-0.12283812816206863
17.052154696132597,-0.16047460902119134
17.085524861878454,-0.19775643974134663
17.118895027624312,-0.23607886863157868
17.152265193370166,-0.2737698040732811
