Frequency (Hz),Amplitude
0.0,0.9999455469668241
0.01978021978021978,1.007511194694587
0.03956043956043956,1.0298456364353656
0.05934065934065934,1.065936819395455
0.07912087912087912,1.1143151577232229
0.0989010989010989,1.173284666651686
0.11868131868131868,1.2411225323488164
0.13846153846153844,1.316213104597408
0.15824175824175823,1.3971166260477537
0.17802197802197803,1.4825899911021592
0.1978021978021978,1.5715790559365774
0.21758241758241756,1.663197456801606
0.23736263736263735,1.7567012431083453
0.2571428571428572,1.851464242760866
0.2769230769230769,1.946956303628861
0.2967032967032967,2.042725027840329
0.31648351648351647,2.1383808758811926
0.3362637362637363,2.2335852187150826
0.35604395604395606,2.3280408411333577
0.3758241758241758,2.4214844260947395
0.3956043956043956,2.5136806144054598
0.4153846153846154,2.6044173062397356
0.4351648351648351,2.693501937596129
0.45494505494505494,2.7807585213234396
0.4747252747252747,2.866025288286047
0.4945054945054945,2.9491528006467758
0.5142857142857143,3.0300024376942045
0.5340659340659341,3.108445176697756
0.5538461538461538,3.1843606083105276
0.5736263736263736,3.2576361391848203
0.5934065934065934,3.3281663446160534
0.6131868131868132,3.3958524418850593
0.6329670329670329,3.460601861063825
0.6527472527472528,3.5223278947965335
0.6725274725274726,3.5809494122793186
0.6923076923076923,3.6363906255759924
0.7120879120879121,3.6885808987059168
0.7318681318681318,3.7374545917613826
0.7516483516483516,3.782950933762349
0.7714285714285715,3.825013919116942
0.7912087912087912,3.863592223489688
0.810989010989011,3.8986391356344376
0.8307692307692308,3.9301125023631513
0.8505494505494506,3.9579746843243457
0.8703296703296702,3.9821925206793973
0.8901098901098901,4.00273730110915
0.9098901098901099,4.0195847438717704
0.9296703296703297,4.032714978877549
0.9494505494505494,4.042112534956158
0.9692307692307692,4.047766330675048
0.989010989010989,4.049669668230241
1.0087912087912088,4.047820230078316
1.0285714285714287,4.042220078115661
1.0483516483516484,4.03287565534265
1.0681318681318681,4.019797790079526
1.087912087912088,4.003001702932669
1.1076923076923075,3.982507016847262
1.1274725274725275,3.9583377707305956
1.1472527472527472,3.9305224372933227
1.1670329670329669,3.8990939459401552
1.1868131868131868,3.8640897117522583
1.2065934065934065,3.82555167184998
1.2263736263736265,3.7835263307145377
1.2461538461538462,3.738064816394101
1.2659340659340659,3.689222949936583
1.2857142857142858,3.6370613308976174
1.3054945054945055,3.581645442390882
1.3252747252747252,3.52304577990789
1.3450549450549452,3.4613380090751673
1.3648351648351649,3.396603158685342
1.3846153846153846,3.328927856799987
1.4043956043956045,3.258404619556862
1.4241758241758242,3.185132204629859
1.443956043956044,3.1092160442260632
1.4637362637362636,3.0307687762432303
1.4835164835164834,2.9499108969935133
1.5032967032967033,2.8667715650396626
1.523076923076923,2.781489593602366
1.542857142857143,2.6942146792222585
1.5626373626373626,2.6051089275994133
1.5824175824175823,2.51434875468868
1.6021978021978023,2.4221272633329893
1.621978021978022,2.3286572243447368
1.6417582417582417,2.234174827560424
1.6615384615384616,2.138944414552148
1.6813186813186813,2.043264461414336
1.7010989010989013,1.9474751467246607
1.720879120879121,1.8519679117172692
1.7406593406593405,1.7571974834413862
1.7604395604395604,1.6636968560726182
1.7802197802197801,1.5720956459540367
1.7999999999999998,1.4831419283341636
1.8197802197802198,1.3977269084764847
1.8395604395604395,1.3169102277999485
1.8593406593406594,1.241940898738811
1.879120879120879,1.1742644419606434
1.8989010989010988,1.1155011542670306
1.9186813186813187,1.0673759779539118
1.9384615384615385,1.0315829456103436
1.9582417582417584,1.0095845491989668
1.978021978021978,1.0023809168234388
1.9978021978021978,1.0103199120634776
2.0175824175824175,1.0330249581135937
2.0373626373626372,1.0694734077845356
2.0571428571428574,1.1181898711114278
2.076923076923077,1.1774769262175515
2.096703296703297,1.2456133037813795
2.1164835164835165,1.3209863988577752
2.1362637362637362,1.4021598989870632
2.1560439560439564,1.4878939067734969
2.175824175824176,1.5771369711463814
2.195604395604396,1.6690048425942219
2.215384615384615,1.7627551496292988
2.2351648351648348,1.857762847417704
2.254945054945055,1.953498548135171
2.2747252747252746,2.0495103348716124
2.2945054945054943,2.1454089314449214
2.314285714285714,2.240855806427657
2.3340659340659338,2.3355537164927487
2.353846153846154,2.4292392211516805
2.3736263736263736,2.5216767653854024
2.3934065934065933,2.6126539984591717
2.413186813186813,2.7019780634308472
2.4329670329670328,2.7894726480684784
2.452747252747253,2.874975633561136
2.4725274725274726,2.958337213607052
2.4923076923076923,3.0394183847549243
2.512087912087912,3.1180897308135185
2.5318681318681318,3.1942304410946982
2.5516483516483515,3.2677275153361722
2.5714285714285716,3.338475118254209
2.5912087912087913,3.406374054496181
2.610989010989011,3.471331340832511
2.6307692307692307,3.533259857155822
2.6505494505494505,3.592078061552192
2.6703296703296706,3.647709757613589
2.6901098901098903,3.7000839044513034
2.70989010989011,3.7491344616858
2.7296703296703297,3.7948002631347593
2.7494505494505495,3.8370249140780723
2.769230769230769,3.8757567079100643
2.7890109890109893,3.9109485587422834
2.808791208791209,3.9425579471329577
2.8285714285714287,3.9705468766211554
2.8483516483516484,3.994881839157177
2.8681318681318677,4.015533787864582
2.887912087912088,4.032478115857582
2.9076923076923076,4.045694640081905
2.9274725274725273,4.055167589357349
2.947252747252747,4.060885595983411
2.9670329670329667,4.062841690432075
2.986813186813187,4.061033298800042
3.0065934065934066,4.0554622428302025
3.0263736263736263,4.046134742444343
3.046153846153846,4.0330614208592355
3.0659340659340657,4.016257312490679
3.085714285714286,3.995741873988908
3.1054945054945056,3.971538998898009
3.1252747252747253,3.9436770365971716
3.145054945054945,3.9121888163670464
3.1648351648351647,3.8771116776384877
3.184615384615385,3.838487507729467
3.2043956043956046,3.7963627886699745
3.2241758241758243,3.750788655065454
3.243956043956044,3.701820965371637
3.2637362637362637,3.6495203894661152
3.2835164835164834,3.5939525160283625
3.3032967032967036,3.535187984009931
3.3230769230769233,3.4733026434287972
3.342857142857143,3.408377751905771
3.3626373626373627,3.340500214840372
3.3824175824175824,3.2697628789816062
3.4021978021978025,3.196264891493512
3.4219780219780223,3.1201121395878824
3.441758241758242,3.0414177895806787
3.4615384615384617,2.9603029490687414
3.481318681318681,2.8768974821352016
3.501098901098901,2.791341015494973
3.520879120879121,2.703784183827985
3.5406593406593405,2.6143901759262334
3.5604395604395602,2.523336660604097
3.58021978021978,2.4308181937251314
3.5999999999999996,2.337049236552797
3.61978021978022,2.242267952485416
3.6395604395604395,2.1467409956012
3.659340659340659,2.050769561265025
3.679120879120879,1.9546970355307651
3.6989010989010986,1.8589186511982119
3.718681318681319,1.7638936201011493
3.7384615384615385,1.6701602313599646
3.758241758241758,1.5783543176434862
3.7780219780219784,1.4892311695221994
3.7978021978021976,1.4036901992815898
3.8175824175824173,1.322800069557778
3.8373626373626375,1.247819155434844
3.8571428571428568,1.180201764656835
3.876923076923077,1.1215749396253127
3.896703296703296,1.0736664029509941
3.916483516483517,1.0381671103416943
3.936263736263736,1.016529710424408
3.956043956043956,1.0097388042839952
3.9758241758241755,1.0181242959961658
3.9956043956043956,1.0412933827772064
4.015384615384615,1.0782120038304057
4.035164835164835,1.127398956347319
4.054945054945055,1.1871554455716948
4.0747252747252745,1.2557613585960608
4.094505494505494,1.3316061179869967
4.114285714285715,1.41325528870533
4.134065934065934,1.4994702539269842
4.153846153846154,1.5892001610881819
4.173626373626373,1.6815607641468857
4.193406593406594,1.7758092413108355
4.213186813186813,1.8713197811988351
4.232967032967033,1.9675620254877857
4.252747252747253,2.06408296640452
4.2725274725274724,2.1604921751830535
4.292307692307692,2.2564499454393534
4.312087912087913,2.3516578618799118
4.331868131868132,2.4458513306872676
4.351648351648352,2.5387936712590986
4.371428571428571,2.6302714398502087
4.391208791208792,2.720090721185221
4.410989010989011,2.808074179809539
4.43076923076923,2.8940587082602534
4.450549450549451,2.9778935450953337
4.4703296703296695,3.059438763947481
4.49010989010989,3.1385640565984088
4.50989010989011,3.215147749947297
4.52967032967033,3.2890760097810126
4.549450549450549,3.360242194327495
4.569230769230769,3.4285463283738418
4.589010989010989,3.493894674789146
4.608791208791209,3.5561993850128863
4.628571428571428,3.6153782137633534
4.648351648351649,3.671354286122941
4.6681318681318675,3.7240559074474033
4.687912087912088,3.7734164083619564
4.707692307692308,3.8193740185543756
4.7274725274725276,3.8618717642330176
4.747252747252747,3.9008573850506445
4.767032967032967,3.936283267048591
4.786813186813187,3.9681063887905252
4.806593406593407,3.996288278357184
4.826373626373626,4.0207949792889695
4.846153846153847,4.041597023907515
4.8659340659340655,4.058669412737033
4.885714285714286,4.071991598991696
4.905494505494506,4.081547477306252
4.9252747252747255,4.087325376071308
4.945054945054945,4.089318052898791
4.964835164835165,4.087522692891993
4.984615384615385,4.081940909533828
5.004395604395604,4.072578748140143
5.024175824175824,4.059446691956891
5.043956043956045,4.042559671113957
5.0637362637362635,4.021937074789409
5.083516483516483,3.9976027670895324
5.103296703296703,3.9695851073177253
5.123076923076923,3.9379169754943666
5.142857142857143,3.9026358042072933
5.162637362637362,3.8637836181258507
5.182417582417583,3.821407082811008
5.2021978021978015,3.7755575648113364
5.221978021978022,3.726291205465363
5.241758241758242,3.6736690113528065
5.2615384615384615,3.6177569649761607
5.281318681318681,3.5586261600384614
5.301098901098901,3.4963529666542006
5.320879120879121,3.4310192330364755
5.340659340659341,3.3627125317114013
5.36043956043956,3.291526460203607
5.380219780219781,3.217561008524799
5.3999999999999995,3.140923008823976
5.41978021978022,3.061726686410425
5.43956043956044,2.980094336284907
5.4593406593406595,2.8961571556328254
5.479120879120879,2.810056270866697
5.498901098901099,2.7219440083047193
5.518681318681319,2.6319854711474417
5.538461538461538,2.5403605029754264
5.558241758241758,2.4472661406679417
5.578021978021979,2.352919688798469
5.5978021978021975,2.2575625847101413
5.617582417582418,2.161465270059059
5.637362637362637,2.0649333414363014
5.6571428571428575,1.968315318659859
5.676923076923077,1.8720124389429862
5.696703296703297,1.7764909434471763
5.716483516483517,1.6822973360582683
5.736263736263735,1.5900769939413464
5.756043956043956,1.5005961658307276
5.775824175824176,1.4147665811379722
5.795604395604395,1.3336702594859826
5.815384615384615,1.2585792123425377
5.835164835164835,1.190960264233831
5.854945054945055,1.1324497081788174
5.874725274725275,1.0847785557065424
5.894505494505494,1.049632615285687
5.914285714285715,1.0284500549437563
5.934065934065933,1.0221936267552536
5.953846153846154,1.0311688165854118
5.973626373626374,1.0549614913445653
5.993406593406593,1.0925231245296008
6.013186813186813,1.1423654414097184
6.032967032967033,1.20278801845773
6.052747252747253,1.2720718714003993
6.072527472527473,1.3486081788559616
6.092307692307692,1.430963708135067
6.112087912087913,1.5179000793075927
6.131868131868131,1.6083657394640738
6.151648351648352,1.7014750123082774
6.171428571428572,1.7964831536956831
6.191208791208791,1.892762141625808
6.210989010989011,1.989779271262551
6.230769230769231,2.087079156775635
6.2505494505494505,2.1842690263231423
6.270329670329671,2.281006904732962
6.29010989010989,2.3769922030632844
6.309890109890111,2.471958257906289
6.329670329670329,2.565666424679391
6.349450549450549,2.6579013985248636
6.36923076923077,2.7484675008859343
6.3890109890109885,2.837185724792101
6.408791208791209,2.9238913767088723
6.428571428571428,3.0084321884431793
6.4483516483516485,3.0906668005182296
6.468131868131868,3.17046354013211
6.487912087912088,3.2476994336135725
6.507692307692308,3.3222594062759248
6.527472527472527,3.3940356326178516
6.547252747252747,3.4629270076072274
6.567032967032967,3.5288387158373262
6.5868131868131865,3.5916818800651438
6.606593406593407,3.6513732743379927
6.626373626373626,3.707835089819915
6.6461538461538465,3.7609947437245497
6.665934065934065,3.810784723581323
6.685714285714286,3.8571424605130398
6.705494505494506,3.9000102263655387
6.725274725274725,3.939335050465914
6.745054945054945,3.975068652543799
6.764835164835165,4.007167388967304
6.7846153846153845,4.035592209950641
6.804395604395605,4.060308625808128
6.824175824175824,4.08128668067618
6.8439560439560445,4.098500932416534
6.863736263736263,4.111930437661448
6.883516483516484,4.121558741174565
6.903296703296704,4.127373868887289
6.923076923076923,4.129368324136374
6.942857142857143,4.1275390867793424
6.962637362637362,4.121887615005615
6.9824175824175825,4.112419849796621
7.002197802197802,4.0991462221224735
7.021978021978022,4.082081663099489
7.041758241758242,4.061245617476895
7.061538461538461,4.036662060975882
7.081318681318681,4.008359522176325
7.101098901098901,3.9763711098398393
7.1208791208791204,3.9407345467813317
7.140659340659341,3.901492211660935
7.16043956043956,3.858691190375978
7.1802197802197805,3.812383339099518
7.199999999999999,3.762625361454325
7.21978021978022,3.709478902847691
7.23956043956044,3.6530106656484334
7.259340659340659,3.5932925496937114
7.279120879120879,3.5304018236101014
7.298901098901099,3.4644213336725307
7.318681318681318,3.3954397584725653
7.338461538461539,3.323551919610175
7.358241758241758,3.2488591610738693
7.3780219780219785,3.171469813077613
7.397802197802197,3.0914997600726264
7.417582417582418,3.00907313769643
7.437362637362638,2.924323189889853
7.457142857142857,2.8373933257316315
7.476923076923077,2.7484384262671813
7.496703296703297,2.657626465459794
7.516483516483516,2.5651405272805357
7.536263736263736,2.471181324005843
7.556043956043957,2.3759703503502303
7.575824175824176,2.2797538455890027
7.595604395604395,2.182807782657297
7.615384615384615,2.0854441599283167
7.635164835164835,1.9880189364795455
7.654945054945055,1.8909420188758062
7.674725274725275,1.7946897605748895
7.694505494505494,1.6998204381656334
7.7142857142857135,1.6069930497985037
7.734065934065935,1.5169894061391982
7.753846153846154,1.4307386225026355
7.7736263736263735,1.3493414211291235
7.793406593406592,1.2740886866076528
7.813186813186814,1.206464235567893
7.832967032967034,1.1481163925256717
7.852747252747252,1.1007794650119207
7.872527472527472,1.0661304913885519
7.892307692307693,1.0455858291425952
7.912087912087912,1.0400764647403709
7.931868131868132,1.0498730892276527
7.951648351648351,1.0745316255007356
7.971428571428572,1.112983515892014
7.991208791208791,1.16373087020983
8.010989010989011,1.2250712002732882
8.03076923076923,1.2952872188820623
8.05054945054945,1.3727726040930108
8.07032967032967,1.4560958028617386
8.09010989010989,1.5440187420891043
8.10989010989011,1.6354888564927221
8.129670329670331,1.7296184362988278
8.149450549450549,1.8256600200488446
8.169230769230769,1.922982472416541
8.189010989010988,2.021049793956971
8.20879120879121,2.119403269789694
8.22857142857143,2.217646858031501
8.248351648351647,2.3154354275205944
8.268131868131867,2.4124653763777673
8.287912087912087,2.508467183469361
8.307692307692308,2.6031995034633164
8.327472527472528,2.6964444834364856
8.347252747252746,2.788004041927988
8.367032967032966,2.877696905259168
8.386813186813187,2.9653562400689992
8.406593406593407,3.050827756196482
8.426373626373627,3.133968181672742
8.446153846153845,3.214644033104117
8.465934065934066,3.2927306214148375
8.485714285714286,3.36811124583977
8.505494505494505,3.4406765390687992
8.525274725274725,3.5103239342136456
8.545054945054945,3.576957230313755
8.564835164835165,3.640486237818261
8.584615384615384,3.7008264891803058
8.604395604395604,3.757899002611226
8.624175824175826,3.811630089343081
8.643956043956043,3.8619511965747733
8.663736263736263,3.9087987797346195
8.683516483516483,3.952114198860332
8.703296703296704,3.9918436348389803
8.723076923076924,4.027938022012273
8.742857142857142,4.060352994273854
8.762637362637362,4.089048842295196
8.782417582417583,4.1139904799374385
8.802197802197803,4.135147418257349
8.821978021978023,4.152493745809777
8.84175824175824,4.166008114199656
8.86153846153846,4.175673728052281
8.881318681318682,4.181478338759327
8.901098901098901,4.183414241526599
8.920879120879121,4.181478275403374
8.940659340659339,4.175671826117035
8.96043956043956,4.166000831675255
8.98021978021978,4.152475790835747
9.0,4.135111774683929
9.01978021978022,4.113928441707001
9.03956043956044,4.088950056912997
9.05934065934066,4.060205515720603
9.079120879120879,4.027728373546107
9.098901098901099,3.9915568822445144
9.11868131868132,3.9517340348314924
9.138461538461538,3.9083076202313247
9.158241758241758,3.8613302901766584
9.178021978021977,3.8108596408442894
9.197802197802199,3.756958312367811
9.217582417582419,3.6996941100480867
9.237362637362637,3.6391401519184607
9.257142857142856,3.5753750483554216
9.276923076923078,3.508483120709435
9.296703296703297,3.438554667534968
9.316483516483517,3.3656862890109407
9.336263736263735,3.2899812826798844
9.356043956043957,3.2115501268461633
9.375824175824176,3.130511072056885
9.395604395604396,3.0469908663016723
9.415384615384616,2.9611256462430497
9.435164835164835,2.873062035365393
9.454945054945055,2.782958500972015
9.474725274725275,2.6909870361917556
9.494505494505495,2.5973352514929133
9.514285714285714,2.5022089837643264
9.534065934065934,2.4058355611191744
9.553846153846154,2.3084678995939805
9.573626373626373,2.210389655021598
9.593406593406593,2.111921709810486
9.613186813186815,2.013430338059338
9.632967032967032,1.9153374560082794
9.652747252747252,1.818133410130088
9.672527472527472,1.722392743270236
9.692307692307693,1.6287932334591166
9.712087912087913,1.5381380798859594
9.731868131868131,1.4513801797230255
9.75164835164835,1.3696456478218288
9.771428571428572,1.2942506749830445
9.791208791208792,1.2267013266783546
9.810989010989012,1.1686607389196704
9.83076923076923,1.121865332413648
9.850549450549451,1.0879770758454135
9.87032967032967,1.0683790414751428
9.89010989010989,1.0639554013731307
9.90989010989011,1.0749264260480687
9.92967032967033,1.1008050605529431
9.94945054945055,1.1404942082837715
9.96923076923077,1.1924825172177398
9.989010989010989,1.2550650789715285
10.008791208791209,1.3265278766382123
10.028571428571428,1.4052693033456807
10.048351648351648,1.489861558312686
10.068131868131868,1.5790684539256257
10.08791208791209,1.671837421820808
10.107692307692307,1.7672792195273654
10.127472527472527,1.864643768823445
10.147252747252747,1.963296631395218
10.167032967032966,2.062698126516829
10.186813186813188,2.1623856985685816
10.206593406593406,2.261959451473021
10.226373626373626,2.3610704783380814
10.246153846153845,2.459411534088862
10.265934065934067,2.556709615635963
10.285714285714286,2.6527200692634127
10.305494505494504,2.7472219094084633
10.325274725274724,2.840014093895584
10.345054945054946,2.9309125531714706
10.364835164835165,3.0197478142301635
10.384615384615385,3.1063630944395233
10.404395604395603,3.1906127676766975
10.424175824175824,3.2723611264167656
10.443956043956044,3.3514813799265717
10.463736263736264,3.427854841525783
10.483516483516484,3.5013702678204726
10.503296703296703,3.5719233205448697
10.523076923076923,3.6394161276717245
10.542857142857143,3.7037569251630558
10.562637362637362,3.764859764429681
10.582417582417584,3.82264427348133
10.602197802197802,3.8770354620542653
10.621978021978022,3.9279635628352945
10.641758241758241,3.9753639023647276
10.661538461538463,4.0191767963748015
10.681318681318682,4.059347465267283
10.7010989010989,4.095825966202034
