Frequency (Hz),Amplitude
0.0,0.6173719763282457
0.019867549668874173,0.6170885352649912
0.039735099337748346,0.6162385463922557
0.059602649006622516,0.6148230128922757
0.07947019867549669,0.612843607517021
0.09933774834437085,0.6103026737973053
0.11920529801324503,0.6072032278105547
0.13907284768211922,0.6035489605846633
0.15894039735099338,0.5993442412418972
0.17880794701986755,0.5945941210160526
0.1986754966887417,0.5893043383099281
0.2185430463576159,0.5834813249991667
0.23841059602649006,0.5771322142351573
0.2582781456953642,0.5702648500539742
0.27814569536423844,0.562887799164952
0.2980132450331126,0.5550103653717808
0.31788079470198677,0.5466426071764459
0.33774834437086093,0.5377953592353644
0.3576158940397351,0.5284802584837986
0.3774834437086093,0.5187097759260485
0.3973509933774834,0.5084972553154851
0.4172185430463576,0.49785696023024517
0.4370860927152318,0.48680413140584267
0.45695364238410596,0.47535505663233285
0.4768211920529801,0.4635271560897478
0.49668874172185434,0.45133908671371586
0.5165562913907285,0.4388108700977786
0.5364238410596026,0.42596404960760614
0.5562913907284769,0.41282188387544644
0.5761589403973509,0.39940958575504265
0.5960264900662252,0.385754618258542
0.6158940397350993,0.37188706210585915
0.6357615894039735,0.35784007344401086
0.6556291390728477,0.34365045519250437
0.6754966887417219,0.3293593714460317
0.695364238410596,0.31501324138382913
0.7152317880794702,0.3006648568262556
0.7350993377483444,0.28637477486682295
0.7549668874172186,0.2722130414195516
0.7748344370860927,0.2582612979765422
0.7947019867549668,0.2446153026912336
0.8145695364238411,0.23138784086886532
0.8344370860927152,0.21871188087159846
0.8543046357615894,0.20674360866496408
0.8741721854304636,0.19566460220299117
0.8940397350993378,0.18568186742305817
0.9139072847682119,0.17702383966663235
0.9337748344370861,0.16993008528328957
0.9536423841059603,0.16463297779822375
0.9735099337748344,0.16133184411355816
0.9933774834437087,0.1601640184076567
1.0132450331125828,0.16118111204718222
1.033112582781457,0.16433929995151716
1.0529801324503312,0.16950766362090622
1.0728476821192052,0.1764910996112768
1.0927152317880795,0.18505917866280616
1.1125827814569538,0.19497244693862775
1.1324503311258278,0.20600139179980642
1.1523178807947019,0.21793732143404085
1.1721854304635762,0.23059677759574568
1.1920529801324504,0.2438217457015515
1.2119205298013245,0.2574776009215138
1.2317880794701985,0.2714501152238667
1.2516556291390728,0.285642299987979
1.271523178807947,0.29997147398738666
1.2913907284768211,0.31436671388029175
1.3112582781456954,0.3287667188591737
1.3311258278145695,0.3431180613451662
1.3509933774834437,0.3573737724347646
1.370860927152318,0.37149220628461377
1.390728476821192,0.38543613161124757
1.410596026490066,0.3991720056368764
1.4304635761589404,0.41266939350488524
1.4503311258278146,0.42590050326427276
1.4701986754966887,0.43883981257257854
1.4900662251655628,0.451463768237551
1.5099337748344372,0.4637505437103497
1.5298013245033113,0.475679842804803
1.5496688741721854,0.487232740402935
1.5695364238410596,0.49839155285240283
1.5894039735099337,0.5091397322829115
1.609271523178808,0.5194617802573834
1.6291390728476822,0.5293431771056507
1.6490066225165563,0.5387703240191013
1.6688741721854303,0.5477304955603141
1.6887417218543048,0.5562118006970327
1.7086092715231789,0.5642031508297058
1.728476821192053,0.5716942335698727
1.7483443708609272,0.5786754912558262
1.7682119205298013,0.5851381033768324
1.7880794701986755,0.5910739722261305
1.8079470198675496,0.5964757112237115
1.8278145695364238,0.6013366354487127
1.847682119205298,0.6056507540019026
1.8675496688741722,0.6094127638858398
1.8874172185430464,0.6126180451456881
1.9072847682119205,0.6152626570607147
1.9271523178807946,0.6173433352156895
1.9470198675496688,0.6188574893158599
1.9668874172185429,0.6198032016386855
1.9867549668874174,0.6201792260417296
2.0066225165562916,0.6199849874703679
2.0264900662251657,0.6192205819307156
2.0463576158940397,0.6178867769146776
2.066225165562914,0.615985012284721
2.086092715231788,0.6135174016469087
2.1059602649006623,0.6104867342629359
2.1258278145695364,0.6068964775751254
2.1456953642384105,0.6027507804444591
2.165562913907285,0.5980544772306414
2.185430463576159,0.5928130928762635
2.205298013245033,0.5870328491959581
2.2251655629139075,0.5807206726166775
2.2450331125827816,0.5738842036692985
2.2649006622516556,0.5665318085965062
2.2847682119205297,0.5586725935208274
2.3046357615894038,0.5503164217116552
2.324503311258278,0.5414739346082226
2.3443708609271523,0.5321565773993707
2.364238410596027,0.5223766301408298
2.384105960264901,0.5121472456135016
2.403973509933775,0.5014824954062039
2.423841059602649,0.49039742605729325
2.443708609271523,0.47890812753351614
2.463576158940397,0.4670318168864309
2.4834437086092715,0.4547869406431449
2.5033112582781456,0.44219330040152943
2.52317880794702,0.42927220727088455
2.543046357615894,0.4160466723010991
2.562913907284768,0.4025416419734491
2.5827814569536423,0.38878429030440637
2.6026490066225163,0.3748043822883508
2.622516556291391,0.36063472744787406
2.642384105960265,0.34631174735367865
2.662251655629139,0.33187618727654966
2.6821192052980134,0.317374009684599
2.7019867549668874,0.30285751585112214
2.7218543046357615,0.2883867504948642
2.741721854304636,0.2740312509116869
2.76158940397351,0.25987220171167474
2.781456953642384,0.24600503965960893
2.801324503311258,0.23254250301589227
2.821192052980132,0.21961800703011017
2.8410596026490067,0.20738900781474165
2.8609271523178808,0.19603963701339053
2.8807947019867552,0.18578131592505265
2.9006622516556293,0.17684935818264333
2.9205298013245033,0.16949306297497566
2.9403973509933774,0.16395719111315452
2.9602649006622515,0.16045492349320667
2.9801324503311255,0.15913666531612236
3.0,0.16006359144371868
3.0198675496688745,0.16319587531152352
3.0397350993377485,0.16840061270178533
3.0596026490066226,0.17547601021160147
3.0794701986754967,0.18418240528838556
3.0993377483443707,0.19427061547614383
3.119205298013245,0.20550227155752673
3.1390728476821192,0.2176613245066268
3.1589403973509933,0.23055855747913864
3.1788079470198674,0.24403161695166575
3.198675496688742,0.25794268209648386
3.218543046357616,0.2721751961457286
3.23841059602649,0.2866304754224287
3.2582781456953644,0.3012245951998105
3.2781456953642385,0.3158857048565353
3.2980132450331126,0.3305517948664176
3.3178807947019866,0.34516887830433374
3.3377483443708607,0.3596895278535194
3.3576158940397347,0.3740717065497283
3.3774834437086096,0.3882778360626195
3.3973509933774837,0.40227405471004196
3.4172185430463577,0.41602962601714866
3.437086092715232,0.4295164663732042
3.456953642384106,0.44270876685877203
3.47682119205298,0.45558268961517373
3.4966887417218544,0.4681161233488993
3.5165562913907285,0.480288485883405
3.5364238410596025,0.4920805642660994
3.556291390728477,0.5034743849602945
3.576158940397351,0.5144531082253135
3.596026490066225,0.5250009420145887
3.615894039735099,0.5351030716784404
3.6357615894039736,0.5447456025075347
3.6556291390728477,0.5539155127409958
3.6754966887417218,0.5626006151273157
3.695364238410596,0.5707895254926785
3.7152317880794703,0.5784716370632934
3.7350993377483444,0.5856370995211326
3.754966887417219,0.5922768019588605
3.774834437086093,0.5983823590507045
3.794701986754967,0.6039460998776629
3.814569536423841,0.6089610589447415
3.834437086092715,0.6134209690094046
3.854304635761589,0.617320255407514
3.8741721854304636,0.620654031618737
3.8940397350993377,0.6234180958603407
3.9139072847682117,0.6256089285376574
3.9337748344370858,0.6272236904138921
3.9536423841059607,0.6282602213909808
3.9735099337748347,0.6287170398198767
3.993377483443709,0.6285933422821449
4.013245033112583,0.6278890038065692
4.033112582781457,0.6266045785057724
4.052980132450331,0.6247413006379072
4.072847682119205,0.6223010861195403
4.0927152317880795,0.6192865345372828
4.112582781456953,0.6157009317287339
4.132450331125828,0.6115482530288938
4.152317880794702,0.6068331673063955
4.172185430463576,0.601561041946624
4.19205298013245,0.5957379489766382
4.211920529801325,0.5893706725713792
4.231788079470199,0.5824667182336958
4.251655629139073,0.5750343240047107
4.271523178807947,0.567082474138391
4.291390728476821,0.558620915768543
4.311258278145695,0.5496601792127183
4.33112582781457,0.5402116027007597
4.3509933774834435,0.5302873624939908
4.370860927152318,0.5199005095835643
4.390728476821192,0.5090650144355466
4.410596026490066,0.4977958216031643
4.43046357615894,0.4861089164722087
4.450331125827815,0.47402140697463246
4.470198675496689,0.46155162383110265
4.490066225165563,0.4487192438160614
4.509933774834438,0.4355454417394953
4.529801324503311,0.42205307839154077
4.549668874172186,0.4082669337047392
4.569536423841059,0.39421399699257087
4.589403973509934,0.3799238294944701
4.6092715231788075,0.3654290188082662
4.629139072847682,0.3507657503657881
4.649006622516556,0.33597452815385004
4.66887417218543,0.3211010855857226
4.688741721854305,0.30619753774280056
4.708609271523179,0.29132383751884067
4.728476821192054,0.27654960865226885
4.748344370860927,0.2619564338310349
4.768211920529802,0.2476406667585618
4.788079470198675,0.23371679535712922
4.80794701986755,0.22032127701620077
4.827814569536423,0.207616543970527
4.847682119205298,0.19579446679290455
4.867549668874172,0.18507790414150055
4.887417218543046,0.17571809278857825
4.9072847682119205,0.16798486551795755
4.927152317880794,0.16214685791089645
4.947019867549669,0.15844122008901615
4.966887417218543,0.1570374759251037
4.986754966887418,0.15800608929595303
5.006622516556291,0.16130411643500275
5.026490066225166,0.16678439765683004
5.04635761589404,0.1742240624550957
5.066225165562914,0.183360612649127
5.086092715231788,0.19392408587230894
5.105960264900662,0.20565927323163447
5.125827814569536,0.21833754871987385
5.14569536423841,0.23176084227289778
5.1655629139072845,0.24576083887382363
5.185430463576159,0.2601958410867894
5.205298013245033,0.27494684403072134
5.225165562913908,0.2899136578430678
5.245033112582782,0.3050114525408162
5.264900662251656,0.32016784281410055
5.28476821192053,0.3353205034210992
5.304635761589404,0.35041525302580473
5.324503311258278,0.3654045295496973
5.344370860927152,0.3802461829070092
5.364238410596027,0.39490252060856096
5.3841059602649,0.40933955292896396
5.403973509933775,0.4235263948486795
5.4238410596026485,0.43743479098460636
5.443708609271523,0.4510387370712554
5.463576158940397,0.4643141773953089
5.483443708609272,0.477238762158399
5.503311258278146,0.4897916522912018
5.52317880794702,0.5019533619848227
5.543046357615895,0.5137056313218771
5.562913907284768,0.5250313230247919
5.582781456953643,0.5359143386033547
5.602649006622516,0.5463395501654196
5.622516556291391,0.5562927449182912
5.642384105960264,0.5657605799858855
5.662251655629139,0.5747305456355588
5.682119205298013,0.5831909353779672
5.701986754966887,0.5911308216959551
5.7218543046357615,0.5985400363920743
5.741721854304636,0.6054091547296783
5.7615894039735105,0.611729482693411
5.781456953642384,0.6174930468150717
5.801324503311259,0.6226925861098996
5.821192052980132,0.6273215457482367
5.841059602649007,0.6313740721543157
5.860927152317881,0.6348450092782989
5.880794701986755,0.6377298958343006
5.900662251655629,0.6400249633353811
5.920529801324503,0.6417271347904103
5.940397350993377,0.642834023956181
5.960264900662251,0.6433439350640252
5.980132450331126,0.6432558629631535
6.0,0.6425694936445858
6.0198675496688745,0.6412852051294258
6.039735099337749,0.6394040687260212
6.059602649006623,0.6369278506797271
6.079470198675497,0.633859014260917
6.099337748344371,0.6302007223587143
6.119205298013245,0.6259568406730058
6.139072847682119,0.6211319416250863
6.158940397350993,0.6157313091388911
6.178807947019867,0.6097609444822569
6.198675496688741,0.6032275734011346
6.218543046357616,0.5961386548321631
6.23841059602649,0.5885023915419674
6.258278145695365,0.5803277431182378
6.2781456953642385,0.5716244418312728
6.298013245033113,0.5624030120005056
6.317880794701987,0.5526747936435975
6.337748344370861,0.5424519713645666
6.357615894039735,0.5317476096615315
6.377483443708609,0.5205756961171448
6.397350993377484,0.5089511942929444
6.417218543046357,0.4968901086052779
6.437086092715232,0.48440956404440405
6.456953642384105,0.4715279043505737
6.47682119205298,0.4582648132327297
6.496688741721854,0.4446414644784346
6.516556291390729,0.4306807084501717
6.5364238410596025,0.4164073046186391
6.556291390728477,0.4018482126115674
6.5761589403973515,0.38703295797229964
6.596026490066225,0.37199409370127723
6.6158940397351,0.35676778503707307
6.635761589403973,0.34139455321898204
6.655629139072848,0.32592022456588904
6.675496688741721,0.3103971443840957
6.695364238410596,0.29488573081543906
6.715231788079469,0.2794564604608755
6.735099337748344,0.26419239163496533
6.754966887417219,0.2491923333428989
6.774834437086093,0.2345747392733276
6.794701986754967,0.22048230883891132
6.814569536423841,0.20708704543750617
6.8344370860927155,0.19459505440604735
6.854304635761589,0.18324954444139263
6.874172185430464,0.17332930194550758
6.894039735099337,0.16513867034036375
6.913907284768212,0.1589848765570021
6.933774834437086,0.15514129984941805
6.95364238410596,0.15380223670083668
6.973509933774834,0.15504333333757042
6.993377483443709,0.1588047002794729
7.013245033112583,0.16490501219771594
7.033112582781457,0.1730795446905986
7.052980132450331,0.1830254435910224
7.072847682119205,0.19443947705459466
7.0927152317880795,0.20704195342644519
7.112582781456954,0.22058774901653547
7.132450331125828,0.2348684827679367
7.152317880794702,0.24970986523505426
7.172185430463576,0.26496705587494485
7.19205298013245,0.28051965098748344
7.211920529801324,0.2962670758370194
7.231788079470198,0.312124662420015
7.251655629139073,0.3280204468859924
7.271523178807947,0.343892614552055
7.291390728476822,0.3596874871043367
7.311258278145695,0.3753579466549139
7.33112582781457,0.3908622044263426
7.3509933774834435,0.4061628382510248
7.370860927152318,0.4212260386377588
7.390728476821192,0.4360210164124517
7.410596026490066,0.45051953564180325
7.430463576158941,0.46469554394203594
7.450331125827814,0.47852487875216243
7.470198675496689,0.49198503310690694
7.490066225165562,0.505054968221337
7.509933774834438,0.5177149630745012
7.52980132450331,0.5299464933712723
7.549668874172186,0.5417321339362245
7.569536423841059,0.553055479877591
7.589403973509934,0.5639010828474622
7.6092715231788075,0.5742543994890115
7.629139072847682,0.5841017497549955
7.649006622516557,0.5934302832454387
7.66887417218543,0.6022279520762098
7.6887417218543055,0.6104834890768748
7.708609271523178,0.6181863903437476
7.728476821192054,0.6253269013553306
7.748344370860927,0.6318960060025351
7.768211920529802,0.6378854180031147
7.788079470198675,0.6432875742647755
7.80794701986755,0.6480956298386512
7.827814569536423,0.6523034541686129
7.847682119205298,0.6559056283945782
7.8675496688741715,0.6588974435117531
7.887417218543046,0.661274899225223
7.907284768211921,0.6630347033710056
7.927152317880795,0.6641742718021691
7.9470198675496695,0.6646917286631685
7.966887417218543,0.664585906997725
7.986754966887418,0.663856349655647
8.006622516556291,0.6625033104840723
8.026490066225167,0.6605277558070435
8.046357615894038,0.6579313662172692
8.066225165562914,0.6547165387239481
8.086092715231787,0.6508863893220362
8.105960264900663,0.6464447560728007
8.125827814569536,0.6413962028119646
8.14569536423841,0.6357460236333956
8.165562913907285,0.6295002483321184
8.185430463576159,0.6226656490338652
8.205298013245034,0.6152497482896915
8.225165562913906,0.6072608289767222
8.245033112582782,0.5987079464223527
8.264900662251655,0.5896009432624172
8.28476821192053,0.5799504676603122
8.304635761589404,0.569767995657992
8.324503311258278,0.5590658586108513
8.344370860927151,0.5478572768867925
8.364238410596027,0.5361564012989695
8.3841059602649,0.5239783641109097
8.403973509933774,0.5113393419265146
8.42384105960265,0.4982566333882351
8.443708609271523,0.4847487554003548
8.463576158940398,0.47083556262917026
8.483443708609272,0.4565383963913551
8.503311258278146,0.4418802708344482
8.52317880794702,0.4268861066922185
8.543046357615895,0.41158302606559827
8.562913907284768,0.3960007259155872
8.582781456953642,0.3801719536299974
8.602649006622515,0.3641331156322262
8.62251655629139,0.3479250601645015
8.642384105960264,0.3315940888558881
8.66225165562914,0.31519326927493774
8.682119205298013,0.2987841429491451
8.701986754966887,0.28243894999755476
8.721854304635762,0.26624351983036576
8.741721854304636,0.2503009988431445
8.76158940397351,0.23473657981473678
8.781456953642383,0.21970331827137768
8.801324503311259,0.20538887853605284
8.821192052980132,0.19202249021871481
8.841059602649008,0.17988029697029856
8.86092715231788,0.16928548927286563
8.880794701986755,0.1605974620825322
8.90066225165563,0.15418333969129325
8.920529801324504,0.1503688858668275
8.940397350993377,0.14937678704934262
8.960264900662251,0.15127440337885648
8.980132450331126,0.15595676228520397
9.0,0.1631742571018942
9.019867549668875,0.1725897175300192
9.039735099337747,0.18383826296419092
9.059602649006623,0.19657118405395493
9.079470198675496,0.21047934859448084
9.099337748344372,0.22530066880802657
9.119205298013245,0.24081828817157544
9.139072847682119,0.25685468356545
9.158940397350994,0.2732647516900311
9.178807947019868,0.28992934783788393
9.198675496688743,0.3067498117338795
9.218543046357615,0.3236435563702125
9.23841059602649,0.3405406071741404
9.258278145695364,0.3573809239814636
9.27814569536424,0.3741123414933807
9.298013245033111,0.3906889877779507
9.317880794701987,0.407070068224456
9.33774834437086,0.42321892762504637
9.357615894039736,0.43910232382560316
9.37748344370861,0.4546898626468312
9.397350993377483,0.46995355618444157
9.417218543046358,0.48486747593606006
9.437086092715232,0.499407479189146
9.456953642384107,0.5135509923177323
9.47682119205298,0.5272768385310114
9.496688741721854,0.540565100533595
9.516556291390728,0.553397010749816
9.536423841059603,0.5657548634206776
9.556291390728477,0.5776219441387526
9.57615894039735,0.5889824733455613
9.596026490066224,0.5998215610521402
9.6158940397351,0.6101251706114859
9.635761589403973,0.6198800898125766
9.655629139072847,0.6290739079099665
9.675496688741722,0.6376949974730056
9.695364238410596,0.6457325001523183
9.715231788079471,0.6531763156306607
9.735099337748345,0.6600170931603796
9.754966887417218,0.6662462251989565
9.774834437086092,0.6718558427417134
9.794701986754967,0.6768388120226055
9.814569536423841,0.6811887323127332
9.834437086092716,0.6848999345947909
9.854304635761588,0.6879674809323548
9.874172185430464,0.6903871643868549
9.894039735099337,0.6921555093648795
9.913907284768213,0.6932697723033447
9.933774834437086,0.6937279426231752
9.95364238410596,0.6935287439021373
9.973509933774835,0.6926716352366594
9.993377483443709,0.6911568127808772
10.013245033112582,0.688985211468505
10.033112582781456,0.6861585069419353
10.052980132450331,0.682679117732009
10.072847682119205,0.6785502077523698
10.09271523178808,0.6737756891957104
10.112582781456952,0.6683602259450167
10.132450331125828,0.662309237643257
10.152317880794701,0.655628904600222
10.172185430463577,0.648326173757718
10.192052980132452,0.6404087659848169
10.211920529801324,0.6318851850368596
10.2317880794702,0.6227647285880045
10.251655629139073,0.6130575018401799
10.271523178807948,0.6027744343288841
10.29139072847682,0.5919273006918039
10.311258278145695,0.5805287463512551
10.331125827814569,0.5685923192954722
10.350993377483444,0.5561325094431959
10.370860927152318,0.5431647974608279
10.390728476821192,0.5297057153997208
10.410596026490065,0.5157729221696999
10.43046357615894,0.5013852977160527
10.450331125827816,0.48656306089061435
10.470198675496688,0.47132791750021685
10.490066225165563,0.45570324701411374
10.509933774834437,0.4397143391034615
10.529801324503312,0.42338869483443997
10.549668874172186,0.40675641231387977
10.56953642384106,0.3898506834084208
