Frequency (Hz),Amplitude
0.0,0.5073326462743042
0.019867549668874173,0.5227839035832522
0.039735099337748346,0.5665597992003044
0.059602649006622516,0.632660474594524
0.07947019867549669,0.7147014063182725
0.09933774834437085,0.8075706771021477
0.11920529801324503,0.9076444518712309
0.13907284768211922,1.0124549850650402
0.15894039735099338,1.1203197778169416
0.17880794701986755,1.2300669915674216
0.1986754966887417,1.340855198552848
0.2185430463576159,1.4520593328082496
0.23841059602649006,1.5631987838939427
0.2582781456953642,1.6738915684237652
0.27814569536423844,1.783824625564313
0.2980132450331126,1.8927341952269934
0.31788079470198677,2.000392606495681
0.33774834437086093,2.106599217814717
0.3576158940397351,2.211174097540439
0.3774834437086093,2.3139535469545978
0.3973509933774834,2.4147868840069697
0.4172185430463576,2.513534104087016
0.4370860927152318,2.6100641603488826
0.45695364238410596,2.7042536879654713
0.4768211920529801,2.7959860506539695
0.49668874172185434,2.8851506239656532
0.5165562913907285,2.9716422544157024
0.5364238410596026,3.0553608504850818
0.5562913907284769,3.13621107337964
0.5761589403973509,3.214102103823283
0.5960264900662252,3.28894746717322
0.6158940397350993,3.3606649035011738
0.6357615894039735,3.4291762724729424
0.6556291390728477,3.494407485217635
0.6754966887417219,3.5562884571385136
0.695364238410596,3.614753076944335
0.7152317880794702,3.6697391881883834
0.7350993377483444,3.7211885803750357
0.7549668874172186,3.7690469872906514
0.7748344370860927,3.8132640906801676
0.7947019867549668,3.8537935277560162
0.8145695364238411,3.8905929013135054
0.8344370860927152,3.9236237914576764
0.8543046357615894,3.952851768130663
0.8741721854304636,3.9782464037788055
0.8940397350993378,3.999781285621426
0.9139072847682119,4.017434027084595
0.9337748344370861,4.031186278048371
0.9536423841059603,4.041023733628392
0.9735099337748344,4.046936141275383
0.9933774834437087,4.048917306031026
1.0132450331125828,4.046965093828999
1.033112582781457,4.041081432775794
1.0529801324503312,4.031272312390452
1.0728476821192052,4.017547780825622
1.0927152317880795,3.999921940136643
1.1125827814569538,3.9784129397117525
1.1324503311258278,3.9530429680266073
1.1523178807947019,3.923838242941776
1.1721854304635762,3.890829000824862
1.1920529801324504,3.8540494848517475
1.2119205298013245,3.813537932927178
1.2317880794701985,3.7693365657673135
1.2516556291390728,3.721491575810404
1.271523178807947,3.6700531177730826
1.2913907284768211,3.6150753018559305
1.3112582781456954,3.5566161908342244
1.3311258278145695,3.494737802560375
1.3509933774834437,3.429506119773262
1.370860927152318,3.3609911095783027
1.390728476821192,3.2892667555648805
1.410596026490066,3.21441110630832
1.4304635761589404,3.1365063450210062
1.4503311258278146,3.05563888645822
1.4701986754966887,2.97189950896205
1.4900662251655628,2.885383531909978
1.5099337748344372,2.796191052055932
1.5298013245033113,2.704427256653256
1.5496688741721854,2.6102028373233535
1.5695364238410596,2.513634537115478
1.5894039735099337,2.414845875184418
1.609271523178808,2.313968110655034
1.6291390728476822,2.211141532097725
1.6490066225165563,2.106517195594596
1.6688741721854303,2.000259288952778
1.6887417218543048,1.8925483824065763
1.7086092715231789,1.7835859538212415
1.728476821192053,1.673600776717842
1.7483443708609272,1.56285807922053
1.7682119205298013,1.4516729013061476
1.7880794701986755,1.340429934062025
1.8079470198675496,1.22961355316654
1.8278145695364238,1.1198541491911336
1.847682119205298,1.0120007969391374
1.8675496688741722,0.9072364319625827
1.8874172185430464,0.8072596196721274
1.9072847682119205,0.7145606470706672
1.9271523178807946,0.6327919442996807
1.9470198675496688,0.5670922733219033
1.9668874172185429,0.5238479731583979
1.9867549668874174,0.5090046388484281
2.0066225165562916,0.5250390613413717
2.0264900662251657,0.5692951680960264
2.0463576158940397,0.6357612638409517
2.066225165562914,0.7180814769468726
2.086092715231788,0.8111768818090292
2.1059602649006623,0.9114473191235777
2.1258278145695364,1.016439406535812
2.1456953642384105,1.1244787772731193
2.165562913907285,1.2343980500205116
2.185430463576159,1.3453581759276025
2.205298013245033,1.4567353019493134
2.2251655629139075,1.5680493723958178
2.2450331125827816,1.678918582832609
2.2649006622516556,1.789029834102765
2.2847682119205297,1.898119200727911
2.3046357615894038,2.0059587714087317
2.324503311258278,2.1123476196777093
2.3443708609271523,2.217105502484752
2.364238410596027,2.3200683939923255
2.384105960264901,2.421085275817303
2.403973509933775,2.5200158017492558
2.423841059602649,2.616728580491745
2.443708609271523,2.711099901413867
2.463576158940397,2.803012782024127
2.4834437086092715,2.892356251884561
2.5033112582781456,2.9790248121788787
2.52317880794702,3.0629180270511047
2.543046357615894,3.14394021465167
2.562913907284768,3.222000214198816
2.5827814569536423,3.2970112113621015
2.6026490066225163,3.368890608622297
2.622516556291391,3.437559930445857
2.642384105960265,3.5029447554677247
2.662251655629139,3.5649746696352067
2.6821192052980134,3.6235832355914837
2.7019867549668874,3.6787079745848614
2.7218543046357615,3.7302903579622058
2.741721854304636,3.778275805902013
2.76158940397351,3.8226136915070428
2.781456953642384,3.8632573487414494
2.801324503311258,3.900164082985595
2.821192052980132,3.933295183212031
2.8410596026490067,3.9626159349709047
2.8609271523178808,3.988095633523018
2.8807947019867552,4.0097075965817455
2.9006622516556293,4.027429176226739
2.9205298013245033,4.041241769637343
2.9403973509933774,4.051130828366804
2.9602649006622515,4.057085865940482
2.9801324503311255,4.059100463617309
3.0,4.0571722742035945
3.0198675496688745,4.051303023854888
3.0397350993377485,4.04149851184614
3.0596026490066226,4.027768608334492
3.0794701986754967,4.010127250183302
3.0993377483443707,3.988592434963539
3.119205298013245,3.9631862132988784
3.1390728476821192,3.933934679777677
3.1589403973509933,3.900867962718453
3.1788079470198674,3.864020213150011
3.198675496688742,3.823429593454154
3.218543046357616,3.779138266223442
3.23841059602649,3.7311923840119023
3.2582781456953644,3.6796420808109342
3.2781456953642385,3.624541466272229
3.2980132450331126,3.565948623935751
3.3178807947019866,3.5039256150176836
3.3377483443708607,3.438538489687874
3.3576158940397347,3.3698573082446757
3.3774834437086096,3.297956175209188
3.3973509933774837,3.2229132901557827
3.4172185430463577,3.144811020133921
3.437086092715232,3.063735999901558
3.456953642384106,2.9797792680036372
3.47682119205298,2.8930364491572855
3.4966887417218544,2.8036079966891743
3.5165562913907285,2.7115995132559845
3.5364238410596025,2.6171221742700705
3.556291390728477,2.520293287095972
3.576158940397351,2.4212370312926295
3.596026490066225,2.320085442642119
3.615894039735099,2.2169797290273925
3.6357615894039736,2.1120720434543623
3.6556291390728477,2.005527895088093
3.6754966887417218,1.8975294634400701
3.695364238410596,1.788280210741291
3.7152317880794703,1.6780113912073191
3.7350993377483444,1.566991380784626
3.754966887417219,1.455539277926776
3.774834437086093,1.3440450935579948
3.794701986754967,1.2330002924059391
3.814569536423841,1.1230448559405484
3.834437086092715,1.015040983957205
3.854304635761589,0.9101896267993601
3.8741721854304636,0.8102136968168283
3.8940397350993377,0.7176345693949241
3.9139072847682117,0.636138439805891
3.9337748344370858,0.5708846814390581
3.9536423841059607,0.5282342367257055
3.9735099337748347,0.514036054647245
3.993377483443709,0.5306434240257858
4.013245033112583,0.5753441355729209
4.033112582781457,0.6421550229088758
4.052980132450331,0.7247743412197902
4.072847682119205,0.8181621404186469
4.0927152317880795,0.9187374401731848
4.112582781456953,1.0240535551492058
4.132450331125828,1.1324367362114245
4.152317880794702,1.2427177227933772
4.172185430463576,1.3540547854073137
4.19205298013245,1.4658213133196285
4.211920529801325,1.5775346902184713
4.231788079470199,1.688810826101652
4.251655629139073,1.7993346094579223
4.271523178807947,1.9088403453034994
4.291390728476821,2.0170985585602526
4.311258278145695,2.1239069294412474
4.33112582781457,2.2290839615095686
4.3509933774834435,2.3324644901728724
4.370860927152318,2.4338964524163242
4.390728476821192,2.5332385350874045
4.410596026490066,2.630358444547597
4.43046357615894,2.725131622028036
4.450331125827815,2.817440282858044
4.470198675496689,2.9071726938447036
4.490066225165563,2.9942226276668675
4.509933774834438,3.078488950122875
4.529801324503311,3.15987530795079
4.549668874172186,3.2382898933568534
4.569536423841059,3.313645267423533
4.589403973509934,3.385858228943897
4.6092715231788075,3.4548497184352867
4.629139072847682,3.520544749458227
4.649006622516556,3.582872361138908
4.66887417218543,3.6417655871299126
4.688741721854305,3.697161437260086
4.708609271523179,3.7490008889034123
4.728476821192054,3.7972288856989103
4.748344370860927,3.8417943417223452
4.768211920529802,3.8826501495793186
4.788079470198675,3.9197531911798706
4.80794701986755,3.953064350187595
4.827814569536423,3.9825485253229296
4.847682119205298,4.008174643851745
4.867549668874172,4.029915674714594
4.887417218543046,4.047748640855039
4.9072847682119205,4.0616546303915015
4.927152317880794,4.07161880635056
4.947019867549669,4.077630414743535
4.966887417218543,4.079682790824078
4.986754966887418,4.077773363415626
5.006622516556291,4.0719036572447775
5.026490066225166,4.062079293261984
5.04635761589404,4.048309986975729
5.066225165562914,4.030609544871912
5.086092715231788,4.00899585903823
5.105960264900662,3.9834909001650836
5.125827814569536,3.9541207091525523
5.14569536423841,3.92091538761826
5.1655629139072845,3.883909087676985
5.185430463576159,3.843140001452515
5.205298013245033,3.798650350889025
5.225165562913908,3.7504863785588296
5.245033112582782,3.698698340321256
5.264900662251656,3.643340500882765
5.28476821192053,3.584471133551425
5.304635761589404,3.5221525257834445
5.324503311258278,3.4564509925055256
5.344370860927152,3.387436899688305
5.364238410596027,3.315184701277642
5.3841059602649,3.2397729934084705
5.403973509933775,3.16128459089282
5.4238410596026485,3.079806632378198
5.443708609271523,2.995430722436529
5.463576158940397,2.908253121340387
5.483443708609272,2.8183749966591956
5.503311258278146,2.725902755417903
5.52317880794702,2.630948481923722
5.543046357615895,2.533630515245723
5.562913907284768,2.434074212873149
5.582781456953643,2.3324129650105854
5.602649006622516,2.2287895499560957
5.622516556291391,2.1233579592009493
5.642384105960264,2.016285877859797
5.662251655629139,1.9077580923560113
5.682119205298013,1.7979812302104536
5.701986754966887,1.6871904449358928
5.7218543046357615,1.5756589905363636
5.741721854304636,1.4637121666560948
5.7615894039735105,1.3517479962990584
5.781456953642384,1.2402684583412884
5.801324503311259,1.1299275182267443
5.821192052980132,1.0216061326600006
5.841059602649007,0.9165303586271097
5.860927152317881,0.8164559019295101
5.880794701986755,0.7239438694074914
5.900662251655629,0.6427193548525134
5.920529801324503,0.5779561145160077
5.940397350993377,0.5359634294181121
5.960264900662251,0.522454073901775
5.980132450331126,0.5396379143139289
6.0,0.5847668541485325
6.0198675496688745,0.6519222687543069
6.039735099337749,0.7348792173391949
6.059602649006623,0.828642066435908
6.079470198675497,0.9296448673661815
6.099337748344371,1.0354405016155688
6.119205298013245,1.1443487685587508
6.139072847682119,1.2551925057274742
6.158940397350993,1.367122450996297
6.178807947019867,1.4795053987834481
6.198675496688741,1.5918531411711079
6.218543046357616,1.7037768904781638
6.23841059602649,1.814957580364756
6.258278145695365,1.9251261600833733
6.2781456953642385,2.034050276140591
6.298013245033113,2.141525109667782
6.317880794701987,2.2473669673495995
6.337748344370861,2.3514087298377024
6.357615894039735,2.4534965748437814
6.377483443708609,2.5534875892111533
6.397350993377484,2.651248010387653
6.417218543046357,2.7466519197854096
6.437086092715232,2.8395802647805612
6.456953642384105,2.929920122552078
6.47682119205298,3.0175641438021623
6.496688741721854,3.10241013157048
6.516556291390729,3.1843607223810766
6.5364238410596025,3.2633231454881013
6.556291390728477,3.3392090421057605
6.5761589403973515,3.4119343309466976
6.596026490066225,3.481419109647805
6.6158940397351,3.5475875840721245
6.635761589403973,3.610368019276896
6.655629139072848,3.6696927072958765
6.675496688741721,3.725497947918054
6.695364238410596,3.777724039436624
6.715231788079469,3.8263152769556763
6.735099337748344,3.871219956318928
6.754966887417219,3.912390382100184
6.774834437086093,3.949782878391737
6.794701986754967,3.9833578013636903
6.814569536423841,4.0130795527577705
6.8344370860927155,4.038916593633423
6.854304635761589,4.060841457810991
6.874172185430464,4.078830764561452
6.894039735099337,4.092865230180527
6.913907284768212,4.102929678159734
6.933774834437086,4.109013047732269
6.95364238410596,4.111108400628938
6.973509933774834,4.109212925931526
6.993377483443709,4.10332794295968
7.013245033112583,4.093458902173396
7.033112582781457,4.079615384119927
7.052980132450331,4.0618110965002066
7.072847682119205,4.040063869479706
7.0927152317880795,4.014395649422234
7.112582781456954,3.9848324912846724
7.132450331125828,3.951404549978518
7.152317880794702,3.9141460710828415
7.172185430463576,3.8730953813858497
7.19205298013245,3.8282948798430727
7.211920529801324,3.7797910296745187
7.231788079470198,3.727634352487088
7.251655629139073,3.671879425510496
7.271523178807947,3.6125848832879455
7.291390728476822,3.5498134254780758
7.311258278145695,3.483631832825609
7.33112582781457,3.4141109938676517
7.3509933774834435,3.341325945598372
7.370860927152318,3.265355932162284
7.390728476821192,3.1862844867539954
7.410596026490066,3.1041995433579768
7.430463576158941,3.019193586895255
7.450331125827814,2.9313638529315686
7.470198675496689,2.840812591600526
7.490066225165562,2.747647415171295
7.509933774834438,2.651981755280586
7.52980132450331,2.5539354650416355
7.549668874172186,2.453635614219333
7.569536423841059,2.351217544206712
7.589403973509934,2.2468262763948603
7.6092715231788075,2.1406184069668788
7.629139072847682,2.032764679915016
7.649006622516557,1.9234535190123963
7.66887417218543,1.8128959362161399
7.6887417218543055,1.7013324477140657
7.708609271523178,1.5890429683955838
7.728476821192054,1.476361203432689
7.748344370860927,1.3636959514745481
7.768211920529802,1.2515632106229193
7.788079470198675,1.140635406649547
7.80794701986755,1.0318179566157841
7.827814569536423,0.9263691411743528
7.847682119205298,0.8260858178315706
7.8675496688741715,0.7335771729196829
7.887417218543046,0.6526118348541888
7.907284768211921,0.5883715876476237
7.927152317880795,0.5470898078683227
7.9470198675496695,0.534309058200118
7.966887417218543,0.5520806929618859
7.986754966887418,0.5976391648493083
8.006622516556291,0.6651606119235529
8.026490066225167,0.7485155243184896
8.046357615894038,0.84275659162371
8.066225165562914,0.9443287532858857
8.086092715231787,1.05077767435675
8.105960264900663,1.1604099590703052
8.125827814569536,1.272034749222513
8.14569536423841,1.3847905413393862
8.165562913907285,1.4980337810195794
8.185430463576159,1.6112676819514966
8.205298013245034,1.7240963663473492
8.225165562913906,1.8361948750225194
8.245033112582782,1.9472892102501813
8.264900662251655,2.0571428147218147
8.28476821192053,2.1655472504006594
8.304635761589404,2.2723156671206994
8.324503311258278,2.3772781570230066
8.344370860927151,2.4802784054392824
8.364238410596027,2.581171247329313
8.3841059602649,2.6798208657169704
8.403973509933774,2.7760994516050452
8.42384105960265,2.86988619986148
8.443708609271523,2.961066552577781
8.463576158940398,3.0495316266613814
8.483443708609272,3.1351777799059097
8.503311258278146,3.2179062820408535
8.52317880794702,3.297623065963019
8.543046357615895,3.3742385406009485
8.562913907284768,3.447667451400178
8.582781456953642,3.517828777746245
8.602649006622515,3.584645659108451
8.62251655629139,3.64804534353203
8.642384105960264,3.7079591534984218
8.66225165562914,3.764322465232521
8.682119205298013,3.8170746983488675
8.701986754966887,3.866159313357374
8.721854304635762,3.911523815039296
8.741721854304636,3.953119760089407
8.76158940397351,3.990902767724864
8.781456953642383,4.024832532204774
8.801324503311259,4.054872836400077
8.821192052980132,4.080991565712243
8.841059602649008,4.1031607217697434
8.86092715231788,4.121356435439026
8.880794701986755,4.135558978777625
8.90066225165563,4.145752775634223
8.920529801324504,4.151926410667535
8.940397350993377,4.154072636615241
8.960264900662251,4.152188379698018
8.980132450331126,4.1462747430939295
9.0,4.136337008466375
9.019867549668875,4.122384635576776
9.039735099337747,4.10443126006171
9.059602649006623,4.082494689505574
9.079470198675496,4.056596897995938
9.099337748344372,4.026764019410537
9.119205298013245,3.9930263397557417
9.139072847682119,3.955418288958463
9.158940397350994,3.9139784326101084
9.178807947019868,3.8687494642772577
9.198675496688743,3.8197781991337343
9.218543046357615,3.7671155698401915
9.23841059602649,3.7108166258092448
9.258278145695364,3.6509405372574224
9.27814569536424,3.587550605776106
9.298013245033111,3.520714283572341
9.317880794701987,3.4505032040632417
9.33774834437086,3.37699322719322
9.357615894039736,3.3002645037298803
9.37748344370861,3.2204015639511714
9.397350993377483,3.13749343765843
9.417218543046358,3.051633814469172
9.437086092715232,2.9629212560461244
9.456953642384107,2.871459475571588
9.47682119205298,2.777357704760475
9.496688741721854,2.680731175578429
9.516556291390728,2.5817017534139333
9.536423841059603,2.480398771970788
9.556291390728477,2.3769601394495705
9.57615894039735,2.271533813513599
9.596026490066224,2.1642797834966814
9.6158940397351,2.0553727592660818
9.635761589403973,1.9450058582436203
9.655629139072847,1.8333957234017135
9.675496688741722,1.7207897253718853
9.695364238410596,1.6074762507245897
9.715231788079471,1.4937996391782904
9.735099337748345,1.3801822442896277
9.754966887417218,1.2671575840866822
9.774834437086092,1.1554209753875186
9.794701986754967,1.0459078727508397
9.814569536423841,0.9399156212426614
9.834437086092716,0.8392900565245676
9.854304635761588,0.7466959088843872
9.874172185430464,0.6659489090449981
9.894039735099337,0.6022324156903395
9.913907284768213,0.561683322842849
9.933774834437086,0.5496488987033747
9.95364238410596,0.5680149264305296
9.973509933774835,0.6140157731043451
9.993377483443709,0.6819454892773742
10.013245033112582,0.7657828598334513
10.033112582781456,0.8606302681636362
10.052980132450331,0.9629385937952865
10.072847682119205,1.0702393765630354
10.09271523178808,1.1808193293213713
10.112582781456952,1.2934681634100642
10.132450331125828,1.4073074600969107
10.152317880794701,1.5216795726135979
10.172185430463577,1.6360761425382757
10.192052980132452,1.75009179169397
10.211920529801324,1.8633937057690442
10.2317880794702,1.9757013210470007
10.251655629139073,2.0867725214389377
10.271523178807948,2.1963940993584736
10.29139072847682,2.3043750573946724
10.311258278145695,2.4105418352133485
10.331125827814569,2.5147348628451085
10.350993377483444,2.6168060421603996
10.370860927152318,2.716616887452618
10.390728476821192,2.8140371404722293
10.410596026490065,2.9089437313145163
10.43046357615894,3.0012199943505666
10.450331125827816,3.090755074228812
10.470198675496688,3.1774434748825926
10.490066225165563,3.2611847170526684
10.509933774834437,3.341883078769397
10.529801324503312,3.4194473996633885
10.549668874172186,3.493790934642452
10.56953642384106,3.5648312459011238
10.589403973509933,3.632490124771567
10.609271523178808,3.696693536826938
10.629139072847682,3.75737158508565
10.649006622516556,3.8144584872586966
10.66887417218543,3.8678925638223824
10.688741721854305,3.9176162343488823
10.70860927152318,3.9635760200340617
10.728476821192054,4.005722550760368
10.748344370860927,4.044010575348334
10.7682119205298,4.078398973901876
