Time (s),Filtered Signal
0.0,-0.023296443023132617
0.033370165745856356,-0.09188556673986198
0.06674033149171271,-0.16638968287726175
0.10011049723756907,-0.24754132324304218
0.13348066298342542,-0.32825124767394326
0.16685082872928178,-0.39606024064204826
0.20022099447513814,-0.4387156197683239
0.2335911602209945,-0.4496074370763585
0.26696132596685085,-0.4302131716140575
0.30033149171270723,-0.3886542854885796
0.33370165745856356,-0.3356253439576695
0.3670718232044199,-0.28012952761452403
0.4004419889502763,-0.22716337003435225
0.43381215469613266,-0.1780564178653809
0.467182320441989,-0.13249812342671058
0.5005524861878453,-0.09041077826798835
0.5339226519337017,-0.052284477033210944
0.5672928176795581,-0.01799913544225518
0.6006629834254145,0.014545084668266968
0.6340331491712707,0.049465372843953345
0.6674033149171271,0.09112990876403067
0.7007734806629835,0.1416193532424008
0.7341436464088398,0.1992145798509938
0.7675138121546962,0.2590591056922977
0.8008839779005525,0.31549393257735964
0.8342541436464089,0.36419892851527336
0.8676243093922653,0.4023848263178285
0.9009944751381216,0.42693510019986386
0.934364640883978,0.4323709942254613
0.9677348066298344,0.41116472970887735
1.0011049723756906,0.35748587250252617
1.0344751381215471,0.2727241806660811
1.0678453038674034,0.16900281736986986
1.1012154696132597,0.06713929052429693
1.1345856353591162,-0.011545948237195253
1.1679558011049724,-0.056069233770813395
1.201325966850829,-0.07311324149938316
1.2346961325966852,-0.08554834383190628
1.2680662983425415,-0.12127905575363979
1.301436464088398,-0.1972819263620945
1.3348066298342542,-0.3073161527529614
1.3681767955801105,-0.42077391798791636
1.401546961325967,-0.49458635362295894
1.4349171270718233,-0.4929046837734767
1.4682872928176796,-0.4045758145336546
1.501657458563536,-0.24917631570380205
1.5350276243093923,-0.06842360996274356
1.5683977900552488,0.09221522290858712
1.601767955801105,0.20167566897584455
1.6351381215469614,0.2518982545882608
1.6685082872928179,0.25372736332711204
1.7018784530386741,0.22455704203612079
1.7352486187845306,0.17643816610421284
1.768618784530387,0.11188146669315534
1.8019889502762432,0.028783530077654343
1.8353591160220997,-0.07021972494171738
1.868729281767956,-0.1712786252800073
1.9020994475138122,-0.25084074490337144
1.9354696132596687,-0.28497461464438617
1.968839779005525,-0.2613653590023897
2.0022099447513813,-0.18706724771385433
2.0355801104972375,-0.08732429133873668
2.0689502762430942,0.004453039249014497
2.1023204419889505,0.06080404982564502
2.135690607734807,0.07153421817250677
2.169060773480663,0.04673424165970293
2.2024309392265193,0.010176351256384131
2.235801104972376,-0.013405797079183867
2.2691712707182323,-0.010601963830163208
2.3025414364640886,0.015063999195876797
2.335911602209945,0.046882574285604384
2.369281767955801,0.06576406557594448
2.402651933701658,0.06201014270224129
2.436022099447514,0.04144960885356676
2.4693922651933704,0.022448217387444444
2.5027624309392267,0.025373023885942647
2.536132596685083,0.06035174537866356
2.5695027624309392,0.120304897351859
2.602872928176796,0.18363399385780374
2.636243093922652,0.2259335927302965
2.6696132596685085,0.23511719053102914
2.7029834254143648,0.22183531331257228
2.736353591160221,0.2184050135192934
2.7697237569060777,0.264435283814757
2.803093922651934,0.3840298056874675
2.8364640883977903,0.5648636721379197
2.8698342541436466,0.7505865042182687
2.903204419889503,0.8534633771453333
2.936574585635359,0.7852058938340307
2.969944751381216,0.49454004074494173
3.003314917127072,-0.0048119753695737375
3.0366850828729284,-0.6291749169693392
3.0700552486187846,-1.2466063389518467
3.103425414364641,-1.7169466559396245
3.1367955801104976,-1.9342118083558297
3.170165745856354,-1.855516420854828
3.20353591160221,-1.508009969369631
3.2369060773480665,-0.9750578505369575
3.2702762430939227,-0.369942496672769
3.3036464088397794,0.1928939324886272
3.3370165745856357,0.6216794516410745
3.370386740331492,0.8628630806669051
3.4037569060773483,0.9078162328017862
3.4371270718232045,0.7909288998846419
3.4704972375690613,0.5793311363448207
3.5038674033149175,0.3552388855663023
3.537237569060774,0.19406751811542894
3.57060773480663,0.1439943007285877
3.6039779005524863,0.2136690455386763
3.6373480662983426,0.3727912173860937
3.6707182320441993,0.5654772346061139
3.7040883977900556,0.7308631684156897
3.737458563535912,0.8222585498635095
3.770828729281768,0.8174127552859457
3.8041988950276244,0.71755157714997
3.837569060773481,0.5387854180867097
3.8709392265193374,0.3026792890450724
3.9043093922651937,0.0314421652623181
3.93767955801105,-0.25139016072642306
3.9710497237569062,-0.5183753921852657
4.0044198895027625,-0.7385761619984704
4.037790055248619,-0.8832856828339356
4.071160220994475,-0.9350144710460291
4.104530386740332,-0.8946854238418648
4.1379005524861885,-0.78242581160405
4.171270718232044,-0.6308448932551106
4.204640883977901,-0.4738731702755438
4.238011049723757,-0.3364871267744198
4.271381215469614,-0.229759000479142
4.30475138121547,-0.15245228416358284
4.338121546961326,-0.09689662094515913
4.371491712707183,-0.055116644826704725
4.404861878453039,-0.021961457520309847
4.438232044198895,0.005468770386354454
4.471602209944752,0.03024943439937995
4.504972375690608,0.05714406618879404
4.538342541436465,0.09157963347964967
4.5717127071823205,0.13665579777879636
4.605082872928177,0.19037165207240425
4.638453038674034,0.24522767164992929
4.67182320441989,0.29086057002837246
4.7051933701657465,0.3184881073145415
4.738563535911602,0.3248637125077091
4.771933701657459,0.31372224698226264
4.805303867403316,0.29406915599169614
4.8386740331491715,0.27631816784262403
4.872044198895028,0.26834281703038654
4.905414364640884,0.2734316982377695
4.938784530386741,0.29094634103952216
4.972154696132597,0.3187843783268773
5.005524861878453,0.3555216529756785
5.03889502762431,0.40019564085076936
5.072265193370166,0.4492735057221369
5.105635359116023,0.49264163740319544
5.1390055248618784,0.5120154781035162
5.172375690607735,0.48470997177383895
5.205745856353592,0.3930035098313013
5.239116022099448,0.2355850492424863
5.272486187845304,0.03495851883875045
5.30585635359116,-0.1648793773009235
5.339226519337017,-0.3122117231642041
5.372596685082874,-0.3686227543224434
5.4059668508287295,-0.32817355981155116
5.439337016574586,-0.224722558868816
5.472707182320442,-0.12166576826530397
5.506077348066299,-0.0864382054638929
5.5394475138121555,-0.16031393713348588
5.572817679558011,-0.33809385732270614
5.606187845303868,-0.5693823734151398
5.639558011049724,-0.7836525321754119
5.672928176795581,-0.9289939683372657
5.706298342541437,-1.005312073647943
5.739668508287293,-1.0722480146673086
5.77303867403315,-1.2221233435372882
5.806408839779006,-1.5254120586226738
5.839779005524862,-1.9727466114354753
5.873149171270718,-2.444302284650013
5.906519337016575,-2.7291580548322587
5.939889502762432,-2.595655283692879
5.9732596685082875,-1.8881149745183694
6.006629834254144,-0.6084484195165016
6.04,1.0567616733117005
6.073370165745857,2.7811009997700618
6.1067403314917135,4.200112515133086
6.140110497237569,5.028560750237923
6.173480662983426,5.144990423282158
6.206850828729282,4.611889489052487
6.240220994475139,3.6301972218815397
6.273591160220995,2.4550288932005846
6.306961325966851,1.3117370998832063
6.340331491712708,0.34404541310176323
6.373701657458564,-0.39430114248457176
6.40707182320442,-0.9141404010963524
6.440441988950277,-1.253475848952745
6.473812154696133,-1.4487653410447827
6.50718232044199,-1.5250195418484622
6.5405524861878455,-1.5018991746470043
6.573922651933702,-1.4048153683662092
6.607292817679559,-1.2698681963817327
6.640662983425415,-1.1378213320251775
6.674033149171271,-1.0405002685232005
6.707403314917127,-0.9880921121444836
6.740773480662984,-0.9653330172459909
6.774143646408841,-0.9394076690568892
6.8075138121546965,-0.8758906231473991
6.840883977900553,-0.7549109138359845
6.874254143646409,-0.5799569245261161
6.907624309392266,-0.3758489781670673
6.9409944751381225,-0.17786979022592672
6.974364640883978,-0.017890228981870933
7.007734806629835,0.08619409721236485
7.041104972375691,0.13401827630970453
7.074475138121548,0.13943189686979482
7.107845303867403,0.12329630401702366
7.14121546961326,0.10603443485164242
7.174585635359117,0.1023381779666622
7.207955801104973,0.11864323608250328
7.241325966850829,0.15289863535674952
7.274696132596685,0.19613706215408902
7.308066298342542,0.23574827119672942
7.341436464088399,0.2602502112469448
7.3748066298342545,0.2644468457436201
7.408176795580111,0.25282341733549124
7.441546961325967,0.2389648768148666
7.474917127071824,0.24028199194582467
7.5082872928176805,0.2698391593350214
7.541657458563536,0.3291126847128431
7.575027624309393,0.40560903333056936
7.608397790055249,0.4770668397865531
7.641767955801106,0.5205528599801581
7.675138121546962,0.5220856065784089
7.708508287292818,0.4820504478767445
7.741878453038675,0.41382782806922935
7.775248618784531,0.3365223363042032
7.808618784530387,0.26557196181479614
7.841988950276244,0.2058860617008339
7.8753591160221,0.15073111642768428
7.908729281767957,0.086738926954253
7.9420994475138125,0.0025608950572745476
7.975469613259669,-0.10297387156539026
8.008839779005525,-0.21723533018717034
8.042209944751383,-0.31691632082024446
8.075580110497238,-0.37717686862561267
8.108950276243094,-0.3831459267903809
8.14232044198895,-0.3385342947215236
8.175690607734808,-0.2668613929622745
8.209060773480664,-0.20382137668361142
8.24243093922652,-0.18333393764633774
8.275801104972377,-0.22292945152496688
8.309171270718233,-0.31478801405911916
8.342541436464089,-0.4266470876655003
8.375911602209946,-0.512824980002481
8.409281767955802,-0.5314149711886531
8.442651933701658,-0.46096378399242827
8.476022099447514,-0.3098164043347673
8.509392265193371,-0.11402240222303876
8.542762430939227,0.07565931491491135
8.576132596685083,0.21245458812416174
8.60950276243094,0.270230339187771
8.642872928176796,0.25129505323616413
8.676243093922652,0.18257213088800806
8.709613259668508,0.10262254757198552
8.742983425414366,0.04586442510709011
8.776353591160222,0.030967979431561703
8.809723756906077,0.05765432295583913
8.843093922651935,0.11163556286178254
8.87646408839779,0.17366507860379235
8.909834254143647,0.22750108723098167
8.943204419889504,0.26331400352077533
8.97657458563536,0.2763625302065134
9.009944751381216,0.2635847658739817
9.043314917127072,0.22156862840085614
9.07668508287293,0.14795579612018236
9.110055248618785,0.04573030318199883
9.143425414364641,-0.0723910478535062
9.176795580110499,-0.1829035214309503
9.210165745856354,-0.2559726789421138
9.24353591160221,-0.2649811868444652
9.276906077348068,-0.19794535277023367
9.310276243093924,-0.06588355213011281
9.34364640883978,0.09643566599643463
9.377016574585635,0.23935433035449658
9.410386740331493,0.3147565242376382
9.443756906077349,0.2942055065532806
9.477127071823205,0.18118736915951175
9.510497237569062,0.011466597827035553
9.543867403314918,-0.15970245466204497
9.577237569060774,-0.2787689054921844
9.610607734806631,-0.3143850197232482
9.643977900552487,-0.2678926384261318
9.677348066298343,-0.16899557747178626
9.710718232044199,-0.05909044305193808
9.744088397790057,0.02902117402754884
9.777458563535912,0.08458968501733095
9.810828729281768,0.11897347553309308
9.844198895027626,0.15310122994053815
9.877569060773482,0.19993385394633592
9.910939226519337,0.2520562450695031
9.944309392265193,0.2816358933917629
9.97767955801105,0.2533991532883753
10.011049723756907,0.14444600450080217
10.044419889502763,-0.03906407426108648
10.07779005524862,-0.2573684727574508
10.111160220994476,-0.4484027072694256
10.144530386740332,-0.5512110174025571
10.17790055248619,-0.5314843395761832
10.211270718232045,-0.39733453535064006
10.244640883977901,-0.197240690653317
10.278011049723757,-0.00024159000073550042
10.311381215469615,0.13298434520127572
10.34475138121547,0.1749168103135171
10.378121546961326,0.14048181806552454
10.411491712707184,0.07684544627509281
10.44486187845304,0.038962136234183965
10.478232044198895,0.06268125079174117
10.511602209944753,0.14806111605824188
10.544972375690609,0.26042985997005963
10.578342541436465,0.34815702793578807
10.61171270718232,0.36813190019091113
10.645082872928178,0.3064241100895293
10.678453038674034,0.1842777909636461
10.71182320441989,0.047101497772138345
10.745193370165747,-0.05742817786607622
10.778563535911603,-0.10099265827109516
10.811933701657459,-0.08565058443319618
10.845303867403315,-0.03983474816130835
10.878674033149172,-0.0025383136556052315
10.912044198895028,-0.004204750734911009
10.945414364640884,-0.053384220319163816
10.978784530386742,-0.13436424374830275
11.012154696132598,-0.21534555889346232
11.045524861878453,-0.262404498769689
11.078895027624311,-0.25316765492461996
11.112265193370167,-0.18548372049937542
11.145635359116023,-0.07884955739527261
11.179005524861878,0.031407473780943725
11.212375690607736,0.10549148402883983
11.245745856353592,0.11288802610121913
11.279116022099448,0.04415530984452213
11.312486187845305,-0.08375390404058844
11.345856353591161,-0.23144105170827917
11.379226519337017,-0.3496247809234693
11.412596685082875,-0.39590829712687525
11.44596685082873,-0.34928202050308116
11.479337016574586,-0.21674510364958113
11.512707182320442,-0.029835457723007802
11.5460773480663,0.16689624466507502
11.579447513812156,0.33042421740593203
11.612817679558011,0.43128264347534956
11.646187845303869,0.459518892057319
11.679558011049725,0.42395532647382567
11.71292817679558,0.3465148168204059
11.746298342541436,0.254269615563918
11.779668508287294,0.1715896021707783
11.81303867403315,0.11412086160844129
11.846408839779006,0.08582562801833293
11.879779005524863,0.07979288186680461
11.91314917127072,0.08257112539459104
11.946519337016575,0.08042375363317342
11.979889502762433,0.06489316482487267
12.013259668508288,0.035258245385904635
12.046629834254144,-0.0029484705424725776
12.08,-0.042097036634532584
12.113370165745858,-0.07672339710235446
12.146740331491714,-0.10561036180352924
12.18011049723757,-0.13093872197509757
12.213480662983427,-0.15549704095452702
12.246850828729283,-0.17985159488903527
12.280220994475139,-0.20111202672954306
12.313591160220996,-0.21384282684068928
12.346961325966852,-0.21247966744160293
12.380331491712708,-0.19393752194251254
12.413701657458564,-0.15918751954851895
12.447071823204421,-0.11324152521624087
12.480441988950277,-0.06376709002900509
12.513812154696133,-0.019038905550087044
12.54718232044199,0.0140414307254063
12.580552486187846,0.03140679381921521
12.613922651933702,0.03260670151069664
12.64729281767956,0.02084807771552608
12.680662983425416,0.002181009177788709
12.714033149171271,-0.016257146263947832
12.747403314917127,-0.028721761650973995
12.780773480662985,-0.03330885858766423
12.81414364640884,-0.03318047419986437
12.847513812154697,-0.03550546845401599
12.880883977900554,-0.0479739656688868
12.91425414364641,-0.07415038889674937
12.947624309392266,-0.11000647011403002
12.980994475138122,-0.14385840368768948
13.01436464088398,-0.16037379364201104
13.047734806629835,-0.1470342233285185
13.081104972375691,-0.09980208576785204
13.114475138121549,-0.02489044286034754
13.147845303867404,0.06441742659199597
13.18121546961326,0.15410577003294093
13.214585635359118,0.23518234964920304
13.247955801104974,0.30535003167481
13.28132596685083,0.36556336558303576
13.314696132596685,0.4138252560216355
13.348066298342543,0.44081426063034923
13.381436464088399,0.431375260761754
13.414806629834255,0.3724648153699774
13.448176795580112,0.263651414826038
13.481546961325968,0.12361111883658327
13.514917127071824,-0.01267161547424519
13.548287292817681,-0.10637833491248924
13.581657458563537,-0.13160289138729464
13.615027624309393,-0.08787550163710188
13.648397790055249,-0.0016173725088400096
13.681767955801106,0.08474111072295727
13.715138121546962,0.1308556812573349
13.748508287292818,0.11498544040186401
13.781878453038676,0.041128707503993646
13.815248618784532,-0.066009846741807
13.848618784530387,-0.1747159614144125
13.881988950276245,-0.26092748910997293
13.9153591160221,-0.31627133110568534
13.948729281767957,-0.3461351808962502
13.982099447513813,-0.3603465970182649
14.01546961325967,-0.3631932807852516
14.048839779005526,-0.3495448098414926
14.082209944751382,-0.3097676441685905
14.11558011049724,-0.24037947114455416
14.148950276243095,-0.15334400692764577
14.182320441988951,-0.0770004876914474
14.215690607734807,-0.04600701008040954
14.249060773480664,-0.08408538904713453
14.28243093922652,-0.18823739153293248
14.315801104972376,-0.32353699864145063
14.349171270718234,-0.43298914815480793
14.38254143646409,-0.459462366904069
14.415911602209945,-0.3702108709585408
14.449281767955803,-0.17249137028732886
14.482651933701659,0.08749514943624451
14.516022099447515,0.3423532838074789
14.54939226519337,0.530038461388475
14.582762430939228,0.6172573897442357
14.616132596685084,0.6096057207067664
14.64950276243094,0.5448856566578755
14.682872928176797,0.47381967845471135
14.716243093922653,0.4375104626469336
14.749613259668509,0.45137032119525095
14.782983425414367,0.5013131551799234
14.816353591160222,0.5521731916742404
14.849723756906078,0.5634453875148865
14.883093922651934,0.5054101807759206
14.916464088397792,0.3697478353205075
14.949834254143648,0.17175139336258244
14.983204419889503,-0.05538427896370662
15.016574585635361,-0.27123679240337334
15.049944751381217,-0.43977967648587735
15.083314917127073,-0.538271028046891
15.116685082872928,-0.5610931318486606
15.150055248618786,-0.5181638352975255
15.183425414364642,-0.42944068885738285
15.216795580110498,-0.31821751755328836
15.250165745856355,-0.2058571308122069
15.283535911602211,-0.10934130077166507
15.316906077348067,-0.041235689578587476
15.350276243093925,-0.010371835666044615
15.38364640883978,-0.02148513830455867
15.417016574585636,-0.07324621728103008
15.450386740331492,-0.15583706178658996
15.48375690607735,-0.2503072830446434
15.517127071823205,-0.3315310050823449
15.550497237569061,-0.37471209341525324
15.583867403314919,-0.36312618773116223
15.617237569060775,-0.2936339693491754
15.65060773480663,-0.1773442562896643
15.683977900552488,-0.03524261301054476
15.717348066298344,0.10887239574725488
15.7507182320442,0.23476155460838707
15.784088397790056,0.3290248211324765
15.817458563535913,0.3850697929583401
15.85082872928177,0.4014108079840025
15.884198895027625,0.3803445867802012
15.917569060773483,0.32793355109048417
15.950939226519338,0.2545296938646727
15.984309392265194,0.17407120849173865
16.01767955801105,0.10090762503093408
16.051049723756908,0.04476749436918905
16.084419889502765,0.006455692706180625
16.11779005524862,-0.022608436307004084
16.151160220994477,-0.055611843713591
16.18453038674033,-0.10210012025670284
16.21790055248619,-0.16064827138885704
16.251270718232046,-0.21698408406816358
16.2846408839779,-0.24940165948187987
16.318011049723758,-0.23925677820470545
16.351381215469615,-0.1813045469402269
16.38475138121547,-0.08833752692131522
16.418121546961327,0.012841875358717733
16.451491712707185,0.09291186075758714
16.48486187845304,0.1339532892984159
16.518232044198896,0.1390415536151028
16.551602209944754,0.13208025130085568
16.584972375690608,0.14660693113789391
16.618342541436466,0.20770653789031115
16.651712707182323,0.3153226740888187
16.685082872928177,0.4378132498364905
16.718453038674035,0.5206857677287933
16.751823204419892,0.5084558816691819
16.785193370165747,0.3707334058447288
16.818563535911604,0.1204898088864834
16.851933701657458,-0.185021293755561
16.885303867403316,-0.46277640546770094
16.918674033149173,-0.6349405914732614
16.952044198895027,-0.6589766818307431
16.985414364640885,-0.543420181141317
17.018784530386743,-0.3422352409830024
17.052154696132597,-0.13071078718669482
17.085524861878454,0.02550190637359965
17.118895027624312,0.09385091312094741
17.152265193370166,0.08100408960826605
17.185635359116024,0.02102967872017254
17.21900552486188,-0.046092906563631506
17.252375690607735,-0.09359817115677664
