Time (s),Filtered Signal
0.0,-0.0036744421746014873
0.03337008452774715,-0.09602126518961104
0.0667401690554943,-0.12136469357585494
0.10011025358324147,-0.03801313340373863
0.1334803381109886,0.15519873573965276
0.16685042263873576,0.4198426143334319
0.20022050716648293,0.693904529274643
0.23359059169423008,0.915571594468873
0.2669606762219772,1.0445921525949815
0.30033076074972437,1.0727432568224051
0.3337008452774715,1.0203167831219229
0.36707092980521866,0.9218105039322115
0.40044101433296586,0.8082291416474374
0.433811098860713,0.6939242730719085
0.46718118338846015,0.5730277943203905
0.5005512679162073,0.42599948356426487
0.5339213524439544,0.23270171226316136
0.5672914369717016,-0.013804336573011517
0.6006615214994487,-0.2984411256666577
0.6340316060271959,-0.5839519383658044
0.667401690554943,-0.8199374232258707
0.7007717750826902,-0.958323174459876
0.7341418596104373,-0.9699648980564741
0.7675119441381845,-0.8562660332115177
0.8008820286659317,-0.6510546088051617
0.8342521131936789,-0.4112854679396013
0.867622197721426,-0.19930474486422264
0.9009922822491732,-0.06284079629626946
0.9343623667769203,-0.02009244785552079
0.9677324513046675,-0.05557194113162255
1.0011025358324146,-0.12823662983547976
1.0344726203601617,-0.1885561973221655
1.0678427048879089,-0.19762157293760005
1.101212789415656,-0.14078349233563417
1.1345828739434032,-0.03085309523027376
1.1679529584711503,0.09961850416334549
1.2013230429988975,0.2130732749090079
1.2346931275266446,0.28228587947952694
1.2680632120543918,0.3000920298118371
1.301433296582139,0.279834035623935
1.334803381109886,0.24668685197113563
1.3681734656376332,0.22377653272930356
1.4015435501653803,0.21931077419893902
1.4349136346931275,0.22082403622897576
1.4682837192208746,0.19990443566256455
1.5016538037486218,0.1262783145556919
1.535023888276369,-0.014367761385483367
1.568393972804116,-0.20694391561897402
1.6017640573318634,-0.40510939988125033
1.6351341418596106,-0.5438765800028081
1.6685042263873577,-0.5632203853541502
1.7018743109151049,-0.4336897130701251
1.735244395442852,-0.17296310864645079
1.7686144799705992,0.1548404799895355
1.8019845644983463,0.458379106598156
1.8353546490260935,0.6501504968741518
1.8687247335538406,0.6773441482360337
1.9020948180815878,0.5401715663189964
1.935464902609335,0.29043253386120765
1.968834987137082,0.011281822812986302
2.002205071664829,-0.2131294116232581
2.0355751561925763,-0.3257304760229798
2.0689452407203235,-0.31181668483298053
2.1023153252480706,-0.19744859534019488
2.1356854097758178,-0.03440083591533383
2.169055494303565,0.12008864765887108
2.202425578831312,0.2204637567525093
2.235795663359059,0.24240474076300508
2.2691657478868064,0.1849587654849597
2.3025358324145535,0.06789986315849053
2.3359059169423007,-0.07359778810049922
2.369276001470048,-0.1968855970157239
2.402646085997795,-0.26305716608319757
2.436016170525542,-0.25029899951601264
2.4693862550532892,-0.16484263127887547
2.5027563395810364,-0.04303446012992037
2.5361264241087835,0.05986991026142846
2.5694965086365307,0.09237457853427462
2.602866593164278,0.03182363758721457
2.636236677692025,-0.10081399384378735
2.669606762219772,-0.24602686931122164
2.7029768467475193,-0.3309510547737281
2.7363469312752664,-0.3039547865344406
2.7697170158030135,-0.16154675965464912
2.8030871003307607,0.04697720874330248
2.836457184858508,0.24093072294755996
2.869827269386255,0.34580448271266134
2.903197353914002,0.32817653398757857
2.9365674384417493,0.2101270402464984
2.9699375229694964,0.05599293072643553
3.0033076074972436,-0.06111285030614968
3.0366776920249907,-0.09509734251370928
3.070047776552738,-0.04639582050946348
3.103417861080485,0.04403875842934053
3.136787945608232,0.12139092351513166
3.1701580301359793,0.14843498375234662
3.203528114663727,0.1240836025346923
3.236898199191474,0.07939520604937504
3.270268283719221,0.0546352273402557
3.3036383682469683,0.07181773823868663
3.3370084527747155,0.11942771527889444
3.3703785373024626,0.15847401298731845
3.4037486218302098,0.14609680186448348
3.437118706357957,0.062338759947406945
3.470488790885704,-0.07624012900205432
3.503858875413451,-0.2245199833771731
3.5372289599411983,-0.33381434981469515
3.5705990444689455,-0.37911409084845704
3.6039691289966926,-0.37227935003797746
3.63733921352444,-0.35293117435164206
3.670709298052187,-0.361757596804652
3.704079382579934,-0.41143626158708757
3.7374494671076812,-0.47242728120132843
3.7708195516354284,-0.483228979486222
3.8041896361631755,-0.38140212699350917
3.8375597206909227,-0.13996132520063498
3.87092980521867,0.21002379535251428
3.904299889746417,0.5835007926538964
3.937669974274164,0.8720019305362879
3.9710400588019112,0.9873819474391284
4.004410143329658,0.8987581664322295
4.0377802278574055,0.645724395517816
4.071150312385153,0.32197687207773157
4.1045203969129,0.037082387698953924
4.137890481440647,-0.12632054962457667
4.171260565968394,-0.14144261108891854
4.204630650496141,-0.041297314340504515
4.238000735023888,0.10157484999313143
4.2713708195516356,0.20848533576511397
4.304740904079383,0.22568053206216315
4.33811098860713,0.14082426408147783
4.371481073134877,-0.019354076866316895
4.404851157662624,-0.20583625155215485
4.438221242190371,-0.3689150307560896
4.471591326718118,-0.4750439565714565
4.504961411245866,-0.513606387848456
4.538331495773613,-0.4938636508317094
4.57170158030136,-0.4362961276480328
4.605071664829107,-0.3633577003575298
4.638441749356854,-0.2928669822061674
4.671811833884601,-0.23474875482194008
4.7051819184123485,-0.19037025736713115
4.738552002940096,-0.1537151274603591
4.771922087467843,-0.11419002700468972
4.80529217199559,-0.060829801115983476
4.838662256523337,0.013126183493525553
4.872032341051084,0.106991581396187
4.905402425578831,0.21206300233453734
4.9387725101065785,0.31372312767168825
4.972142594634326,0.39497797944812446
5.005512679162073,0.44005785544469916
5.03888276368982,0.43760850336208695
5.072252848217567,0.3838002907022064
5.105622932745314,0.28534351121577
5.138993017273061,0.16107817598461815
5.1723631018008085,0.03987594960149102
5.205733186328556,-0.046559940067136055
5.239103270856303,-0.07469890123477586
5.27247335538405,-0.039645759889791805
5.305843439911797,0.04048030657377472
5.339213524439544,0.12980440536945181
5.372583608967291,0.18854309978270775
5.4059536934950385,0.18956513675063233
5.439323778022786,0.12965753432992075
5.472693862550533,0.029655075412735047
5.50606394707828,-0.07684312437356361
5.539434031606027,-0.16050524435428623
5.572804116133774,-0.21037883104839886
5.606174200661521,-0.23793425836611284
5.6395442851892685,-0.26898798667008367
5.672914369717016,-0.3274569987356434
5.706284454244763,-0.4189588953647077
5.73965453877251,-0.5226223205043635
5.773024623300257,-0.5959381803540444
5.806394707828004,-0.5914932145493782
5.839764792355751,-0.47859273371437655
5.873134876883499,-0.2599163835888266
5.906504961411246,0.02488993957818994
5.939875045938993,0.3109871442006479
5.97324513046674,0.5307098971928574
6.006615214994487,0.6369656133655648
6.039985299522234,0.6179834346865484
6.073355384049981,0.49814747169324297
6.106725468577729,0.3260863708402972
6.140095553105476,0.1563142497660758
6.173465637633223,0.03228580152901501
6.20683572216097,-0.023384266045334938
6.240205806688717,-0.009933092394008495
6.273575891216464,0.05699258708669065
6.3069459757442115,0.15297141189192784
6.340316060271959,0.25097322091519775
6.373686144799706,0.3248031850138868
6.407056229327454,0.3511368487648598
6.440426313855201,0.3125045699029084
6.473796398382948,0.2024288924571294
6.507166482910695,0.03133901209951603
6.540536567438442,-0.17035378100497975
6.5739066519661895,-0.355887879855427
6.607276736493937,-0.47407399311610043
6.640646821021684,-0.4871210438100903
6.674016905549431,-0.3881347047045298
6.707386990077178,-0.21030714711015325
6.740757074604925,-0.021456972922425984
6.774127159132672,0.09735188375680978
6.8074972436604195,0.08337243546174723
6.840867328188167,-0.07796746606459508
6.874237412715914,-0.33881629797323176
6.907607497243661,-0.599857433028538
6.940977581771408,-0.7459505998423922
6.974347666299155,-0.6938926518656018
7.007717750826902,-0.43179453882888097
7.0410878353546495,-0.030771758859023016
7.074457919882397,0.3791947342304064
7.107828004410144,0.6608547956950903
7.141198088937891,0.7265862440033473
7.174568173465638,0.5747527944011488
7.207938257993385,0.2886117044746663
7.241308342521132,-0.0016265473778064672
7.27467842704888,-0.17559019340076276
7.308048511576627,-0.17194345656450669
7.341418596104374,-0.00821860125675661
7.374788680632121,0.23539831191954028
7.408158765159868,0.45754421153643055
7.441528849687615,0.5807179501190539
7.4748989342153624,0.578854992869895
7.50826901874311,0.47735822851204635
7.541639103270857,0.33012415437115994
7.575009187798604,0.18846219606451395
7.608379272326351,0.07813927357077202
7.641749356854098,-0.006165840875329104
7.675119441381845,-0.08986308398784905
7.7084895259095925,-0.199325723242734
7.74185961043734,-0.34492713799674335
7.775229694965087,-0.5133759511145272
7.808599779492834,-0.6712535898867326
7.841969864020581,-0.7771696902525208
7.875339948548328,-0.7974548711352312
7.908710033076075,-0.7196584984259499
7.9420801176038225,-0.558855320541631
7.97545020213157,-0.3538410219583447
8.008820286659317,-0.15374348411502636
8.042190371187063,0.0003536627652025053
8.075560455714811,0.09127504385059848
8.108930540242557,0.13179711173143194
8.142300624770305,0.15745209410845296
8.175670709298052,0.20873864714147555
8.2090407938258,0.3106249285503497
8.242410878353546,0.4588474961937373
8.275780962881294,0.619531739402856
8.30915104740904,0.7424878434547568
8.342521131936788,0.7821931941026284
8.375891216464534,0.7170313614787531
8.409261300992283,0.5584002217326128
8.442631385520029,0.3461626354270664
8.476001470047777,0.13309250207320775
8.509371554575523,-0.03450800440162993
8.542741639103271,-0.13188460312648717
8.57611172363102,-0.1610817326622963
8.609481808158765,-0.14545312832354282
8.642851892686513,-0.11694898883447628
8.67622197721426,-0.10223611094034218
8.709592061742008,-0.11358035269914334
8.742962146269754,-0.14785304279541234
8.776332230797502,-0.19309997592142966
8.809702315325248,-0.23850262017939142
8.843072399852996,-0.28196833573309954
8.876442484380743,-0.3309361909389967
8.90981256890849,-0.39576819600165625
8.943182653436237,-0.47941143038860085
8.976552737963985,-0.5694936426654394
9.009922822491731,-0.6381485301300304
9.04329290701948,-0.6509524831825738
9.076662991547225,-0.5814156493065398
9.110033076074973,-0.42417644269996546
9.14340316060272,-0.20023102273484028
9.176773245130468,0.048836857559977735
9.210143329658214,0.27541160598578224
9.243513414185962,0.442740473331024
9.276883498713708,0.5365881750710682
9.310253583241456,0.5666092210852693
9.343623667769203,0.5574039856503286
9.37699375229695,0.5342481063427379
9.410363836824697,0.510939838237818
9.443733921352445,0.48574137495608727
9.477104005880191,0.4467397867921635
9.51047409040794,0.3826876566143747
9.543844174935685,0.29248095628479365
9.577214259463434,0.18753969276986787
9.61058434399118,0.08580655426806841
9.643954428518928,0.0012593406234465707
9.677324513046674,-0.06430849398092954
9.710694597574422,-0.12168120420062072
9.744064682102168,-0.18586713997605733
9.777434766629916,-0.26351131891986296
9.810804851157663,-0.34365322102831364
9.84417493568541,-0.39822821556164506
9.877545020213157,-0.393734665478062
9.910915104740905,-0.3092456899422137
9.944285189268651,-0.15174334669035527
9.9776552737964,0.039977334079647486
10.011025358324146,0.2065887043858991
10.044395442851894,0.2909638232294077
10.07776552737964,0.26244885088051817
10.111135611907388,0.13127190750839568
10.144505696435134,-0.054070457877115514
10.177875780962882,-0.22567430541846192
10.211245865490628,-0.322996147945744
10.244615950018376,-0.31579321612290806
10.277986034546123,-0.2137585353984699
10.31135611907387,-0.05980135774931537
10.344726203601617,0.08885626134198932
10.378096288129365,0.18294150454131866
10.411466372657111,0.1975810901525359
10.44483645718486,0.13733095479189592
10.478206541712606,0.029614175034294355
10.511576626240354,-0.08884949510587681
10.5449467107681,-0.18591741110953042
10.578316795295848,-0.2425883589412363
10.611686879823594,-0.2540420344901622
10.645056964351342,-0.22479231447180636
10.678427048879088,-0.16206613696746902
10.711797133406836,-0.07163518242379646
10.745167217934583,0.04170621838902052
10.77853730246233,0.1698616886332864
10.811907386990077,0.2967149868336486
10.845277471517825,0.39703274013026146
10.878647556045571,0.44139679393324505
10.91201764057332,0.4062349980972242
10.945387725101066,0.2847306145663927
10.978757809628814,0.09313580024686925
11.01212789415656,-0.131244052463754
11.045497978684308,-0.34021750467635925
11.078868063212054,-0.4889568799129153
11.112238147739802,-0.5485384409668582
11.145608232267548,-0.5121806908452439
11.178978316795297,-0.39375367327446076
11.212348401323043,-0.22042281146407358
11.24571848585079,-0.023200629210742903
11.279088570378537,0.1707809705948584
11.312458654906285,0.3418977597647423
11.345828739434031,0.4773127560583519
11.37919882396178,0.5677005101159387
11.412568908489526,0.6043955384723708
11.445938993017274,0.5796456325148929
11.47930907754502,0.49072064204798926
11.512679162072768,0.3458349931429841
11.546049246600514,0.16779779102567435
11.579419331128262,-0.008411237061040222
11.612789415656009,-0.1449885077387578
11.646159500183757,-0.21427355675637055
11.679529584711503,-0.2092457855909112
11.71289966923925,-0.14603438529725307
11.746269753766997,-0.056856682829934606
11.779639838294745,0.023101058928884862
11.813009922822491,0.06817707159603555
11.84638000735024,0.06818608910114426
11.879750091877986,0.02613393169697676
11.913120176405734,-0.0490744755657946
11.94649026093348,-0.1492446165429722
11.979860345461228,-0.26857892536520406
12.013230429988974,-0.40031731446969276
12.046600514516722,-0.5320291187386917
12.079970599044469,-0.6441827422631081
12.113340683572217,-0.7141781080426023
12.146710768099963,-0.7240664521135649
12.180080852627711,-0.6674935843057945
12.213450937155457,-0.5517644061430806
12.246821021683205,-0.39396380689593785
12.280191106210951,-0.21366258252269069
12.3135611907387,-0.026562192023291308
12.346931275266446,0.15752836301568993
12.380301359794194,0.3319515421650519
12.41367144432194,0.4883180439435316
12.447041528849688,0.613450576459949
12.480411613377434,0.6910480634653382
12.513781697905182,0.7080965120370297
12.547151782432929,0.6629621300526565
12.580521866960677,0.5704914746490541
12.613891951488423,0.4603074830908522
12.647262036016171,0.36758008444681467
12.680632120543917,0.3194200606514115
12.714002205071665,0.3227272159771342
12.747372289599411,0.35934168919989956
12.78074237412716,0.3915280555799096
12.814112458654908,0.37641545102268026
12.847482543182654,0.28402496776931363
12.880852627710402,0.11167431604814729
12.914222712238148,-0.1114050396817435
12.947592796765896,-0.33188396893361577
12.980962881293642,-0.49050963465673586
13.01433296582139,-0.5443259167325241
13.047703050349137,-0.48449256512846317
13.081073134876885,-0.3422363536774596
13.114443219404631,-0.1795300852573175
13.147813303932379,-0.06697989187097043
13.181183388460125,-0.05690367098451922
13.214553472987873,-0.16228950328745573
13.24792355751562,-0.35063889605169085
13.281293642043368,-0.5558186883921103
13.314663726571114,-0.7032814067942921
13.348033811098862,-0.7380032838188983
13.381403895626608,-0.6433601312888402
13.414773980154356,-0.4436414435717312
13.448144064682102,-0.1906919164126564
13.48151414920985,0.05780958155413671
13.514884233737597,0.2581359885641081
13.548254318265345,0.39045985262996374
13.581624402793091,0.456839545379263
13.614994487320839,0.4710638019894945
13.648364571848585,0.4474077181895219
13.681734656376333,0.39459697074448563
13.71510474090408,0.3172599811676354
13.748474825431828,0.22222155194936388
13.781844909959574,0.12399280604626324
13.815214994487322,0.04450482184002498
13.848585079015068,0.006070925789436741
13.881955163542816,0.02123804847796125
13.915325248070562,0.08556231769604249
13.94869533259831,0.17783734666546958
13.982065417126057,0.26788502159898275
14.015435501653805,0.327586346964412
14.048805586181551,0.3392561131779063
14.082175670709299,0.29766636676992764
14.115545755237045,0.2063932623432041
14.148915839764793,0.07270695435279992
14.18228592429254,-0.09441691227804799
14.215656008820288,-0.2815954592623573
14.249026093348034,-0.4663542674575706
14.282396177875782,-0.6156883858704016
14.315766262403528,-0.6918951756653559
14.349136346931276,-0.6652436638723385
14.382506431459023,-0.5280589625600548
14.41587651598677,-0.30260332338531165
14.449246600514517,-0.03741369057833647
14.482616685042265,0.20761529015850969
14.515986769570011,0.3813563078721162
14.54935685409776,0.4580866706055331
14.582726938625505,0.44370202832910005
14.616097023153253,0.3695485074620104
14.649467107681,0.27739503092782
14.682837192208748,0.20244594052229056
14.716207276736494,0.1613384388777925
14.749577361264242,0.14923468881964774
14.782947445791988,0.14599848539154664
14.816317530319736,0.1278545599938224
14.849687614847483,0.07914791788868863
14.88305769937523,-0.0007066806867069573
14.916427783902977,-0.09762398281836453
14.949797868430725,-0.18983721547350937
14.983167952958471,-0.2578282564976526
15.01653803748622,-0.29234854881429334
15.049908122013965,-0.29680420094383486
15.083278206541713,-0.2832617226694117
15.11664829106946,-0.2646641345888702
15.150018375597208,-0.2477210508959489
15.183388460124954,-0.23030382990362405
15.216758544652702,-0.20443822588541014
15.250128629180448,-0.16277187436424342
15.283498713708196,-0.10455145482844752
15.316868798235943,-0.03762621553021584
15.35023888276369,0.024635526313442492
15.383608967291437,0.06981491407319759
15.416979051819185,0.09287065452498804
15.450349136346931,0.09925713183912718
15.48371922087468,0.1032067259768265
15.517089305402425,0.12191358506755026
15.550459389930174,0.168003146828374
15.58382947445792,0.24314892578025588
15.617199558985668,0.33516945103865015
15.650569643513414,0.4198735668629781
15.683939728041162,0.46761098241563925
15.717309812568908,0.45299319693172463
15.750679897096656,0.36480306327446665
15.784049981624403,0.21235637385570164
15.81742006615215,0.02527592834452366
15.850790150679897,-0.15405022459716655
15.884160235207645,-0.2830089192892149
15.917530319735391,-0.33177334460410596
15.95090040426314,-0.2921449067346988
15.984270488790886,-0.17960155804367464
16.017640573318634,-0.028804458284532777
16.05101065784638,0.11514627690783343
16.084380742374126,0.20710327781028526
16.117750826901876,0.21219096785728225
16.151120911429622,0.1150134118805567
16.18449099595737,-0.07375360101199792
16.217861080485115,-0.31601891480954186
16.251231165012864,-0.5529642456772896
16.28460124954061,-0.7203568191163296
16.317971334068357,-0.7689069479167102
16.351341418596103,-0.6822214573394976
16.384711503123853,-0.48414845210415014
16.4180815876516,-0.23096884055400385
16.451451672179346,0.00940857271262638
16.484821756707092,0.18278427930147134
16.51819184123484,0.26764231772207325
16.551561925762588,0.279740130058899
16.584932010290334,0.26098884057008237
16.61830209481808,0.25832740645300184
16.65167217934583,0.30222452142539036
16.685042263873576,0.3937796574061353
16.718412348401323,0.5050765008003754
16.75178243292907,0.5918373890561599
16.78515251745682,0.6128308475605033
16.818522601984565,0.5482309877687386
16.85189268651231,0.40960449574489255
16.885262771040058,0.23718402848922446
16.918632855567807,0.08481464474332415
16.952002940095554,-0.0020090631540023137
16.9853730246233,-0.006229575826893693
17.018743109151046,0.05132858525083207
17.052113193678796,0.11806781443568874
17.085483278206542,0.12987615322520474
17.11885336273429,0.038035085579893074
17.15222344726204,-0.1679162722754959
17.185593531789785,-0.45095516604338026
17.21896361631753,-0.7356394358397518
17.252333700845277,-0.9332230292646361
