Time (s),Filtered Signal
0.0,-0.0509859325095873
0.033370165745856356,-0.15277115577599354
0.06674033149171271,-0.23249263140265397
0.10011049723756907,-0.2756057735476479
0.13348066298342542,-0.27846871345177127
0.16685082872928178,-0.24833890220601026
0.20022099447513814,-0.19963812394843525
0.2335911602209945,-0.14831854836166078
0.26696132596685085,-0.10668639734365991
0.30033149171270723,-0.08049089815981823
0.33370165745856356,-0.06888259657461293
0.3670718232044199,-0.06664142889001497
0.4004419889502763,-0.06737639571385667
0.43381215469613266,-0.0663388435134901
0.467182320441989,-0.06188975228627593
0.5005524861878453,-0.0552560488892993
0.5339226519337017,-0.04883640610445164
0.5672928176795581,-0.043884624930372214
0.6006629834254145,-0.0387586527510988
0.6340331491712707,-0.028829222892567306
0.6674033149171271,-0.008438108476905272
0.7007734806629835,0.02582151336150471
0.7341436464088398,0.07217494636674564
0.7675138121546962,0.1228806317653322
0.8008839779005525,0.1664494423952424
0.8342541436464089,0.19215903498900397
0.8676243093922653,0.1948123289272774
0.9009944751381216,0.17736037422264775
0.934364640883978,0.14993903945202378
0.9677348066298344,0.12562601619047886
1.0011049723756906,0.11491531296624752
1.0344751381215471,0.1216050651048664
1.0678453038674034,0.1420372238749857
1.1012154696132597,0.16775316910473695
1.1345856353591162,0.18970786499856107
1.1679558011049724,0.2014334528440053
1.201325966850829,0.19950790322701706
1.2346961325966852,0.18177139289755406
1.2680662983425415,0.14550543203453337
1.301436464088398,0.08791542774779669
1.3348066298342542,0.009480217801153308
1.3681767955801105,-0.08183216605779402
1.401546961325967,-0.16899900059020947
1.4349171270718233,-0.22968506857284177
1.4682872928176796,-0.2449026703929689
1.501657458563536,-0.2087245247506207
1.5350276243093923,-0.13359629816335852
1.5683977900552488,-0.047441888773783344
1.601767955801105,0.0170121872593855
1.6351381215469614,0.035853012762570774
1.6685082872928179,0.003800957872226639
1.7018784530386741,-0.06464544121922394
1.7352486187845306,-0.14304564539011055
1.768618784530387,-0.20550874991994006
1.8019889502762432,-0.23742128926406506
1.8353591160220997,-0.239441903335394
1.868729281767956,-0.2237286251795802
1.9020994475138122,-0.20543438082943863
1.9354696132596687,-0.19451086221733582
1.968839779005525,-0.19196175575080257
2.0022099447513813,-0.1917200367450454
2.0355801104972375,-0.18614464444812234
2.0689502762430942,-0.17147183006623565
2.1023204419889505,-0.15010157818059397
2.135690607734807,-0.1287558583369291
2.169060773480663,-0.11393680255342147
2.2024309392265193,-0.10744050739578437
2.235801104972376,-0.10441234367121087
2.2691712707182323,-0.09493790538820056
2.3025414364640886,-0.06835628639944619
2.335911602209945,-0.018236595087997954
2.369281767955801,0.05426215424361536
2.402651933701658,0.1401563996423351
2.436022099447514,0.22567371993948063
2.4693922651933704,0.2973176604484401
2.5027624309392267,0.3468604863611918
2.536132596685083,0.3741802993265573
2.5695027624309392,0.3867635335190425
2.602872928176796,0.3961107387014699
2.636243093922652,0.4125885181241306
2.6696132596685085,0.4408826421465908
2.7029834254143648,0.47788910065211576
2.736353591160221,0.513841796985021
2.7697237569060777,0.5362106251799439
2.803093922651934,0.5348918590208351
2.8364640883977903,0.5067288343589629
2.8698342541436466,0.4575205763015465
2.903204419889503,0.400375988506466
2.936574585635359,0.3504653103331745
2.969944751381216,0.3176872649690097
3.003314917127072,0.3000627242063651
3.0366850828729284,0.2811497264388467
3.0700552486187846,0.23388265573370387
3.103425414364641,0.13086286524761465
3.1367955801104976,-0.04208030539559773
3.170165745856354,-0.2749188900608486
3.20353591160221,-0.531468949615965
3.2369060773480665,-0.7602795959224413
3.2702762430939227,-0.9167315051529187
3.3036464088397794,-0.9882507564443651
3.3370165745856357,-1.010185792069166
3.370386740331492,-1.0607045745423784
3.4037569060773483,-1.2304108349830003
3.4371270718232045,-1.5744786236521324
3.4704972375690613,-2.066854872873382
3.5038674033149175,-2.5808159600206224
3.537237569060774,-2.913131560063961
3.57060773480663,-2.8509636367764473
3.6039779005524863,-2.258747723188845
3.6373480662983426,-1.1479996390779856
3.6707182320441993,0.30439032608760846
3.7040883977900556,1.8030830910712168
3.737458563535912,3.030434251426656
3.770828729281768,3.7523975885296967
3.8041988950276244,3.8901262934222625
3.837569060773481,3.5297733142538408
3.8709392265193374,2.87152529843648
3.9043093922651937,2.1445759667160353
3.93767955801105,1.5257280358099425
3.9710497237569062,1.0925181195093538
4.0044198895027625,0.8229071179772015
4.037790055248619,0.632838997626611
4.071160220994475,0.4294534257206286
4.104530386740332,0.15572680839166456
4.1379005524861885,-0.18954094347538086
4.171270718232044,-0.5594415439955951
4.204640883977901,-0.8857154056553885
4.238011049723757,-1.1099660038082753
4.271381215469614,-1.2058358292102753
4.30475138121547,-1.184903467740643
4.338121546961326,-1.086942420444972
4.371491712707183,-0.9612452561557219
4.404861878453039,-0.8479589293695838
4.438232044198895,-0.7666860732194853
4.471602209944752,-0.715381277257179
4.504972375690608,-0.6778978950943426
4.538342541436465,-0.635327278636571
4.5717127071823205,-0.5755863286117884
4.605082872928177,-0.49747261076296356
4.638453038674034,-0.4085308079727247
4.67182320441989,-0.31900928298981984
4.7051933701657465,-0.23564410583464515
4.738563535911602,-0.15851891537352197
4.771933701657459,-0.08227984939845538
4.805303867403316,-0.0006259821019878048
4.8386740331491715,0.08859665721423045
4.872044198895028,0.18050728330554358
4.905414364640884,0.26406203770617476
4.938784530386741,0.32630444135173436
4.972154696132597,0.35797424409390055
5.005524861878453,0.3578487572935593
5.03889502762431,0.33381169439325187
5.072265193370166,0.3001228695227115
5.105635359116023,0.2720073088729888
5.1390055248618784,0.25981134964030606
5.172375690607735,0.26516033274664863
5.205745856353592,0.2807353675696034
5.239116022099448,0.2937709525440606
5.272486187845304,0.2917660843676736
5.30585635359116,0.2679142502827976
5.339226519337017,0.22389288489710985
5.372596685082874,0.16888833545895732
5.4059668508287295,0.1154751891096119
5.439337016574586,0.07435761080412946
5.472707182320442,0.050356957457166
5.506077348066299,0.04127422598718974
5.5394475138121555,0.03980496666149077
5.572817679558011,0.037279698119509305
5.606187845303868,0.02732366478238997
5.639558011049724,0.007863075330004026
5.672928176795581,-0.01901055697474205
5.706298342541437,-0.04864917568056503
5.739668508287293,-0.07572184828473486
5.77303867403315,-0.09547430917785585
5.806408839779006,-0.10433088642871015
5.839779005524862,-0.10042594386305527
5.873149171270718,-0.08455039514909028
5.906519337016575,-0.06123537436090243
5.939889502762432,-0.0389164506017472
5.9732596685082875,-0.028091166756353605
6.006629834254144,-0.037389024595735225
6.04,-0.06902015493345064
6.073370165745857,-0.11610498454747373
6.1067403314917135,-0.16399240395927633
6.140110497237569,-0.19577097691805823
6.173480662983426,-0.19973455654207262
6.206850828729282,-0.17507003285425748
6.240220994475139,-0.13255801716645474
6.273591160220995,-0.08952366434991743
6.306961325966851,-0.06136271432508463
6.340331491712708,-0.05394887035212202
6.373701657458564,-0.060919205219718865
6.40707182320442,-0.06732775968815412
6.440441988950277,-0.057795255827319425
6.473812154696133,-0.02490578558997922
6.50718232044199,0.026490427233592385
6.5405524861878455,0.08119646738927862
6.573922651933702,0.1206836718863022
6.607292817679559,0.13156605877567065
6.640662983425415,0.11140649113456597
6.674033149171271,0.06933784937578769
6.707403314917127,0.02167069798699954
6.740773480662984,-0.015032193343553189
6.774143646408841,-0.03008541930238773
6.8075138121546965,-0.021514695138647285
6.840883977900553,0.005027702855140647
6.874254143646409,0.04001520933782617
6.907624309392266,0.07425329868723884
6.9409944751381225,0.10160261871386901
6.974364640883978,0.11945205450815907
7.007734806629835,0.12747940422135273
7.041104972375691,0.12596723142222727
7.074475138121548,0.11482953229539988
7.107845303867403,0.09380200470388154
7.14121546961326,0.06346826374183259
7.174585635359117,0.026351631866250738
7.207955801104973,-0.012680291602398397
7.241325966850829,-0.047093205696439704
7.274696132596685,-0.07034659101320688
7.308066298342542,-0.07799200578095106
7.341436464088399,-0.0694120334995722
7.3748066298342545,-0.04844293320780933
7.408176795580111,-0.02247269520088494
7.441546961325967,-0.00016764374602088193
7.474917127071824,0.011440291558236665
7.5082872928176805,0.00941926861017432
7.541657458563536,-0.0040585412448122075
7.575027624309393,-0.022649661247329103
7.608397790055249,-0.03837535260994073
7.641767955801106,-0.0447364304975478
7.675138121546962,-0.039162218773500436
7.708508287292818,-0.023892692552047
7.741878453038675,-0.005077093170479355
7.775248618784531,0.009471678255581435
7.808618784530387,0.013063331920514827
7.841988950276244,0.002607377574367153
7.8753591160221,-0.019934845353676265
7.908729281767957,-0.04763850939424289
7.9420994475138125,-0.07045710026706703
7.975469613259669,-0.07852334202382501
8.008839779005525,-0.06594467688274352
8.042209944751383,-0.03361326248312111
8.075580110497238,0.010369946507725422
8.108950276243094,0.05318770495233194
8.14232044198895,0.08190602348633687
8.175690607734808,0.08828299920835819
8.209060773480664,0.07171492604769913
8.24243093922652,0.03911960374846293
8.275801104972377,0.0019759869389334647
8.309171270718233,-0.028075543312165708
8.342541436464089,-0.04326308804611758
8.375911602209946,-0.041933804058328736
8.409281767955802,-0.02844436288502335
8.442651933701658,-0.010945861860032921
8.476022099447514,0.002061220583685245
8.509392265193371,0.0051655737100731736
8.542762430939227,-0.0018147910370624428
8.576132596685083,-0.013917693550347028
8.60950276243094,-0.0234430518885206
8.642872928176796,-0.023707153968530268
8.676243093922652,-0.012386275004445092
8.709613259668508,0.007275232937102072
8.742983425414366,0.028120383918622545
8.776353591160222,0.04281721041817617
8.809723756906077,0.047710506145373394
8.843093922651935,0.044670936797143374
8.87646408839779,0.039859356382436144
8.909834254143647,0.04000781754187312
8.943204419889504,0.04822528560360262
8.97657458563536,0.06166310245700662
9.009944751381216,0.07241053754142196
9.043314917127072,0.07125523920464667
9.07668508287293,0.05239881778400871
9.110055248618785,0.016704097590270098
9.143425414364641,-0.028186904154045116
9.176795580110499,-0.07093012914080539
9.210165745856354,-0.10123063139394876
9.24353591160221,-0.11395495607114209
9.276906077348068,-0.11066563236022388
9.310276243093924,-0.0979751591733952
9.34364640883978,-0.08372886967377817
9.377016574585635,-0.07306759941382807
9.410386740331493,-0.06634491126242288
9.443756906077349,-0.05976397803980657
9.477127071823205,-0.04812601754675768
9.510497237569062,-0.028074230382279294
9.543867403314918,-0.00015529123323431202
9.577237569060774,0.031194203489093294
9.610607734806631,0.059520773513524125
9.643977900552487,0.07903006130399842
9.677348066298343,0.08678527170770944
9.710718232044199,0.08353930679825203
9.744088397790057,0.07304171772244201
9.777458563535912,0.060347545586308234
9.810828729281768,0.04999029622471208
9.844198895027626,0.04475789219012918
9.877569060773482,0.04535472042977551
9.910939226519337,0.050734124682380304
9.944309392265193,0.05863450310066418
9.97767955801105,0.06596682691339081
10.011049723756907,0.06905588210320476
10.044419889502763,0.06404727865481347
10.07779005524862,0.04780263272629915
10.111160220994476,0.019263800462265532
10.144530386740332,-0.019225972553419318
10.17790055248619,-0.06145859980160392
10.211270718232045,-0.09841579525437817
10.244640883977901,-0.12088422464109451
10.278011049723757,-0.12286526892321414
10.311381215469615,-0.10442172545022108
10.34475138121547,-0.07256090676216256
10.378121546961326,-0.03936447471564018
10.411491712707184,-0.017667211210918868
10.44486187845304,-0.01575443686118473
10.478232044198895,-0.03327653259662725
10.511602209944753,-0.06043659026244775
10.544972375690609,-0.08136352747011041
10.578342541436465,-0.08076505662496032
10.61171270718232,-0.0512170940030046
10.645082872928178,0.0023055253835296686
10.678453038674034,0.06321657612594395
10.71182320441989,0.10969172537462002
10.745193370165747,0.12412254247242308
10.778563535911603,0.10132616008258064
10.811933701657459,0.05143367046515891
10.845303867403315,-0.004224699116836676
10.878674033149172,-0.0425045958202379
10.912044198895028,-0.04870813590530411
10.945414364640884,-0.02285332093383323
10.978784530386742,0.020923636383260072
11.012154696132598,0.06131277900341076
11.045524861878453,0.07959308912665611
11.078895027624311,0.067582969178606
11.112265193370167,0.030375530308457282
11.145635359116023,-0.01681322181932264
11.179005524861878,-0.05563387955728776
11.212375690607736,-0.07198858435740217
11.245745856353592,-0.0607639850271665
11.279116022099448,-0.02653947736552319
11.312486187845305,0.01919234632896427
11.345856353591161,0.062546748640558
11.379226519337017,0.09161288128632968
11.412596685082875,0.09941166987212453
11.44596685082873,0.08505475435998347
11.479337016574586,0.05331754233820047
11.512707182320442,0.013040148478210034
11.5460773480663,-0.02526568274671243
11.579447513812156,-0.05222375457893278
11.612817679558011,-0.062258918204380585
11.646187845303869,-0.055342218557837636
11.679558011049725,-0.037059350791536314
11.71292817679558,-0.016706486969365938
11.746298342541436,-0.003900122188574193
11.779668508287294,-0.00490503226077225
11.81303867403315,-0.020131205821862442
11.846408839779006,-0.043861801327275206
11.879779005524863,-0.06640745921551221
11.91314917127072,-0.07790784788386816
11.946519337016575,-0.07231339469132957
11.979889502762433,-0.049947213730196255
12.013259668508288,-0.01753975488832113
12.046629834254144,0.014398198310544476
12.08,0.03588441115933473
12.113370165745858,0.041673654956781984
12.146740331491714,0.033492291662754047
12.18011049723757,0.01918464533900818
12.213480662983427,0.009011278610572217
12.246850828729283,0.010698006803746251
12.280220994475139,0.025530075759146953
12.313591160220996,0.047416131394252596
12.346961325966852,0.06551192095266872
12.380331491712708,0.06929078415178946
12.413701657458564,0.053702074921935294
12.447071823204421,0.021916514114836468
12.480441988950277,-0.01575369953037349
12.513812154696133,-0.04634019592842209
12.54718232044199,-0.06000426162515028
12.580552486187846,-0.054338479792652744
12.613922651933702,-0.03510157003119915
12.64729281767956,-0.013059580159813906
12.680662983425416,0.0014666582051927044
12.714033149171271,0.003627243989288674
12.747403314917127,-0.003834143545422223
12.780773480662985,-0.01236701646393328
12.81414364640884,-0.01236905131692421
12.847513812154697,0.001491247406364276
12.880883977900554,0.027050759934916867
12.91425414364641,0.05515677862721118
12.947624309392266,0.0737148208979889
12.980994475138122,0.07338172612328665
13.01436464088398,0.05220336935595283
13.047734806629835,0.01695184000464802
13.081104972375691,-0.019594070194317966
13.114475138121549,-0.04431820058699554
13.147845303867404,-0.049852913736903835
13.18121546961326,-0.03821239480792257
13.214585635359118,-0.020085393741130823
13.247955801104974,-0.00984389543131168
13.28132596685083,-0.01838189962830153
13.314696132596685,-0.04708589958545754
13.348066298342543,-0.0859279347844203
13.381436464088399,-0.11692834091084867
13.414806629834255,-0.12180359933341975
13.448176795580112,-0.09057857573496701
13.481546961325968,-0.02724615891983818
13.514917127071824,0.05039763064986712
13.548287292817681,0.11716504920322325
13.581657458563537,0.15070027283810938
13.615027624309393,0.14111723674918938
13.648397790055249,0.09560899301487637
13.681767955801106,0.03565843538677015
13.715138121546962,-0.012176888974266243
13.748508287292818,-0.02788105170765999
13.781878453038676,-0.006724222577973238
13.815248618784532,0.03890214927051109
13.848618784530387,0.08540850210121229
13.881988950276245,0.10890319710187872
13.9153591160221,0.09595295767524836
13.948729281767957,0.04922682692264751
13.982099447513813,-0.014439941752680579
14.01546961325967,-0.07236188051883849
14.048839779005526,-0.10649310210832899
14.082209944751382,-0.11099954354082772
14.11558011049724,-0.09345594981098901
14.148950276243095,-0.06950207854651991
14.182320441988951,-0.05405228971872904
14.215690607734807,-0.05371806024867802
14.249060773480664,-0.0642144684141638
14.28243093922652,-0.07373013885599491
14.315801104972376,-0.07009202571189317
14.349171270718234,-0.04772366656663079
14.38254143646409,-0.010762674378595787
14.415911602209945,0.029064247834531633
14.449281767955803,0.05840608000348543
14.482651933701659,0.06880990560327442
14.516022099447515,0.06046392633087991
14.54939226519337,0.041480348293442
14.582762430939228,0.023423181356985574
14.616132596685084,0.01562095521417936
14.64950276243094,0.02118464742892329
14.682872928176797,0.036492859124361794
14.716243093922653,0.05394461054421353
14.749613259668509,0.06612912504511448
14.782983425414367,0.06907943051666462
14.816353591160222,0.06310116957393522
14.849723756906078,0.051198839448142075
14.883093922651934,0.03643163677343557
14.916464088397792,0.019928860980374136
14.949834254143648,0.0006811694523592112
14.983204419889503,-0.022938535480859144
15.016574585635361,-0.05098963930837751
15.049944751381217,-0.080523682165181
15.083314917127073,-0.10584228598076713
15.116685082872928,-0.12043451745356486
15.150055248618786,-0.11962508283652674
15.183425414364642,-0.10255481291629104
15.216795580110498,-0.07248147136916668
15.250165745856355,-0.0353350209456179
15.283535911602211,0.002570708322461989
15.316906077348067,0.03638256055114137
15.350276243093925,0.06326564029683703
15.38364640883978,0.08178779456171693
15.417016574585636,0.09102792479082304
15.450386740331492,0.09035548872032391
15.48375690607735,0.0801370698117022
15.517127071823205,0.06273511259058522
15.550497237569061,0.042754086282091965
15.583867403314919,0.025880417286736932
15.617237569060775,0.01660124020463126
15.65060773480663,0.01594271313569807
15.683977900552488,0.020565829358893655
15.717348066298344,0.023940833975087727
15.7507182320442,0.019233758898471526
15.784088397790056,0.002597711280116177
15.817458563535913,-0.024710323904225024
15.85082872928177,-0.056432384426730396
15.884198895027625,-0.08363498577457723
15.917569060773483,-0.09824340932767324
15.950939226519338,-0.0962526394302924
15.984309392265194,-0.07925770308514352
16.01767955801105,-0.05369176628074508
16.051049723756908,-0.028136078917753285
16.084419889502765,-0.009868097364233148
16.11779005524862,-0.0021213249355220773
16.151160220994477,-0.0032127303746733965
16.18453038674033,-0.007868253515574908
16.21790055248619,-0.010082820917206154
16.251270718232046,-0.0061295636685842125
16.2846408839779,0.0037584493689110108
16.318011049723758,0.015877198571738218
16.351381215469615,0.025453245542975858
16.38475138121547,0.029662888641397663
16.418121546961327,0.02956556228226665
16.451491712707185,0.029750481110131566
16.48486187845304,0.035711184011316725
16.518232044198896,0.05027144479092509
16.551602209944754,0.07105742123035058
16.584972375690608,0.09061165545238811
16.618342541436466,0.09941239170321599
16.651712707182323,0.09047303704940468
16.685082872928177,0.0632199190219066
16.718453038674035,0.02455933934133903
16.751823204419892,-0.01361085766582672
16.785193370165747,-0.03940173124913983
16.818563535911604,-0.04611502757838548
16.851933701657458,-0.035165232163833535
16.885303867403316,-0.015403176165979847
16.918674033149173,0.0007824417553667531
16.952044198895027,0.002758470543971225
16.985414364640885,-0.01400167371312374
17.018784530386743,-0.046259149670359656
17.052154696132597,-0.08448879142531371
