Frequency (Hz),Amplitude
0.0,10.539394490513356
0.01993355481727575,10.535803181590675
0.0398671096345515,10.52503606638493
0.059800664451827246,10.507113593521833
0.079734219269103,10.482069890683128
0.09966777408637874,10.449952835184316
0.11960132890365449,10.410824154024475
0.13953488372093023,10.36475955465497
0.159468438538206,10.311848888077254
0.17940199335548174,10.252196346246526
0.19933554817275748,10.185920696127525
0.21926910299003324,10.113155553117117
0.23920265780730898,10.034049696911113
0.25913621262458475,9.948767433242379
0.27906976744186046,9.8574890052416
0.29900332225913623,9.760411058455581
0.318936877076412,9.65774716377689
0.3388704318936877,9.549728402663082
0.3588039867109635,9.436604019011574
0.37873754152823924,9.318642141852969
0.39867109634551495,9.196130582559324
0.4186046511627907,9.069377709442357
0.4385382059800665,8.938713401321385
0.4584717607973422,8.804490079723022
0.47840531561461797,8.66708381664955
0.49833887043189373,8.526895511093665
0.5182724252491695,8.384352122414189
0.5382059800664452,8.239907942004118
0.5581395348837209,8.094045876023964
0.5780730897009968,7.9472787009592185
0.5980066445182725,7.8001502400145055
0.6179401993355482,7.653236391554077
0.637873754152824,7.507145920748081
0.6578073089700996,7.362520902343707
0.6777408637873754,7.22003667651549
0.6976744186046512,7.080401152147694
0.717607973421927,6.944353264616549
0.7375415282392027,6.81266037125787
0.7574750830564785,6.686114351665159
0.7774086378737541,6.565526177641693
0.7973421926910299,6.451718736159674
0.8172757475083057,6.345517735821743
0.8372093023255814,6.247740610251115
0.8571428571428572,6.15918345525052
0.877076411960133,6.080606200235437
0.8970099667774087,6.012716410614832
0.9169435215946844,5.956152329258605
0.9368770764119602,5.91146596505767
0.9568106312292359,5.879107190757094
0.9767441860465116,5.8594098851379135
0.9966777408637875,5.852581117442499
1.0166112956810631,5.858694211564487
1.036544850498339,5.877686253038284
1.0564784053156147,5.90936024583129
1.0764119601328903,5.9533917390331945
1.0963455149501662,6.0093393835276725
1.1162790697674418,6.076658597196074
1.1362126245847177,6.154717348221339
1.1561461794019936,6.242813020391883
1.176079734219269,6.340189390223287
1.196013289036545,6.446052895245974
1.2159468438538206,6.559587570558942
1.2358803986710964,6.679968242308891
1.255813953488372,6.806371764611374
1.275747508305648,6.937986252685752
1.2956810631229239,7.074018391270092
1.3156146179401993,7.213698983035437
1.3355481727574752,7.356286951163312
1.3554817275747508,7.501072030550836
1.3754152823920267,7.647376381029567
1.3953488372093024,7.794555340725604
1.4152823920265782,7.941997514221929
1.435215946843854,8.089124363047791
1.4551495016611296,8.235389438386568
1.4750830564784054,8.380277369788649
1.495016611295681,8.523302700237414
1.514950166112957,8.66400863764853
1.5348837209302328,8.801965775863879
1.5548172757475083,8.936770824256833
1.5747508305647842,9.068045373875478
1.5946843853820598,9.195434719241543
1.6146179401993357,9.318606748115304
1.6345514950166113,9.437250906369925
1.6544850498338872,9.551077241278689
1.6744186046511629,9.659815523727275
1.6943521594684385,9.763214447895498
1.7142857142857144,9.861040905617955
1.73421926910299,9.953079331781774
1.754152823920266,10.03913111663106
1.7740863787375416,10.11901408062746
1.7940199335548175,10.19256200749209
1.8139534883720931,10.25962423116943
1.8338870431893688,10.320065272667371
1.8538205980066447,10.373764523006209
1.8737541528239203,10.420615968831612
1.893687707641196,10.460527957594532
1.9136212624584719,10.493422999563135
1.9335548172757475,10.519237604299967
1.9534883720930232,10.537922149607617
1.9734219269102993,10.549440781312937
1.993355481727575,10.553771342624321
2.0132890365448506,10.550905332157125
2.0332225913621262,10.540847890079318
2.0531561461794023,10.523617812185181
2.073089700996678,10.499247592059339
2.0930232558139537,10.467783491849218
2.1129568106312293,10.42928564252184
2.132890365448505,10.383828174842623
2.1528239202657806,10.33149938267901
2.1727574750830567,10.272401920602064
2.1926910299003324,10.206653038130964
2.212624584717608,10.134384853338984
2.2325581395348837,10.055744668906675
2.25249169435216,9.970895334064998
2.2724252491694354,9.880015656203362
2.292358803986711,9.783300866211409
2.312292358803987,9.680963141856024
2.332225913621263,9.573232193635418
2.352159468438538,9.46035591756122
2.3720930232558137,9.342601119141294
2.39202657807309,9.220254312402476
2.4119601328903655,9.093622597009286
2.431893687707641,8.963034615288047
2.4518272425249172,8.828841589105703
2.471760797342193,8.691418433896771
2.4916943521594686,8.551164943454294
2.511627906976744,8.408507034131715
2.5315614617940203,8.263898030524999
2.551495016611296,8.117819966161587
2.5714285714285716,7.970784861827164
2.5913621262458477,7.823335930528217
2.611295681063123,7.676048641376886
2.6312292358803986,7.529531554681632
2.6511627906976742,7.384426817255979
2.6710963455149503,7.241410180840688
2.691029900332226,7.1011903786026025
2.7109634551495017,6.964507666814446
2.7308970099667778,6.832131314051734
2.7508305647840534,6.704855802944413
2.770764119601329,6.583495505539682
2.7906976744186047,6.468877609831338
2.810631229235881,6.3618331198748415
2.8305647840531565,6.263185832567678
2.850498338870432,6.173739315729887
2.870431893687708,6.09426207487829
2.8903654485049834,6.025471292908597
2.910299003322259,5.96801574111387
2.9302325581395348,5.922458664952653
2.950166112956811,5.8892616094481625
2.9700996677740865,5.8687702306667076
2.990033222591362,5.861203111217218
3.0099667774086383,5.866644444297585
3.029900332225914,5.885041179940718
3.0498338870431896,5.916204870300558
3.0697674418604657,5.959818058645348
3.089700996677741,6.015444687915925
3.1096345514950166,6.082543712573657
3.129568106312292,6.1604849181080805
3.1495016611295683,6.248565898514115
3.169435215946844,6.34602920264142
3.1893687707641196,6.452078807866763
3.2093023255813957,6.565895278228352
3.2292358803986714,6.68664917872859
3.249169435215947,6.813512519470533
3.2691029900332227,6.945668173881473
3.289036544850499,7.082317345509428
3.3089700996677744,7.222685246723849
3.32890365448505,7.366025204419997
3.3488372093023258,7.511621429626293
3.3687707641196014,7.658790687643722
3.388704318936877,7.806883090372698
3.4086378737541527,7.955282208943139
3.428571428571429,8.103404677333831
3.4485049833887045,8.250699429628462
3.46843853820598,8.396646687008028
3.4883720930232562,8.54075678670918
3.508305647840532,8.682568924517462
3.5282392026578075,8.821649865005572
3.548172757475083,8.957592659496827
3.5681063122923593,9.090015400312268
3.588039867109635,9.218560030867872
3.60797342192691,9.342891224236533
3.6279069767441863,9.462695337515298
3.647840531561462,9.577679445415868
3.6677740863787376,9.68757045364622
3.6877076411960132,9.792114290640672
3.7076411960132893,9.891075174831386
3.727574750830565,9.984234953783627
3.7475083056478407,10.071392511015732
3.7674418604651168,10.152363236098067
3.787375415282392,10.226978553597498
3.807308970099668,10.29508550654934
3.8272425249169437,10.356546390352873
3.8471760797342194,10.411238433268606
3.867109634551495,10.459053520020394
3.887043189368771,10.499897955357502
3.9069767441860463,10.533692264797757
3.9269102990033224,10.560371030145232
3.9468438538205985,10.579882757749663
3.9667774086378738,10.592189777846068
3.98671096345515,10.59726817368094
4.0066445182724255,10.595107739496157
4.026578073089701,10.585711966802297
4.046511627906977,10.569098058732763
4.0664451827242525,10.5452969726286
4.086378737541528,10.51435349136366
4.106312292358805,10.476326324282157
4.1262458471760795,10.431288238987026
4.146179401993356,10.379326225588567
4.166112956810632,10.320541695398578
4.186046511627907,10.255050716434896
4.205980066445183,10.18298428848269
4.225913621262459,10.104488660836267
4.245847176079734,10.019725696213678
4.26578073089701,9.928873284682812
4.2857142857142865,9.832125811748723
4.305647840531561,9.729694685004318
4.325581395348838,9.621808923911866
4.345514950166113,9.508715817320507
4.365448504983389,9.390681653182058
4.385382059800665,9.26799252453419
4.40531561461794,9.140955215086453
4.425249169435216,9.009898166553352
4.445182724252492,8.87517252808379
4.465116279069767,8.737153285553372
4.485049833887043,8.596240464888284
4.50498338870432,8.452860398706255
4.524916943521594,8.307467039068008
4.544850498338871,8.16054329066901
4.5647840531561465,8.01260232796654
4.584717607973422,7.8641888461295
4.604651162790698,7.715880178952574
4.624584717607974,7.568287196746909
4.644518272425249,7.4220548736856635
4.664451827242526,7.277862387515752
4.6843853820598005,7.1364225859169235
4.704318936877076,6.998480624922683
4.724252491694353,6.86481155868212
4.7441860465116275,6.736216640794161
4.764119601328904,6.613518091371584
4.78405315614618,6.497552098178623
4.803986710963455,6.389159862775413
4.823920265780731,6.289176581429669
4.8438538205980075,6.198418371273704
4.863787375415282,6.117667315748351
4.883720930232559,6.047655003255338
4.9036544850498345,5.989045152859979
4.92358803986711,5.942416134151628
4.943521594684386,5.908244359971938
4.963455149501661,5.886889622838968
4.983388704318937,5.878583426376012
5.003322259136213,5.88342121496569
5.023255813953488,5.901359134025568
5.043189368770764,5.932215590682462
5.063122923588041,5.975677481549567
5.083056478405315,6.031310571485694
5.102990033222592,6.098573200609054
5.122923588039868,6.17683230515131
5.142857142857143,6.265380675354127
5.162790697674419,6.363454430655672
5.182724252491695,6.470249840870978
5.20265780730897,6.584938825022033
5.222591362126246,6.7066826802211486
5.242524916943522,6.834643801692962
5.262458471760797,6.967995331817549
5.282392026578074,7.1059288113727
5.3023255813953485,7.247659998666143
5.322259136212625,7.392433076332155
5.342192691029901,7.539523488539107
5.362126245847176,7.688239651395594
5.382059800664452,7.837923764098426
5.4019933554817285,7.987951924210957
5.421926910299003,8.137733722254918
5.44186046511628,8.286711461949277
5.4617940199335555,8.434359125115348
5.48172757475083,8.580181175717987
5.501661129568107,8.723711276276735
5.5215946843853825,8.864510972053138
5.541528239202658,9.002168383818614
5.561461794019934,9.136296938299216
5.5813953488372094,9.266534156186035
5.601328903654485,9.392540510490559
5.621262458471762,9.513998362637206
5.641196013289036,9.630610979685205
5.661129568106313,9.742101633170668
5.681063122923589,9.848212778017025
5.700996677740864,9.948705308580406
5.72093023255814,10.043357888017882
5.740863787375416,10.131966346664742
5.760797342192691,10.214343144883918
5.780730897009967,10.290316895830237
5.800664451827243,10.35973194369558
5.820598006644518,10.4224479932253
5.840531561461795,10.47833978658765
5.8604651162790695,10.527296824012902
5.880398671096346,10.56922312498014
5.900332225913622,10.604037027104537
5.920265780730897,10.63167102025936
5.940199335548173,10.652071613847838
5.960132890365449,10.665199235519568
5.980066445182724,10.671028160001002
6.0,10.669546467080892
6.0199335548172765,10.660756028159451
6.039867109634551,10.644672521135774
6.059800664451828,10.62132547377349
6.0797342192691035,10.590758336051262
6.099667774086379,10.55302858237451
6.119601328903655,10.50820784489885
6.139534883720931,10.456382079595537
6.159468438538206,10.397651767074615
6.179401993355482,10.332132150572557
6.1993355481727574,10.259953513904474
6.219269102990033,10.181261502574197
6.23920265780731,10.096217491620328
6.259136212624584,10.00499900414353
6.279069767441861,9.907800184794567
6.299003322259137,9.8048323327832
6.318936877076412,9.696324499165629
6.338870431893688,9.582524153244004
6.3588039867109645,9.46369792281293
6.378737541528239,9.340132412645637
6.398671096345516,9.212135104936749
6.418604651162791,9.08003534429288
6.438538205980066,8.944185408139235
6.458471760797343,8.804961660904372
6.4784053156146175,8.662765786827164
6.498338870431894,8.518026091422186
6.51827242524917,8.371198855213441
6.538205980066445,8.222769714923443
6.558139534883721,8.073255036470638
6.578073089700998,7.9232032304536135
6.598006644518272,7.773195943888723
6.617940199335549,7.62384904152756
6.6378737541528245,7.475813266039531
6.6578073089701,7.329774439010231
6.677740863787376,7.1864530349836295
6.6976744186046515,7.046602930434462
6.717607973421927,6.91100910152974
6.737541528239203,6.780484023201187
6.7574750830564785,6.655862513393117
6.777408637873754,6.537994777892525
6.797342192691031,6.42773745142759
6.8172757475083055,6.325942508146443
6.837209302325582,6.2334440355382155
6.857142857142858,6.15104303206153
6.877076411960133,6.0794905943153
6.897009966777409,6.019470088485777
6.9169435215946855,5.971579125905147
6.93687707641196,5.936312347538942
6.956810631229236,5.914046127096078
6.9767441860465125,5.905026292386826
6.996677740863787,5.909359820048224
7.016611295681064,5.9270111840062
7.036544850498339,5.957803663928396
7.056478405315615,6.001425499522499
7.076411960132891,6.057440373723057
7.096345514950166,6.125301382298586
7.116279069767442,6.204367441181458
7.136212624584719,6.293921012259946
7.156146179401993,6.393186083991584
7.17607973421927,6.501345495954521
7.196013289036546,6.617556907533362
7.21594684385382,6.740966941513484
7.235880398671097,6.87072325173275
7.2558139534883725,7.005984449034138
7.275747508305648,7.145927961324938
7.295681063122924,7.289756000188784
7.3156146179402,7.436699862805856
7.335548172757475,7.586022821645772
7.355481727574752,7.737021854137391
7.3754152823920265,7.889028448341563
7.395348837209303,8.04140869525333
7.415282392026579,8.193562848826073
7.435215946843854,8.344924504694287
7.45514950166113,8.494959520132621
7.475083056478406,8.643164772290797
7.495016611295681,8.789066829738951
7.514950166112956,8.932220593927473
7.5348837209302335,9.07220795210461
7.554817275747508,9.208636471188697
7.574750830564784,9.341138152640694
7.5946843853820605,9.4693682611053
7.614617940199336,9.59300423409032
7.634551495016611,9.711744675884237
7.6544850498338874,9.82530843597174
7.674418604651163,9.933433770146866
7.694352159468439,10.035877581139138
7.714285714285715,10.13241473469646
7.73421926910299,10.22283744658011
7.754152823920266,10.306954735720844
7.774086378737542,10.384591938782926
7.794019933554818,10.455590281525708
7.813953488372093,10.519806502594825
7.83388704318937,10.577112525684596
7.853820598006645,10.627395176364962
7.8737541528239205,10.67055594024306
7.893687707641197,10.70651075951902
7.913621262458472,10.735189865389968
7.9335548172757475,10.756537644150063
7.953488372093024,10.77051253522448
7.9734219269103,10.777086959761563
7.9933554817275745,10.776247278788611
8.013289036544851,10.767993780314004
8.033222591362128,10.7523406951348
8.053156146179402,10.729316241482596
8.073089700996679,10.698962699018455
8.093023255813954,10.661336513066693
8.11295681063123,10.61650843036336
8.132890365448505,10.564563667986718
8.152823920265782,10.505602117536569
8.172757475083056,10.439738587034725
8.192691029900331,10.367103083431038
8.21262458471761,10.287841139011023
8.232558139534884,10.202114185410416
8.252491694352159,10.11009997933493
8.272425249169435,10.01199308444964
8.292358803986712,9.908005414218144
8.312292358803987,9.798366840711683
8.332225913621263,9.683325874531727
8.352159468438538,9.563150420945604
8.372093023255815,9.43812861705459
8.392026578073091,9.3085697542071
8.411960132890366,9.174805288819236
8.43189368770764,9.03718994312259
8.451827242524917,8.89610289493488
8.471760797342194,8.751949052110067
8.491694352159469,8.605160402583913
8.511627906976745,8.456197424547653
8.53156146179402,8.305550532861542
8.551495016611296,8.153741526920465
8.571428571428573,8.001324991342992
8.591362126245848,7.848889583632314
8.611295681063122,7.697059122004152
8.6312292358804,7.546493361754349
8.651162790697676,7.3978883200817425
8.67109634551495,7.251975978021032
8.691029900332227,7.109523155788531
8.710963455149502,6.97132932732004
8.730897009966778,6.838223115518048
8.750830564784053,6.711057197898591
8.77076411960133,6.59070136080605
8.790697674418604,6.4780334782449085
8.81063122923588,6.373928267846077
8.830564784053157,6.279243798853782
8.850498338870432,6.194805897958803
8.870431893687707,6.121390813114839
8.890365448504983,6.059706737210841
8.91029900332226,6.010375034643798
8.930232558139535,5.973912216111746
8.950166112956811,5.950713827282542
8.970099667774086,5.941041416989791
8.990033222591363,5.945013607616676
9.00996677740864,5.962602006862695
9.029900332225914,5.9936323075882045
9.049833887043189,6.037790476928308
9.069767441860467,6.094633505884946
9.089700996677742,6.16360384094101
9.109634551495017,6.244046395981316
9.129568106312293,6.335226964471331
9.14950166112957,6.43635090883648
9.169435215946844,6.54658116532285
9.189368770764121,6.665054826588779
9.209302325581396,6.790897809080548
9.22923588039867,6.923237343807447
9.249169435215949,7.061212224891868
9.269102990033224,7.203980899379145
9.289036544850498,7.350727582948112
9.308970099667773,7.500666644451094
9.328903654485051,7.653045526029098
9.348837209302326,7.807146464181458
9.368770764119601,7.962287259225306
9.388704318936878,8.11782131316806
9.408637873754152,8.273137124498513
9.428571428571429,8.42765739649088
9.448504983388705,8.580837885647812
9.46843853820598,8.732166090164283
9.488372093023255,8.881159855312246
9.508305647840533,9.02736595347475
9.528239202657808,9.170358680953575
9.548172757475083,9.309738501242101
9.56810631229236,9.445130754740827
9.588039867109636,9.576184447444469
9.60797342192691,9.702571125528674
9.627906976744187,9.823983838639954
9.647840531561462,9.940136191732785
9.667774086378738,10.050761483239691
9.687707641196015,10.15561192599304
9.70764119601329,10.25445794647175
9.727574750830565,10.347087557488052
9.747508305647841,10.433305799255209
9.767441860465118,10.512934243807555
9.787375415282392,10.585810557917936
9.807308970099669,10.651788119929469
9.827242524916944,10.710735686255141
9.84717607973422,10.762537103675484
9.867109634551497,10.807091063963709
9.887043189368772,10.844310897778213
9.906976744186046,10.874124405174902
9.926910299003321,10.896473720502906
9.9468438538206,10.911315209853223
9.966777408637874,10.918619399630328
9.986710963455149,10.918370935211842
10.006644518272426,10.910568569052176
10.026578073089702,10.895225177974428
10.046511627906977,10.87236780978278
10.066445182724253,10.842037759717224
10.086378737541528,10.804290677666762
10.106312292358805,10.75919670745699
10.126245847176081,10.706840659936315
10.146179401993356,10.647322222002002
10.16611295681063,10.580756204133305
10.186046511627907,10.507272829432964
10.205980066445184,10.427018067617357
10.225913621262459,10.340154017833282
10.245847176079735,10.246859344607978
10.26578073089701,10.147329771643705
10.285714285714286,10.041778638530488
10.305647840531563,9.930437525741947
10.325581395348838,9.813556953462415
10.345514950166113,9.691407159816736
10.36544850498339,9.564278963868725
10.385382059800666,9.432484718229386
10.40531561461794,9.296359355154278
10.425249169435217,9.156261528457309
10.445182724252492,9.012574851233946
10.465116279069768,8.865709226027366
10.485049833887045,8.716102259389542
10.50498338870432,8.564220746426294
10.524916943521594,8.410562202452631
10.544850498338871,8.255656407846839
10.564784053156147,8.100066918071645
10.584717607973422,7.944392473130375
10.604651162790697,7.789268219024748
10.624584717607974,7.635366627858288
10.64451827242525,7.483397973228522
10.664451827242525,7.334110184220217
10.684385382059801,7.188287866306251
10.704318936877076,7.04675024370166
10.724252491694353,6.910347749743988
10.74418604651163,6.779956976132892
10.764119601328904,6.656473696719694
10.784053156146179,6.5408037168563835
10.803986710963457,6.433851375308214
10.823920265780732,6.3365056509230575
10.843853820598007,6.2496240044723885
10.863787375415283,6.174014312901919
10.88372093023256,6.110415512617491
10.903654485049834,6.059477831007429
