Frequency (Hz),Amplitude
0.0,0.7114211530539549
0.01993355481727575,0.7110867912521661
0.0398671096345515,0.7100841257272978
0.059800664451827246,0.7084144165040307
0.079734219269103,0.70607976491695
0.09966777408637874,0.7030831156041256
0.11960132890365449,0.6994282594082234
0.13953488372093023,0.6951198372980618
0.159468438538206,0.6901633454628855
0.17940199335548174,0.6845651417745545
0.19933554817275748,0.6783324538618344
0.21926910299003324,0.6714733890996022
0.23920265780730898,0.6639969468822766
0.25913621262458475,0.6559130336324842
0.27906976744186046,0.6472324810921679
0.29900332225913623,0.6379670685601301
0.318936877076412,0.6281295498837414
0.3388704318936877,0.6177336861851855
0.3588039867109635,0.606794285517893
0.37873754152823924,0.5953272509140441
0.39867109634551495,0.5833496386117472
0.4186046511627907,0.5708797286604665
0.4385382059800665,0.557937110615343
0.4584717607973422,0.5445427876708921
0.47840531561461797,0.5307193033925505
0.49833887043189373,0.5164908962176757
0.5182724252491695,0.5018836881771411
0.5382059800664452,0.4869259158998148
0.5581395348837209,0.47164821398782675
0.5780730897009968,0.4560839633870847
0.5980066445182725,0.44026972052863766
0.6179401993355482,0.4242457468794233
0.637873754152824,0.4080566631778654
0.6578073089700996,0.3917522579960541
0.6777408637873754,0.3753884861025504
0.6976744186046512,0.3590286976706547
0.717607973421927,0.3427451431077307
0.7375415282392027,0.3266207970262375
0.7574750830564785,0.3107515328205572
0.7774086378737541,0.29524864629759645
0.7973421926910299,0.2802416562589503
0.8172757475083057,0.26588117723577487
0.8372093023255814,0.25234143364194883
0.8571428571428572,0.2398216390352681
0.877076411960133,0.2285450092303619
0.8970099667774087,0.21875372481336805
0.9169435215946844,0.21069800456822496
0.9368770764119602,0.2046181049901441
0.9568106312292359,0.20072002264776634
0.9767441860465116,0.19914883062113423
0.9966777408637875,0.19996653719886387
1.0166112956810631,0.20314177267054204
1.036544850498339,0.2085551275013824
1.0564784053156147,0.21601812641971196
1.0764119601328903,0.22529925047521893
1.0963455149501662,0.2361495953133641
1.1162790697674418,0.24832314258701665
1.1362126245847177,0.261589931128261
1.1561461794019936,0.27574282913780757
1.176079734219269,0.29059964784853853
1.196013289036545,0.3060023835411774
1.2159468438538206,0.32181497603118325
1.2358803986710964,0.33792049838017274
1.255813953488372,0.3542183073132478
1.275747508305648,0.3706214211035369
1.2956810631229239,0.38705423221538315
1.3156146179401993,0.4034505743016331
1.3355481727574752,0.41975212006992857
1.3554817275747508,0.4359070689972261
1.3754152823920267,0.4518690798780379
1.3953488372093024,0.4675964057186895
1.4152823920265782,0.48305119367183136
1.435215946843854,0.4981989185474191
1.4551495016611296,0.5130079239867744
1.4750830564784054,0.52744905026399
1.495016611295681,0.5414953317836765
1.514950166112957,0.5551217507121196
1.5348837209302328,0.5683050358999359
1.5548172757475083,0.5810234984327663
1.5747508305647842,0.5932568968805341
1.5946843853820598,0.604986326693762
1.6146179401993357,0.6161941292873466
1.6345514950166113,0.6268638172207323
1.6544850498338872,0.6369800125732089
1.6744186046511629,0.6465283961624904
1.6943521594684385,0.6554956656958207
1.7142857142857144,0.6638695012933108
1.73421926910299,0.6716385371092819
1.754152823920266,0.6787923380049389
1.7740863787375416,0.6853213804130002
1.7940199335548175,0.6912170366862529
1.8139534883720931,0.6964715623469744
1.8338870431893688,0.7010780857565976
1.8538205980066447,0.7050305998106711
1.8737541528239203,0.7083239553357339
1.893687707641196,0.710953855925086
1.9136212624584719,0.7129168540025215
1.9335548172757475,0.7142103479480102
1.9534883720930232,0.7148325801588786
1.9734219269102993,0.7147826359562716
1.993355481727575,0.7140604432792832
2.0132890365448506,0.7126667731408535
2.0332225913621262,0.7106032408498557
2.0531561461794023,0.7078723080346675
2.073089700996678,0.7044772855352844
2.0930232558139537,0.7004223372648902
2.1129568106312293,0.6957124851790464
2.132890365448505,0.6903536155318294
2.1528239202657806,0.6843524866457572
2.1727574750830567,0.677716738476839
2.1926910299003324,0.670454904320256
2.212624584717608,0.6625764250786319
2.2325581395348837,0.654091666605691
2.25249169435216,0.6450119407486471
2.2724252491694354,0.6353495308460555
2.292358803986711,0.6251177226020119
2.312292358803987,0.6143308414581673
2.332225913621263,0.6030042978334965
2.352159468438538,0.5911546419098381
2.3720930232558137,0.5787996300242093
2.39202657807309,0.5659583052087163
2.4119601328903655,0.5526510950191447
2.431893687707641,0.5388999305495561
2.4518272425249172,0.5247283914823546
2.471760797342193,0.5101618832256255
2.4916943521594686,0.49522785370780115
2.511627906976744,0.4799560593160474
2.5315614617940203,0.46437889187397685
2.551495016611296,0.4485317815695734
2.5714285714285716,0.4324536944761145
2.5913621262458477,0.41618774785262386
2.611295681063123,0.39978197179213587
2.6312292358803986,0.38329025185994664
2.6511627906976742,0.3667734936373796
2.6710963455149503,0.3503010553653637
2.691029900332226,0.33395249668711674
2.7109634551495017,0.3178196850526606
2.7308970099667778,0.3020092780679412
2.7508305647840534,0.2866455453725484
2.770764119601329,0.27187338472159994
2.7906976744186047,0.2578611924040124
2.810631229235881,0.24480293437937384
2.8305647840531565,0.2329183195618264
2.850498338870432,0.22244946522670214
2.870431893687708,0.21365209763064819
2.8903654485049834,0.20677961862956987
2.910299003322259,0.2020598930011164
2.9302325581395348,0.19966759906688009
2.950166112956811,0.19969848844639917
2.9700996677740865,0.2021535982255166
2.990033222591362,0.2069391882060675
3.0099667774086383,0.21388241661665747
3.029900332225914,0.22275700259239078
3.0498338870431896,0.23331083968745728
3.0697674418604657,0.24528920917493588
3.089700996677741,0.25845073825944664
3.1096345514950166,0.27257623583000173
3.129568106312292,0.2874720655702136
3.1495016611295683,0.30297000793249956
3.169435215946844,0.31892521873776536
3.1893687707641196,0.3352133826309811
3.2093023255813957,0.3517277156103985
3.2292358803986714,0.3683761574258708
3.249169435215947,0.38507890010770895
3.2691029900332227,0.4017662898551539
3.289036544850499,0.4183770846559015
3.3089700996677744,0.4348570265776278
3.32890365448505,0.4511576811111352
3.3488372093023258,0.4672354976511226
3.3687707641196014,0.48305105040549795
3.388704318936877,0.4985684252415872
3.4086378737541527,0.5137547240117208
3.428571428571429,0.5285796632524911
3.4485049833887045,0.543015248674091
3.46843853820598,0.5570355105728174
3.4883720930232562,0.5706162883029458
3.508305647840532,0.5837350543456221
3.5282392026578075,0.5963707704222815
3.548172757475083,0.6085037696135551
3.5681063122923593,0.6201156596438224
3.588039867109635,0.6311892434411615
3.60797342192691,0.6417084538363304
3.6279069767441863,0.6516582998637082
3.647840531561462,0.6610248226054593
3.6677740863787376,0.6697950589023335
3.6877076411960132,0.6779570115621816
3.7076411960132893,0.6854996249446772
3.727574750830565,0.6924127650014449
3.7475083056478407,0.698687203014219
3.7674418604651168,0.704314602406988
3.787375415282392,0.709287508118125
3.807308970099668,0.7135993381095058
3.8272425249169437,0.7172443766655846
3.8471760797342194,0.7202177691996446
3.867109634551495,0.7225155183385591
3.887043189368771,0.724134481105043
3.9069767441860463,0.7250723670573203
3.9269102990033224,0.725327737283171
3.9468438538205985,0.7249000041792591
3.9667774086378738,0.7237894319781079
3.98671096345515,0.7219971380159934
4.0066445182724255,0.7195250947652897
4.026578073089701,0.7163761326860872
4.046511627906977,0.7125539439848545
4.0664451827242525,0.7080630874037442
4.086378737541528,0.7029089942036182
4.106312292358805,0.6970979755490263
4.1262458471760795,0.6906372315550365
4.146179401993356,0.6835348623164834
4.166112956810632,0.6757998813119257
4.186046511627907,0.6674422316602479
4.205980066445183,0.6584728058112063
4.225913621262459,0.6489034693764991
4.245847176079734,0.6387470899611891
4.26578073089701,0.6280175720433302
4.2857142857142865,0.6167298991818211
4.305647840531561,0.6049001851206552
4.325581395348838,0.5925457357164878
4.345514950166113,0.5796851240648991
4.365448504983389,0.5663382817645365
4.385382059800665,0.5525266099671612
4.40531561461794,0.5382731147581162
4.425249169435216,0.5236025725455299
4.445182724252492,0.5085417325744386
4.465116279069767,0.49311956550472463
4.485049833887043,0.4773675692996059
4.50498338870432,0.46132014658347753
4.524916943521594,0.44501507127606377
4.544850498338871,0.4284940668274591
4.5647840531561465,0.4118035238613868
4.584717607973422,0.39499539147161206
4.604651162790698,0.3781282835425686
4.624584717607974,0.36126884848542623
4.644518272425249,0.3444934558710289
4.664451827242526,0.32789025287560963
4.6843853820598005,0.3115616301702451
4.704318936877076,0.29562709830960116
4.724252491694353,0.28022649094801594
4.7441860465116275,0.26552324893709567
4.764119601328904,0.25170725964223056
4.78405315614618,0.23899629554982751
4.803986710963455,0.2276345334672573
4.823920265780731,0.21788609819786675
4.8438538205980075,0.21002147287901562
4.863787375415282,0.2042956242852536
4.883720930232559,0.20091937952640282
4.9036544850498345,0.20002956636781194
4.92358803986711,0.20166658342236365
4.943521594684386,0.2057674488979359
4.963455149501661,0.21217704345902794
4.983388704318937,0.22067316183803043
5.003322259136213,0.23099671251854953
5.023255813953488,0.24287895385116953
5.043189368770764,0.2560612888336511
5.063122923588041,0.27030691214870045
5.083056478405315,0.28540584554761467
5.102990033222592,0.30117555737805746
5.122923588039868,0.31745909928977084
5.142857142857143,0.3341221260275684
5.162790697674419,0.35104962999133493
5.182724252491695,0.3681428328047432
5.20265780730897,0.38531643048943687
5.222591362126246,0.4024962498003746
5.242524916943522,0.4196173026293399
5.262458471760797,0.43662219460772733
5.282392026578074,0.45345983470669066
5.3023255813953485,0.47008439383727835
5.322259136212625,0.486454466155041
5.342192691029901,0.5025323938381072
5.362126245847176,0.5182837230291011
5.382059800664452,0.5336767647804361
5.4019933554817285,0.5486822400337068
5.421926910299003,0.5632729919172291
5.44186046511628,0.5774237520722316
5.4617940199335555,0.5911109504471921
5.48172757475083,0.6043125601618451
5.501661129568107,0.6170079707493239
5.5215946843853825,0.6291778844315926
5.541528239202658,0.6408042311462219
5.561461794019934,0.6518700988827371
5.5813953488372094,0.6623596765529414
5.601328903654485,0.672258207148585
5.621262458471762,0.6815519493618613
5.641196013289036,0.6902281461821748
5.661129568106313,0.6982749992537938
5.681063122923589,0.7056816479985732
5.700996677740864,0.712438152685416
5.72093023255814,0.7185354807731044
5.740863787375416,0.7239654959721287
5.760797342192691,0.7287209495689125
5.780730897009967,0.7327954736378803
5.800664451827243,0.7361835758344639
5.820598006644518,0.738880635520758
5.840531561461795,0.740882901024942
5.8604651162790695,0.7421874878786762
5.880398671096346,0.7427923779155636
5.900332225913622,0.7426964191480604
5.920265780730897,0.741899326372662
5.940199335548173,0.7404016824841588
5.960132890365449,0.7382049405096983
5.980066445182724,0.7353114264043469
6.0,0.7317243426817259
6.0199335548172765,0.7274477729878072
6.039867109634551,0.7224866877635028
6.059800664451828,0.7168469511848656
6.0797342192691035,0.7105353296179743
6.099667774086379,0.703559501882639
6.119601328903655,0.6959280716865577
6.139534883720931,0.6876505826706282
6.159468438538206,0.67873753660347
6.179401993355482,0.6692004153787087
6.1993355481727574,0.6590517076117234
6.219269102990033,0.6483049408068391
6.23920265780731,0.6369747202817151
6.259136212624584,0.6250767763033637
6.279069767441861,0.6126280212233766
6.299003322259137,0.5996466188177844
6.318936877076412,0.5861520685610877
6.338870431893688,0.5721653082265766
6.3588039867109645,0.5577088390426685
6.378737541528239,0.5428068786994648
6.398671096345516,0.5274855488542206
6.418604651162791,0.5117731055108562
6.438538205980066,0.49570022285005216
6.458471760797343,0.4793003438892983
6.4784053156146175,0.4626101149070068
6.498338870431894,0.4456699250406044
6.51827242524917,0.4285245780306185
6.538205980066445,0.4112241298468147
6.558139534883721,0.3938249338584872
6.578073089700998,0.3763909438957512
6.598006644518272,0.35899533382899823
6.617940199335549,0.3417224975175242
6.6378737541528245,0.32467048973384316
6.6578073089701,0.3079539466957857
6.677740863787376,0.2917074659364026
6.6976744186046515,0.2760892995820483
6.717607973421927,0.26128497920563243
6.737541528239203,0.24751009363802953
6.7574750830564785,0.2350108559307467
6.777408637873754,0.22406039521198767
6.797342192691031,0.21494820299519884
6.8172757475083055,0.2079605194988043
6.837209302325582,0.20335154158348698
6.857142857142858,0.20130947721683112
6.877076411960133,0.20192616149536427
6.897009966777409,0.20518071252588743
6.9169435215946855,0.21094371856275376
6.93687707641196,0.2190002032543068
6.956810631229236,0.22908257356009504
6.9767441860465125,0.24090320465723514
6.996677740863787,0.25417971497802533
7.016611295681064,0.26865077056087217
7.036544850498339,0.2840836196295715
7.056478405315615,0.3002758571561518
7.076411960132891,0.3170538296168105
7.096345514950166,0.33426945287801696
7.116279069767442,0.35179654650849623
7.136212624584719,0.3695272807426786
7.156146179401993,0.38736900747811864
7.17607973421927,0.4052415616948623
7.196013289036546,0.4230750253844854
7.21594684385382,0.4408079046965022
7.235880398671097,0.45838565798103265
7.2558139534883725,0.4757595132282367
7.275747508305648,0.4928855201097795
7.295681063122924,0.5097237903175854
7.3156146179402,0.5262378882316786
7.335548172757475,0.5423943413315887
7.355481727574752,0.5581622459668125
7.3754152823920265,0.5735129491546154
7.395348837209303,0.5884197911179331
7.415282392026579,0.6028578964793642
7.435215946843854,0.6168040045494156
7.45514950166113,0.6302363311271881
7.475083056478406,0.643134455785295
7.495016611295681,0.6554792298306279
7.514950166112956,0.6672527010921392
7.5348837209302335,0.6784380524431679
7.554817275747508,0.6890195515649316
7.574750830564784,0.6989825099325254
7.5946843853820605,0.7083132493839676
7.614617940199336,0.716999074935619
7.634551495016611,0.7250282527513932
7.6544850498338874,0.7323899923696533
7.674418604651163,0.7390744324519065
7.694352159468439,0.7450726294476415
7.714285714285715,0.7503765486771082
7.73421926910299,0.7549790574223632
7.754152823920266,0.7588739196911464
7.774086378737542,0.7620557923802828
7.794019933554818,0.7645202226186067
7.813953488372093,0.7662636461151321
7.83388704318937,0.7672833863786329
7.853820598006645,0.7675776547108534
7.8737541528239205,0.7671455509088082
7.893687707641197,0.7659870646426848
7.913621262458472,0.7641030775062806
7.9335548172757475,0.7614953657672165
7.953488372093024,0.7581666038751462
7.9734219269103,0.7541203688195367
7.9933554817275745,0.7493611454645662
8.013289036544851,0.7438943330288724
8.033222591362128,0.7377262529238948
8.053156146179402,0.7308641582175469
8.073089700996679,0.7233162450522038
8.093023255813954,0.7150916664202757
8.11295681063123,0.7062005487893932
8.132890365448505,0.6966540121767386
8.152823920265782,0.6864641944033215
8.172757475083056,0.6756442804197279
8.192691029900331,0.6642085377931375
8.21262458471761,0.6521723596918088
8.232558139534884,0.6395523170098084
8.252491694352159,0.6263662216591201
8.272425249169435,0.6126332035400661
8.292358803986712,0.5983738043116523
8.312292358803987,0.583610091859402
8.332225913621263,0.568365800344712
8.352159468438538,0.5526665019821229
8.372093023255815,0.5365398183053338
8.392026578073091,0.5200156807564305
8.411960132890366,0.5031266530937484
8.43189368770764,0.4859083315260206
8.451827242524917,0.46839984284025177
8.471760797342194,0.4506444663199225
8.491694352159469,0.43269041217022164
8.511627906976745,0.4145917976375514
8.53156146179402,0.39640987198201605
8.551495016611296,0.37821455239416846
8.571428571428573,0.3600863432416326
8.591362126245848,0.3421187169923729
8.611295681063122,0.32442102914865417
8.6312292358804,0.3071220069123535
8.651162790697676,0.2903737660159935
8.67109634551495,0.27435612962383177
8.691029900332227,0.25928068686751093
8.710963455149502,0.2453934719041514
8.730897009966778,0.23297435378716339
8.750830564784053,0.22233037001489508
8.77076411960133,0.21377985964972449
8.790697674418604,0.20762537853406943
8.81063122923588,0.2041170413732058
8.830564784053157,0.2034137610592771
8.850498338870432,0.20555464133850704
8.870431893687707,0.21045177805402462
8.890365448504983,0.21790752465045413
8.91029900332226,0.2276489226369007
8.930232558139535,0.23936669173485614
8.950166112956811,0.2527481868766522
8.970099667774086,0.26749951919457793
8.990033222591363,0.28335711238069383
9.00996677740864,0.30009143740759586
9.029900332225914,0.31750599706249444
9.049833887043189,0.33543395507638724
9.069767441860467,0.35373394420500387
9.089700996677742,0.3722858982343054
9.109634551495017,0.39098730150409244
9.129568106312293,0.409749990427975
9.14950166112957,0.4284975090192931
9.169435215946844,0.4471629619781142
9.189368770764121,0.4656872898958544
9.209302325581396,0.48401789125942807
9.22923588039867,0.5021075241161701
9.249169435215949,0.5199134308759418
9.269102990033224,0.5373966401618652
9.289036544850498,0.55452140881994
9.308970099667773,0.5712547748737439
9.328903654485051,0.5875661984188968
9.348837209302326,0.6034272723850768
9.368770764119601,0.6188114889709745
9.388704318936878,0.6336940505889118
9.408637873754152,0.6480517165193082
9.428571428571429,0.6618626783168583
9.448504983388705,0.6751064584476981
9.46843853820598,0.6877638277600617
9.488372093023255,0.6998167382721461
9.508305647840533,0.7112482684536919
9.528239202657808,0.7220425787254117
9.548172757475083,0.7321848753342782
9.56810631229236,0.7416613811084286
9.588039867109636,0.7504593118719218
9.60797342192691,0.7585668575222708
9.627906976744187,0.7659731669529026
9.647840531561462,0.7726683361493246
9.667774086378738,0.7786433989065883
9.687707641196015,0.7838903197144235
9.70764119601329,0.7884019884376576
9.727574750830565,0.7921722164876963
9.747508305647841,0.7951957342388896
9.767441860465118,0.797468189492617
9.787375415282392,0.7989861468352493
9.807308970099669,0.79974708777422
9.827242524916944,0.7997494115705973
9.84717607973422,0.7989924367193718
9.867109634551497,0.7974764030583206
9.887043189368772,0.7952024745174194
9.906976744186046,0.7921727425506161
9.926910299003321,0.7883902303243502
9.9468438538206,0.7838588977713513
9.966777408637874,0.7785836476566119
9.986710963455149,0.7725703328451305
10.006644518272426,0.7658257650105947
10.026578073089702,0.7583577250819095
10.046511627906977,0.7501749757927143
10.066445182724253,0.7412872767805196
10.086378737541528,0.7317054027810794
10.106312292358805,0.7214411655827853
10.126245847176081,0.7105074405535415
10.146179401993356,0.6989181987328681
10.16611295681063,0.6866885457064559
10.186046511627907,0.6738347687602918
10.205980066445184,0.660374394161319
10.225913621262459,0.6463262568525121
10.245847176079735,0.631710585408127
10.26578073089701,0.6165491058028107
10.285714285714286,0.6008651684527018
10.305647840531563,0.5846839041439831
10.325581395348838,0.5680324159533632
10.345514950166113,0.5509400161839885
10.36544850498339,0.5334385198205768
10.385382059800666,0.5155626092154217
10.40531561461794,0.4973502888629863
10.425249169435217,0.47884345446236876
10.445182724252492,0.4600886073009459
10.465116279069768,0.44113775362481455
10.485049833887045,0.4220495393267976
10.50498338870432,0.402890682956167
10.524916943521594,0.3837377840633985
10.544850498338871,0.36467959714446113
10.564784053156147,0.3458198689504431
10.584717607973422,0.32728082815481124
10.604651162790697,0.3092073708398198
