Frequency (Hz),Amplitude
0.0,0.7197014759399352
0.01978021978021978,0.7196011799386393
0.03956043956043956,0.7193005356754812
0.05934065934065934,0.7188002743719645
0.07912087912087912,0.7181016147255577
0.0989010989010989,0.7172062628921676
0.11868131868131868,0.7161164124413102
0.13846153846153844,0.7148347442635027
0.15824175824175823,0.713364426402947
0.17802197802197803,0.7117091137816547
0.1978021978021978,0.7098729477742398
0.21758241758241756,0.7078605555844945
0.23736263736263735,0.7056770493668456
0.2571428571428572,0.703328025026488
0.2769230769230769,0.7008195606224358
0.2967032967032967,0.6981582142870152
0.31648351648351647,0.6953510215644724
0.3362637362637363,0.6924054920587251
0.35604395604395606,0.6893296052681427
0.3758241758241758,0.6861318054713024
0.3956043956043956,0.6828209955140923
0.4153846153846154,0.6794065293338306
0.4351648351648351,0.6758982030417755
0.45494505494505494,0.6723062443709674
0.4747252747252747,0.6686413002825049
0.4945054945054945,0.6649144225104971
0.5142857142857143,0.6611370508147784
0.5340659340659341,0.6573209937013607
0.5538461538461538,0.6534784063648499
0.5736263736263736,0.6496217656048473
0.5934065934065934,0.6457638414715063
0.6131868131868132,0.6419176654042812
0.6329670329670329,0.6380964946439892
0.6527472527472528,0.634313772722804
0.6725274725274726,0.6305830858702889
0.6923076923076923,0.6269181152179725
0.7120879120879121,0.6233325847399765
0.7318681318681318,0.6198402049342363
0.7516483516483516,0.616454612327635
0.7714285714285715,0.6131893049786373
0.7912087912087912,0.610057574251725
0.810989010989011,0.6070724332478943
0.8307692307692308,0.6042465423916948
0.8505494505494506,0.6015921327953595
0.8703296703296702,0.5991209281399087
0.8901098901098901,0.5968440659279921
0.9098901098901099,0.5947720190676252
0.9296703296703297,0.5929145188354253
0.9494505494505494,0.5912804803364473
0.9692307692307692,0.5898779316202277
0.989010989010989,0.5887139476248807
1.0087912087912088,0.5877945900995706
1.0285714285714287,0.587124854598087
1.0483516483516484,0.5867086255423565
1.0681318681318681,0.5865486402262293
1.087912087912088,0.5866464624694877
1.1076923076923075,0.5870024664450575
1.1274725274725275,0.5876158309960728
1.1472527472527472,0.588484544540543
1.1670329670329669,0.589605420439708
1.1868131868131868,0.5909741224894024
1.2065934065934065,0.5925851999912192
1.2263736263736265,0.5944321316791102
1.2461538461538462,0.596507377623532
1.2659340659340659,0.5988024381139638
1.2857142857142858,0.6013079184348541
1.3054945054945055,0.6040135983995268
1.3252747252747252,0.6069085054922477
1.3450549450549452,0.6099809904858156
1.3648351648351649,0.6132188044493314
1.3846153846153846,0.6166091761318538
1.4043956043956045,0.6201388887980994
1.4241758241758242,0.6237943556967053
1.443956043956044,0.6275616934547299
1.4637362637362636,0.6314267928086853
1.4835164835164834,0.6353753861988933
1.5032967032967033,0.6393931118660704
1.523076923076923,0.6434655741941692
1.542857142857143,0.6475784001399227
1.5626373626373626,0.6517172916748127
1.5824175824175823,0.6558680742398161
1.6021978021978023,0.660016741276204
1.621978021978022,0.6641494949470933
1.6417582417582417,0.6682527832058891
1.6615384615384616,0.6723133333984939
1.6813186813186813,0.6763181826089119
1.7010989010989013,0.6802547049722889
1.720879120879121,0.6841106361872282
1.7406593406593405,0.6878740954618593
1.7604395604395604,0.6915336051256469
1.7802197802197801,0.6950781081331153
1.7999999999999998,0.6984969836771526
1.8197802197802198,0.7017800611185514
1.8395604395604395,0.7049176324266802
1.8593406593406594,0.7079004633128918
1.879120879120879,0.7107198032250241
1.8989010989010988,0.7133673943576424
1.9186813186813187,0.7158354798195711
1.9384615384615385,0.7181168110870164
1.9582417582417584,0.720204654858471
1.978021978021978,0.7220927994156829
1.9978021978021978,0.7237755605837674
2.0175824175824175,0.7252477873735838
2.0373626373626372,0.7265048673793596
2.0571428571428574,0.7275427319961019
2.076923076923077,0.728357861512514
2.096703296703297,0.7289472901277173
2.1164835164835165,0.7293086109327809
2.1362637362637362,0.7294399808908563
2.1560439560439564,0.72934012584364
2.175824175824176,0.7290083455650431
2.195604395604396,0.7284445188768971
2.215384615384615,0.7276491088351711
2.2351648351648348,0.7266231679885129
2.254945054945055,0.7253683437042157
2.2747252747252746,0.7238868835494932
2.2945054945054943,0.7221816407077705
2.314285714285714,0.7202560794014964
2.3340659340659338,0.7181142802829166
2.353846153846154,0.7157609457438578
2.3736263736263736,0.7132014050834161
2.3934065934065933,0.7104416194589637
2.413186813186813,0.7074881865306878
2.4329670329670328,0.7043483446928339
2.452747252747253,0.7010299767657385
2.4725274725274726,0.6975416130014157
2.4923076923076923,0.6938924332318517
2.512087912087912,0.6900922679630798
2.5318681318681318,0.6861515981899449
2.5516483516483515,0.6820815536751413
2.5714285714285716,0.677893909403792
2.5912087912087913,0.673601079889453
2.610989010989011,0.6692161109717109
2.6307692307692307,0.6647526687083657
2.6505494505494505,0.6602250249291809
2.6703296703296706,0.6556480389826812
2.6901098901098903,0.6510371351766226
2.70989010989011,0.6464082753853846
2.7296703296703297,0.6417779262793283
2.7494505494505495,0.6371630206217304
2.769230769230769,0.6325809120840914
2.7890109890109893,0.6280493230513159
2.808791208791209,0.6235862849305052
2.8285714285714287,0.6192100705420027
2.8483516483516484,0.6149391182647597
2.8681318681318677,0.6107919477307053
2.887912087912088,0.6067870670187246
2.9076923076923076,0.6029428714872406
2.9274725274725273,0.5992775346061658
2.947252747252747,0.5958088913997108
2.9670329670329667,0.5925543153875039
2.986813186813187,0.5895305902039389
3.0065934065934066,0.5867537773743371
3.0263736263736263,0.5842390820181818
3.046153846153846,0.5820007185194107
3.0659340659340657,0.5800517784339095
3.085714285714286,0.5784041030793275
3.1054945054945056,0.5770681633539417
3.1252747252747253,0.5760529493480707
3.145054945054945,0.575365872231248
3.1648351648351647,0.5750126807178946
3.184615384615385,0.5749973941336959
3.2043956043956046,0.5753222537331034
3.2241758241758243,0.5759876934686101
3.243956043956044,0.576992330906266
3.2637362637362637,0.5783329784422612
3.2835164835164834,0.5800046744307187
3.3032967032967036,0.5820007333090552
3.3230769230769233,0.5843128133316453
3.342857142857143,0.5869310001150229
3.3626373626373627,0.589843903876991
3.3824175824175824,0.5930387680260324
3.4021978021978025,0.5965015866320446
3.4219780219780223,0.600217228280571
3.441758241758242,0.6041695638730238
3.4615384615384617,0.6083415960726681
3.481318681318681,0.6127155882951769
3.501098901098901,0.6172731913864544
3.520879120879121,0.6219955664035728
3.5406593406593405,0.6268635022002608
3.5604395604395602,0.6318575268042035
3.58021978021978,0.6369580118466184
3.5999999999999996,0.6421452695578658
3.61978021978022,0.6473996420695681
3.6395604395604395,0.6527015829598112
3.659340659340659,0.6580317311432571
3.679120879120879,0.6633709773409886
3.6989010989010986,0.6687005234686554
3.718681318681319,0.6740019353577458
3.7384615384615385,0.6792571892765517
3.758241758241758,0.6844487127484168
3.7780219780219784,0.6895594201784669
3.7978021978021976,0.6945727437992631
3.8175824175824173,0.6994726604339636
3.8373626373626375,0.704243714555609
3.8571428571428568,0.7088710380949544
3.876923076923077,0.7133403674190619
3.896703296703296,0.7176380578708597
3.916483516483517,0.7217510962265334
3.936263736263736,0.7256671113943405
3.956043956043956,0.7293743836466663
3.9758241758241755,0.7328618526464087
3.9956043956043956,0.7361191244996481
4.015384615384615,0.7391364780409859
4.035164835164835,0.7419048705322749
4.054945054945055,0.7444159429349906
4.0747252747252745,0.7466620248953953
4.094505494505494,0.7486361395650761
4.114285714285715,0.7503320083634385
4.134065934065934,0.751744055775143
4.153846153846154,0.7528674142637486
4.173626373626373,0.7536979293720876
4.193406593406594,0.7542321650710148
4.213186813186813,0.754467409410005
4.232967032967033,0.754401680516152
4.252747252747253,0.7540337329813814
4.2725274725274724,0.7533630646720447
4.292307692307692,0.7523899239892881
4.312087912087913,0.7511153176026282
4.331868131868132,0.7495410186735956
4.351648351648352,0.7476695755795153
4.371428571428571,0.7455043211404678
4.391208791208792,0.7430493823436654
4.410989010989011,0.7403096905501662
4.43076923076923,0.737290992156301
4.450549450549451,0.7339998596686818
4.4703296703296695,0.7304437031344981
4.49010989010989,0.7266307818483053
4.50989010989011,0.7225702162328259
4.52967032967033,0.718271999762103
4.549450549450549,0.7137470107616685
4.569230769230769,0.7090070238805357
4.589010989010989,0.704064720983195
4.608791208791209,0.6989337011564906
4.628571428571428,0.6936284894641433
4.648351648351649,0.6881645440120806
4.6681318681318675,0.6825582608087597
4.687912087912088,0.6768269758174993
4.707692307692308,0.6709889635019306
4.7274725274725276,0.6650634310628831
4.747252747252747,0.6590705074561893
4.767032967032967,0.6530312261696324
4.786813186813187,0.6469675006263893
4.806593406593407,0.640902090977823
4.826373626373626,0.6348585609567312
4.846153846153847,0.6288612233913733
4.8659340659340655,0.6229350729420823
4.885714285714286,0.6171057046263991
4.905494505494506,0.6113992167604271
4.9252747252747255,0.6058420970769077
4.945054945054945,0.6004610909984981
4.964835164835165,0.5952830513622138
4.984615384615385,0.5903347693162282
5.004395604395604,0.585642786650575
5.024175824175824,0.5812331904756662
5.043956043956045,0.5771313919166111
5.0637362637362635,0.5733618913250105
5.083516483516483,0.5699480333888943
5.103296703296703,0.566911756398844
5.123076923076923,0.5642733407465566
5.142857142857143,0.5620511624263351
5.162637362637362,0.5602614578118608
5.182417582417583,0.5589181062274011
5.2021978021978015,0.5580324367726073
5.221978021978022,0.5576130654614403
5.241758241758242,0.5576657679925057
5.2615384615384615,0.5581933924038032
5.281318681318681,0.5591958145329744
5.301098901098901,0.5606699376850107
5.320879120879121,0.5626097363014122
5.340659340659341,0.5650063418368212
5.36043956043956,0.5678481675864323
5.380219780219781,0.5711210679626101
5.3999999999999995,0.5748085267619044
5.41978021978022,0.5788918683359467
5.43956043956044,0.583350485293292
5.4593406593406595,0.5881620763978403
5.479120879120879,0.5933028886530408
5.498901098901099,0.5987479581149213
5.518681318681319,0.6044713446950636
5.538461538461538,0.6104463570322686
5.558241758241758,0.6166457643667276
5.578021978021979,0.6230419931914215
5.5978021978021975,0.6296073072393218
5.617582417582418,0.6363139700655345
5.637362637362637,0.6431343900804599
5.6571428571428575,0.6500412483785827
5.676923076923077,0.6570076100871822
5.696703296703297,0.6640070202371763
5.716483516483517,0.6710135853458759
5.736263736263735,0.6780020420111708
5.756043956043956,0.6849478138624314
5.775824175824176,0.6918270582086351
5.795604395604395,0.6986167036815751
5.815384615384615,0.7052944801018165
5.835164835164835,0.711838941707121
5.854945054945055,0.718229484784582
5.874725274725275,0.7244463606448853
5.894505494505494,0.7304706847740896
5.914285714285715,0.7362844428991766
5.934065934065933,0.7418704946094687
5.953846153846154,0.7472125750896331
5.973626373626374,0.7522952954408824
5.993406593406593,0.7571041419966142
6.013186813186813,0.7616254749762025
6.032967032967033,0.7658465267660306
6.052747252747253,0.7697554000696699
6.072527472527473,0.7733410661289116
6.092307692307692,0.7765933631829389
6.112087912087913,0.7795029953046014
6.131868131868131,0.7820615317291283
6.151648351648352,0.7842614067712314
6.171428571428572,0.7860959204115873
6.191208791208791,0.7875592396211554
6.210989010989011,0.788646400483012
6.230769230769231,0.7893533111643944
6.2505494505494505,0.7896767557869888
6.270329670329671,0.7896143992405205
6.29010989010989,0.7891647929828736
6.309890109890111,0.7883273818693572
6.329670329670329,0.7871025120538763
6.349450549450549,0.78549144000492
6.36923076923077,0.7834963426801456
6.3890109890109885,0.7811203289032584
6.408791208791209,0.7783674519865915
6.428571428571428,0.7752427236414021
6.4483516483516485,0.7717521292144456
6.468131868131868,0.7679026442844359
6.487912087912088,0.7637022526436708
6.507692307692308,0.7591599656782735
6.527472527472527,0.7542858431440518
6.547252747252747,0.7490910153127522
6.567032967032967,0.7435877064342106
6.5868131868131865,0.7377892594219887
6.606593406593407,0.7317101616216268
6.626373626373626,0.7253660714604503
6.6461538461538465,0.7187738457018716
6.665934065934065,0.7119515669354218
6.685714285714286,0.7049185708210649
6.705494505494506,0.697695472471925
6.725274725274725,0.6903041911996567
6.745054945054945,0.6827679726593135
6.764835164835165,0.675111407213706
6.7846153846153845,0.6673604430903548
6.804395604395605,0.6595423926275589
6.824175824175824,0.6516859296035106
6.8439560439560445,0.6438210753189733
6.863736263736263,0.6359791707715785
6.883516483516484,0.6281928319323938
6.903296703296704,0.6204958848366804
6.923076923076923,0.6129232769590056
6.942857142857143,0.6055109611964017
6.962637362637362,0.5982957487772819
6.9824175824175825,0.5913151276002907
7.002197802197802,0.5846070429424196
7.021978021978022,0.5782096382147799
7.041758241758242,0.5721609545345551
7.061538461538461,0.5664985893533294
7.081318681318681,0.56125931623721
7.101098901098901,0.5564786700966873
7.1208791208791204,0.5521905046253155
7.140659340659341,0.5484265312871349
7.16043956043956,0.545215851693519
7.1802197802197805,0.5425844973942074
7.199999999999999,0.5405549927106562
7.21978021978022,0.5391459570127431
7.23956043956044,0.538371762579256
7.259340659340659,0.5382422627742107
7.279120879120879,0.5387626027195487
7.298901098901099,0.5399331210893684
7.318681318681318,0.5417493473585028
7.338461538461539,0.5442020941746399
7.358241758241758,0.5472776399050859
7.3780219780219785,0.5509579922448519
7.397802197802197,0.555221220408091
7.417582417582418,0.560041841096872
7.437362637362638,0.5653912422563427
7.457142857142857,0.5712381285606779
7.476923076923077,0.5775489734907938
7.496703296703297,0.5842884645522954
7.516483516483516,0.591419930385505
7.536263736263736,0.5989057409859732
7.556043956043957,0.60670767475609
7.575824175824176,0.6147872484661515
7.595604395604395,0.6231060082884887
7.615384615384615,0.6316257818090576
7.635164835164835,0.6403088922877789
7.654945054945055,0.6491183374417496
7.674725274725275,0.6580179356965826
7.694505494505494,0.6669724432383572
7.7142857142857135,0.6759476453557748
7.734065934065935,0.6849104255420089
7.753846153846154,0.6938288156779163
7.7736263736263735,0.7026720303848722
7.793406593406592,0.7114104883504522
7.813186813186814,0.7200158231218134
7.832967032967034,0.728460885549134
7.852747252747252,0.7367197397586832
7.872527472527472,0.7447676542530375
7.892307692307693,0.7525810894780772
7.912087912087912,0.7601376829664108
7.931868131868132,0.7674162329658009
7.951648351648351,0.7743966812868577
7.971428571428572,0.7810600959561173
7.991208791208791,0.7873886541359862
8.010989010989011,0.7933656256693502
8.03076923076923,0.7989753575216265
8.05054945054945,0.8042032593239293
8.07032967032967,0.8090357901660701
8.09010989010989,0.813460446744662
8.10989010989011,0.8174657529383778
8.129670329670331,0.8210412508573298
8.149450549450549,0.8241774933957786
8.169230769230769,0.8268660383051031
8.189010989010988,0.8290994437968682
8.20879120879121,0.8308712656825096
8.22857142857143,0.8321760560563486
8.248351648351647,0.8330093635313767
8.268131868131867,0.8333677350425399
8.287912087912087,0.8332487192393185
8.307692307692308,0.8326508714978564
8.327472527472528,0.831573760592881
8.347252747252746,0.8300179770806745
8.367032967032966,0.8279851434559707
8.386813186813187,0.8254779261579889
8.406593406593407,0.822500049513382
8.426373626373627,0.8190563117165864
8.446153846153845,0.8151526029601561
8.465934065934066,0.8107959258393711
8.485714285714286,0.8059944181652264
8.505494505494505,0.8007573783282397
8.525274725274725,0.7950952933603501
8.545054945054945,0.7890198698433076
8.564835164835165,0.7825440678068397
8.584615384615384,0.775682137748011
8.604395604395604,0.7684496608807896
8.624175824175826,0.7608635926898296
8.643956043956043,0.7529423098113082
8.663736263736263,0.7447056601913457
8.683516483516483,0.7361750163740782
8.703296703296704,0.7273733316411323
8.723076923076924,0.7183251985531345
8.742857142857142,0.7090569092252177
8.762637362637362,0.6995965163917076
8.782417582417583,0.68997389397042
8.802197802197803,0.6802207954132703
8.821978021978023,0.6703709076190878
8.84175824175824,0.6604598975756275
8.86153846153846,0.65052544819054
8.881318681318682,0.6406072789643504
8.901098901098901,0.630747146267788
8.920879120879121,0.6209888170365576
8.940659340659339,0.6113780087365782
8.96043956043956,0.6019622875548055
8.98021978021978,0.5927909160376396
9.0,0.5839146409693604
9.01978021978022,0.5753854123286969
9.03956043956044,0.567256024882507
9.05934065934066,0.5595796755839016
9.079120879120879,0.5524094326357627
9.098901098901099,0.5457976159998996
9.11868131868132,0.5397950943139938
9.138461538461538,0.5344505094930191
9.158241758241758,0.5298094473992697
9.178021978021977,0.5259135802844314
9.197802197802199,0.5227998134354868
9.217582417582419,0.5204994736426173
9.237362637362637,0.5190375797844994
9.257142857142856,0.5184322351986677
9.276923076923078,0.5186941771339465
9.296703296703297,0.5198265105455885
9.316483516483517,0.5218246424456153
9.336263736263735,0.5246764201269613
9.356043956043957,0.5283624633357934
9.375824175824176,0.5328566684283491
9.395604395604396,0.5381268530481391
9.415384615384616,0.5441355037814148
9.435164835164835,0.5508405869152526
9.454945054945055,0.5581963836049054
9.474725274725275,0.5661543148011613
9.494505494505495,0.5746637272885969
9.514285714285714,0.5836726191817588
9.534065934065934,0.5931282903520169
9.553846153846154,0.6029779098435719
9.573626373626373,0.6131689979461817
9.593406593406593,0.623649825009504
9.613186813186815,0.6343697322802474
9.632967032967032,0.6452793821123082
9.652747252747252,0.6563309460153094
9.672527472527472,0.6674782393702052
9.692307692307693,0.6786768114521965
9.712087912087913,0.6898839988415411
9.731868131868131,0.7010589495210169
9.75164835164835,0.7121626240692687
9.771428571428572,0.7231577794464282
9.791208791208792,0.7340089399890565
9.810989010989012,0.7446823594202793
9.83076923076923,0.7551459769572495
9.850549450549451,0.7653693699683006
9.87032967032967,0.7753237050964326
9.89010989010989,0.7849816893173585
9.90989010989011,0.7943175220315765
9.92967032967033,0.8033068489911283
9.94945054945055,0.8119267186227547
9.96923076923077,0.8201555411211311
9.989010989010989,0.8279730505401013
10.008791208791209,0.8353602699987198
10.028571428571428,0.8422994800363645
10.048351648351648,0.8487741900910327
10.068131868131868,0.8547691130334366
10.08791208791209,0.8602701426619406
10.107692307692307,0.8652643340477506
10.127472527472527,0.8697398866124166
10.147252747252747,0.8736861298195633
10.167032967032966,0.8770935113683056
10.186813186813188,0.879953587784408
10.206593406593406,0.8822590173185677
10.226373626373626,0.8840035550756822
10.246153846153845,0.8851820503164659
10.265934065934067,0.8857904458911958
10.285714285714286,0.8858257797856648
10.305494505494504,0.8852861887810958
10.325274725274724,0.8841709142517956
10.345054945054946,0.8824803101488614
10.364835164835165,0.8802158532424981
10.384615384615385,0.8773801557222326
10.404395604395603,0.87397698028149
10.424175824175824,0.870011257841683
10.443956043956044,0.8654891081010279
10.463736263736264,0.8604178631244539
10.483516483516484,0.8548060942232628
10.503296703296703,0.8486636424059951
10.523076923076923,0.8420016527153945
10.542857142857143,0.834832612799129
10.562637362637362,0.8271703960932061
10.582417582417584,0.8190303100251655
10.602197802197802,0.8104291496675182
