Time (s),Filtered Signal
0.0,0.03802558282943316
0.033370165745856356,-0.08391160958015825
0.06674033149171271,-0.1949805561528955
0.10011049723756907,-0.2942147732910662
0.13348066298342542,-0.39319208594268307
0.16685082872928178,-0.5062596777818499
0.20022099447513814,-0.6356119733545494
0.2335911602209945,-0.7619063562494328
0.26696132596685085,-0.8478782378535719
0.30033149171270723,-0.8538883784313958
0.33370165745856356,-0.7565504181626506
0.3670718232044199,-0.5599092241367558
0.4004419889502763,-0.293852070384261
0.43381215469613266,-0.0024161015954571887
0.467182320441989,0.2702453711770045
0.5005524861878453,0.489212042939743
0.5339226519337017,0.6314599421418097
0.5672928176795581,0.6848208020339083
0.6006629834254145,0.6475739059772149
0.6340331491712707,0.5303740081936942
0.6674033149171271,0.3582819182415859
0.7007734806629835,0.1688168161958323
0.7341436464088398,0.0037468605509201184
0.7675138121546962,-0.10348712151493004
0.8008839779005525,-0.1392591419323033
0.8342541436464089,-0.1142882304357892
0.8676243093922653,-0.058453351416438336
0.9009944751381216,-0.007912623444740568
0.934364640883978,0.00972880293439527
0.9677348066298344,-0.014317141185606421
1.0011049723756906,-0.06849943097707785
1.0344751381215471,-0.12821056193651492
1.0678453038674034,-0.16804852210937343
1.1012154696132597,-0.17324915728770438
1.1345856353591162,-0.1451531418601664
1.1679558011049724,-0.09852324977625719
1.201325966850829,-0.05242443348328744
1.2346961325966852,-0.019450610325043496
1.2680662983425415,0.0011332825249979483
1.301436464088398,0.02270935051044031
1.3348066298342542,0.06325579333913914
1.3681767955801105,0.13390784435415057
1.401546961325967,0.23003767525793545
1.4349171270718233,0.3297990501063501
1.4682872928176796,0.40161251967132194
1.501657458563536,0.4176581456404296
1.5350276243093923,0.3671562998365164
1.5683977900552488,0.2627263289189087
1.601767955801105,0.1359382958797081
1.6351381215469614,0.023292464189296584
1.6685082872928179,-0.051050998481065896
1.7018784530386741,-0.08708498356368699
1.7352486187845306,-0.10856501840762052
1.768618784530387,-0.14949264870668796
1.8019889502762432,-0.23354327839388456
1.8353591160220997,-0.35696844463779526
1.868729281767956,-0.4846855840445471
1.9020994475138122,-0.5630824498824457
1.9354696132596687,-0.5444238219456696
1.968839779005525,-0.4112207187757202
2.0022099447513813,-0.1882371421020821
2.0355801104972375,0.064378190124446
2.0689502762430942,0.27402088101174477
2.1023204419889505,0.383960143578909
2.135690607734807,0.3741491514464905
2.169060773480663,0.265816594684638
2.2024309392265193,0.10921360399885113
2.235801104972376,-0.03855003504477622
2.2691712707182323,-0.1351809361712212
2.3025414364640886,-0.16568046843872636
2.335911602209945,-0.1421905630719967
2.369281767955801,-0.09363088245780325
2.402651933701658,-0.05126558143894004
2.436022099447514,-0.03667182430918052
2.4693922651933704,-0.056101738223768516
2.5027624309392267,-0.10168186362075658
2.536132596685083,-0.1571166754415347
2.5695027624309392,-0.20456148241990632
2.602872928176796,-0.22999502339920952
2.636243093922652,-0.2259043268725183
2.6696132596685085,-0.19146918443968938
2.7029834254143648,-0.13118273401910416
2.736353591160221,-0.05293214413456124
2.7697237569060777,0.03377550500690429
2.803093922651934,0.11924132525963944
2.8364640883977903,0.1948472483096307
2.8698342541436466,0.25447092851660014
2.903204419889503,0.29606632400721544
2.936574585635359,0.3228872077509879
2.969944751381216,0.34338047291684215
3.003314917127072,0.36888464523585107
3.0366850828729284,0.40915022805185
3.0700552486187846,0.4670398291878683
3.103425414364641,0.5347938365963215
3.1367955801104976,0.59417368251982
3.170165745856354,0.621371297696835
3.20353591160221,0.5953522174522315
3.2369060773480665,0.5063882568600492
3.2702762430939227,0.3609976776621516
3.3036464088397794,0.1807862324424351
3.3370165745856357,-0.004675596076613713
3.370386740331492,-0.16798379874668135
3.4037569060773483,-0.29251730578198787
3.4371270718232045,-0.3756677399878906
3.4704972375690613,-0.42556543757422893
3.5038674033149175,-0.4537126362901326
3.537237569060774,-0.4682711239672202
3.57060773480663,-0.4723797677338856
3.6039779005524863,-0.468704080200905
3.6373480662983426,-0.4670338315580221
3.6707182320441993,-0.48872070252796923
3.7040883977900556,-0.5622765720085104
3.737458563535912,-0.7089644546626734
3.770828729281768,-0.9237766472326052
3.8041988950276244,-1.1621890048324595
3.837569060773481,-1.343024681198057
3.8709392265193374,-1.3714484961640356
3.9043093922651937,-1.1758432330479642
3.93767955801105,-0.7432640832061974
3.9710497237569062,-0.1358306064342741
4.0044198895027625,0.5226788237586849
4.037790055248619,1.0871785476230107
4.071160220994475,1.4423040521583952
4.104530386740332,1.5419991007500833
4.1379005524861885,1.4206948253658627
4.171270718232044,1.1725309217585371
4.204640883977901,0.9095610282510812
4.238011049723757,0.7181721193892233
4.271381215469614,0.6316613793196009
4.30475138121547,0.6278453508683199
4.338121546961326,0.6489451569529033
4.371491712707183,0.6322943239323032
4.404861878453039,0.5378375388570281
4.438232044198895,0.3619268954803649
4.471602209944752,0.1341202954656551
4.504972375690608,-0.09888279208987216
4.538342541436465,-0.293359547911599
4.5717127071823205,-0.42358714581919915
4.605082872928177,-0.48631075876305674
4.638453038674034,-0.4948862441536844
4.67182320441989,-0.46816929391497186
4.7051933701657465,-0.4209243630235749
4.738563535911602,-0.3605216697139838
4.771933701657459,-0.2903769943850036
4.805303867403316,-0.21648853429803566
4.8386740331491715,-0.15177906234713767
4.872044198895028,-0.11454863999118263
4.905414364640884,-0.1211610294889384
4.938784530386741,-0.1768814382996764
4.972154696132597,-0.2703188569663361
5.005524861878453,-0.37524208007549364
5.03889502762431,-0.4595555206354746
5.072265193370166,-0.4972600285378052
5.105635359116023,-0.47761744635787934
5.1390055248618784,-0.4073714585184089
5.172375690607735,-0.305658047862621
5.205745856353592,-0.1948702883989277
5.239116022099448,-0.09223210872381979
5.272486187845304,-0.005659322890958617
5.30585635359116,0.0653078002320581
5.339226519337017,0.12535593778049875
5.372596685082874,0.17900144675910865
5.4059668508287295,0.22820995248799075
5.439337016574586,0.27254056339829263
5.472707182320442,0.31070623890443
5.506077348066299,0.34187696771529097
5.5394475138121555,0.36570740837023075
5.572817679558011,0.3813656910715063
5.606187845303868,0.38683156922962203
5.639558011049724,0.3796817602879756
5.672928176795581,0.3594270660584766
5.706298342541437,0.32993364711711826
5.739668508287293,0.2996827123448579
5.77303867403315,0.27842467142974725
5.806408839779006,0.27102445274466347
5.839779005524862,0.2717305343263835
5.873149171270718,0.2630044468381335
5.906519337016575,0.22133422186268784
5.939889502762432,0.128614825784021
5.9732596685082875,-0.016205659179257956
6.006629834254144,-0.1918843952021901
6.04,-0.3602083379755937
6.073370165745857,-0.48062159169802865
6.1067403314917135,-0.5275220748365772
6.140110497237569,-0.5015294382562925
6.173480662983426,-0.42872242130681926
6.206850828729282,-0.3479621508785372
6.240220994475139,-0.2925974883018258
6.273591160220995,-0.2757004439644136
6.306961325966851,-0.2860038348400948
6.340331491712708,-0.2960499015960758
6.373701657458564,-0.27778002735625185
6.40707182320442,-0.21721833685747707
6.440441988950277,-0.12082256437980926
6.473812154696133,-0.010843251732988812
6.50718232044199,0.08704754259291228
6.5405524861878455,0.1567346651154053
6.573922651933702,0.19826258003275174
6.607292817679559,0.22491092701899504
6.640662983425415,0.25287503970426223
6.674033149171271,0.28958686743451284
6.707403314917127,0.32729524852957215
6.740773480662984,0.34561887943588687
6.774143646408841,0.32195890314493136
6.8075138121546965,0.24440569935814063
6.840883977900553,0.1203066213552655
6.874254143646409,-0.024209013744083463
6.907624309392266,-0.15379735876407977
6.9409944751381225,-0.23790275877998515
6.974364640883978,-0.26231864959262946
7.007734806629835,-0.23285088509715635
7.041104972375691,-0.1698079330340013
7.074475138121548,-0.0966470085375193
7.107845303867403,-0.028750703877534686
7.14121546961326,0.032157629826676346
7.174585635359117,0.09552876072358059
7.207955801104973,0.1730336288935036
7.241325966850829,0.2678458354637224
7.274696132596685,0.3677394005989609
7.308066298342542,0.4459159243346535
7.341436464088399,0.4699963959039717
7.3748066298342545,0.41579281974061044
7.408176795580111,0.2799805439774156
7.441546961325967,0.08579389156824273
7.474917127071824,-0.12151301437381178
7.5082872928176805,-0.28851379414445066
7.541657458563536,-0.3718902926627014
7.575027624309393,-0.35427536351410105
7.608397790055249,-0.2515560619962445
7.641767955801106,-0.10863559360923684
7.675138121546962,0.015239693627479836
7.708508287292818,0.06684921412834947
7.741878453038675,0.018239567793380106
7.775248618784531,-0.12198496799855904
7.808618784530387,-0.3099487985417155
7.841988950276244,-0.48092573369286973
7.8753591160221,-0.5725134290665049
7.908729281767957,-0.5481396621057048
7.9420994475138125,-0.4113628308989367
7.975469613259669,-0.2044364319777587
8.008839779005525,0.008939700335643024
8.042209944751383,0.16956164549593247
8.075580110497238,0.24589125414641647
8.108950276243094,0.24402407381298635
8.14232044198895,0.20027191251379392
8.175690607734808,0.160581329254797
8.209060773480664,0.15723743809290414
8.24243093922652,0.19417344609661266
8.275801104972377,0.2474356623367086
8.309171270718233,0.2795786176870879
8.342541436464089,0.26000636182201836
8.375911602209946,0.18083417599051432
8.409281767955802,0.06071597925478948
8.442651933701658,-0.06443409896096045
8.476022099447514,-0.1582754346075829
8.509392265193371,-0.19954064959748102
8.542762430939227,-0.18880177372692855
8.576132596685083,-0.14428761386698205
8.60950276243094,-0.09034374566670661
8.642872928176796,-0.045385530110194486
8.676243093922652,-0.015431629316216883
8.709613259668508,0.004582863870061085
8.742983425414366,0.02400851155219104
8.776353591160222,0.04904967251216249
8.809723756906077,0.07903644799968262
8.843093922651935,0.10789021742454347
8.87646408839779,0.12901589670221955
8.909834254143647,0.1400611087719381
8.943204419889504,0.14446012032796782
8.97657458563536,0.14890070314506706
9.009944751381216,0.15841198905551343
9.043314917127072,0.17221586951095708
9.07668508287293,0.18305840958902636
9.110055248618785,0.18073614799525245
9.143425414364641,0.15810036944728434
9.176795580110499,0.11630668447659467
9.210165745856354,0.0662801161246536
9.24353591160221,0.02514250793447628
9.276906077348068,0.008768396459102124
9.310276243093924,0.023550547524888357
9.34364640883978,0.061076997529455467
9.377016574585635,0.0985617210694015
9.410386740331493,0.10585270495111042
9.443756906077349,0.05727729836462912
9.477127071823205,-0.05575479181422763
9.510497237569062,-0.2167171833945541
9.543867403314918,-0.38517012689795976
9.577237569060774,-0.5089406602089642
9.610607734806631,-0.5443887143111765
9.643977900552487,-0.4772618581839163
9.677348066298343,-0.33445641630910555
9.710718232044199,-0.17913166768400662
9.744088397790057,-0.08812977076109517
9.777458563535912,-0.119158176607231
9.810828729281768,-0.281592681865632
9.844198895027626,-0.5252026181385193
9.877569060773482,-0.7542841875826903
9.910939226519337,-0.8631506196554714
9.944309392265193,-0.7782501591784695
9.97767955801105,-0.48818657907443214
10.011049723756907,-0.04825714495345155
10.044419889502763,0.44164009185382286
10.07779005524862,0.8742561164970647
10.111160220994476,1.1697966722304403
10.144530386740332,1.294088344646264
10.17790055248619,1.2561823059153543
10.211270718232045,1.0921115668895462
10.244640883977901,0.8464938155443136
10.278011049723757,0.5611191647872454
10.311381215469615,0.2725145849132539
10.34475138121547,0.013982005621656851
10.378121546961326,-0.18427100147252648
10.411491712707184,-0.30013901366405343
10.44486187845304,-0.3276854703026941
10.478232044198895,-0.2826078468498506
10.511602209944753,-0.19994684747892066
10.544972375690609,-0.12303481688312559
10.578342541436465,-0.08780178744645163
10.61171270718232,-0.10955173836979476
10.645082872928178,-0.1784633800324036
10.678453038674034,-0.2658581139870615
10.71182320441989,-0.3380098988838781
10.745193370165747,-0.370726442546763
10.778563535911603,-0.35789891959896303
10.811933701657459,-0.3106072997408941
10.845303867403315,-0.2483080149009364
10.878674033149172,-0.18748789313597816
10.912044198895028,-0.13396366783274702
10.945414364640884,-0.0824717593804729
10.978784530386742,-0.022887870188973324
11.012154696132598,0.05118634107732342
11.045524861878453,0.1366744168483601
11.078895027624311,0.22126129391320268
11.112265193370167,0.289095336271384
11.145635359116023,0.3283665024032326
11.179005524861878,0.33637432180105287
11.212375690607736,0.31941745031489277
11.245745856353592,0.2878987563461986
11.279116022099448,0.2496778048238114
11.312486187845305,0.2055558863883875
11.345856353591161,0.14952625864222738
11.379226519337017,0.07381218251257363
11.412596685082875,-0.02389864812399776
11.44596685082873,-0.13494845890009105
11.479337016574586,-0.2392750486573885
11.512707182320442,-0.31115779503860824
11.5460773480663,-0.3293843439453213
11.579447513812156,-0.28785985979068446
11.612817679558011,-0.20207338002946984
11.646187845303869,-0.10805912284976144
11.679558011049725,-0.05301498057007473
11.71292817679558,-0.07966185627129706
11.746298342541436,-0.20890140959727924
11.779668508287294,-0.4267226776501574
11.81303867403315,-0.6810766477764025
11.846408839779006,-0.8921162104569769
11.879779005524863,-0.974806878479985
11.91314917127072,-0.86757049115088
11.946519337016575,-0.556658523746596
11.979889502762433,-0.08593484313172256
12.013259668508288,0.45325906282891537
12.046629834254144,0.9492220271566736
12.08,1.3035964925812005
12.113370165745858,1.4586367715174133
12.146740331491714,1.408598870749794
12.18011049723757,1.1933539680537075
12.213480662983427,0.8796114461224193
12.246850828729283,0.5387128228653031
12.280220994475139,0.22900703768523617
12.313591160220996,-0.013033683826079482
12.346961325966852,-0.1730688971381881
12.380331491712708,-0.25351980950874914
12.413701657458564,-0.2665189631212831
12.447071823204421,-0.22842553390687428
12.480441988950277,-0.1574627479304621
12.513812154696133,-0.07405918122689127
12.54718232044199,-0.0019167323317738345
12.580552486187846,0.032694161285057505
12.613922651933702,0.005074638131382448
12.64729281767956,-0.10061731073905378
12.680662983425416,-0.2834116765561041
12.714033149171271,-0.5206059264562554
12.747403314917127,-0.7690434841695606
12.780773480662985,-0.9735704786879775
12.81414364640884,-1.08083313605466
12.847513812154697,-1.0543773524752178
12.880883977900554,-0.8862261573623549
12.91425414364641,-0.6009014770682766
12.947624309392266,-0.24998127947728754
12.980994475138122,0.10173059870682921
13.01436464088398,0.39429948511837054
13.047734806629835,0.5889677055150598
13.081104972375691,0.6769192506238475
13.114475138121549,0.6775256499287595
13.147845303867404,0.6273059086065893
13.18121546961326,0.5645060401906559
13.214585635359118,0.5155704361307165
13.247955801104974,0.48829822298969544
13.28132596685083,0.4731176613537137
13.314696132596685,0.4505091105228557
13.348066298342543,0.40076895878955854
13.381436464088399,0.3125216841506361
13.414806629834255,0.18789894265464646
13.448176795580112,0.04379793613862359
13.481546961325968,-0.09076609313462712
13.514917127071824,-0.18130692013302172
13.548287292817681,-0.1984181310831149
13.581657458563537,-0.13072789995211406
13.615027624309393,0.0036996052628239474
13.648397790055249,0.1534665856821039
13.681767955801106,0.2428501350202581
13.715138121546962,0.19489951912204537
13.748508287292818,-0.03704829976870189
13.781878453038676,-0.4413969763783984
13.815248618784532,-0.9376884979228831
13.848618784530387,-1.392342366181565
13.881988950276245,-1.6591606020473157
13.9153591160221,-1.6311923549689658
13.948729281767957,-1.2833443313578634
13.982099447513813,-0.6868862678207442
14.01546961325967,0.012086461785587302
14.048839779005526,0.6427074542229892
14.082209944751382,1.06773341127971
14.11558011049724,1.2265740634786346
14.148950276243095,1.1466061114239319
14.182320441988951,0.9208257104103481
14.215690607734807,0.6641642100520544
14.249060773480664,0.4683582392662284
14.28243093922652,0.37342840084573165
14.315801104972376,0.36453665905722427
14.349171270718234,0.39126158443252673
14.38254143646409,0.3975022822106188
14.415911602209945,0.3476549550238474
14.449281767955803,0.23865134260293708
14.482651933701659,0.09533803051172944
14.516022099447515,-0.04548903102850177
14.54939226519337,-0.15285843897927165
14.582762430939228,-0.2125904907459833
14.616132596685084,-0.227810688069216
14.64950276243094,-0.21137173416109525
14.682872928176797,-0.17635431634800267
14.716243093922653,-0.13066549245370887
14.749613259668509,-0.07818860821324979
14.782983425414367,-0.02434180295798787
14.816353591160222,0.018944356170166633
14.849723756906078,0.033319054685691754
14.883093922651934,0.00027450152349994556
14.916464088397792,-0.0894148218344077
14.949834254143648,-0.22834526456463883
14.983204419889503,-0.3916208118567921
15.016574585635361,-0.5434681769301722
15.049944751381217,-0.6484831171861253
15.083314917127073,-0.6825332058707116
15.116685082872928,-0.6389079213452754
15.150055248618786,-0.5279570434297488
15.183425414364642,-0.37154902238111104
15.216795580110498,-0.19557765413528735
15.250165745856355,-0.02370826267028461
15.283535911602211,0.1259923177194776
15.316906077348067,0.24178573052846297
15.350276243093925,0.31770036852121325
15.38364640883978,0.3529145814206166
15.417016574585636,0.35139527949854915
15.450386740331492,0.32122707033459125
15.48375690607735,0.27296664175630725
15.517127071823205,0.2171279689885444
15.550497237569061,0.16192393825658066
15.583867403314919,0.11272259464716754
15.617237569060775,0.07378322027184805
15.65060773480663,0.051120809427412546
15.683977900552488,0.05402379905188817
15.717348066298344,0.09300766163250432
15.7507182320442,0.17401548480544235
15.784088397790056,0.2913699770014568
15.817458563535913,0.4236139961804288
15.85082872928177,0.5357503728711586
15.884198895027625,0.5886100000865043
15.917569060773483,0.5524794231052601
15.950939226519338,0.41953909196588457
15.984309392265194,0.2094984553353205
16.01767955801105,-0.034665037035376586
16.051049723756908,-0.2597936435259578
16.084419889502765,-0.41952105481618773
16.11779005524862,-0.4884832923603447
16.151160220994477,-0.4684234674233839
16.18453038674033,-0.38445271147076027
16.21790055248619,-0.2738278675372872
16.251270718232046,-0.1722892554849023
16.2846408839779,-0.10327007917236673
16.318011049723758,-0.07340800297408255
16.351381215469615,-0.0749012456069572
16.38475138121547,-0.09263920675588144
16.418121546961327,-0.1125660425210159
16.451491712707185,-0.12770934887416172
16.48486187845304,-0.1395872165041937
16.518232044198896,-0.15482135151828894
16.551602209944754,-0.17896780768405487
16.584972375690608,-0.21092918090132365
16.618342541436466,-0.2411454673870301
16.651712707182323,-0.25499206979335914
16.685082872928177,-0.2401262573911616
16.718453038674035,-0.194158490266215
16.751823204419892,-0.12825866678724882
16.785193370165747,-0.06381604923785479
16.818563535911604,-0.022651577985711033
16.851933701657458,-0.015009855200016995
16.885303867403316,-0.03158322258212506
16.918674033149173,-0.04465772535351301
16.952044198895027,-0.019254508822794413
16.985414364640885,0.07013718327974076
17.018784530386743,0.22508413439305308
17.052154696132597,0.4183540035302926
17.085524861878454,0.6016736709613915
17.118895027624312,0.7230818729754694
17.152265193370166,0.7463469051718096
17.185635359116024,0.6641434681982725
17.21900552486188,0.49979338197660883
17.252375690607735,0.29756975592282603
