Frequency (Hz),Amplitude
0.0,5.442630163720616
0.01978021978021978,5.440321389227948
0.03956043956043956,5.433398284576246
0.05934065934065934,5.4218705114167545
0.07912087912087912,5.405754189873832
0.0989010989010989,5.385071925064905
0.11868131868131868,5.359852845163123
0.13846153846153844,5.330132651964607
0.15824175824175823,5.295953685236953
0.17802197802197803,5.2573650024716745
0.1978021978021978,5.214422476050354
0.21758241758241756,5.167188910271483
0.23736263736263735,5.115734181185077
0.2571428571428572,5.0601354027582275
0.2769230769230769,5.0004771235627805
0.2967032967032967,4.936851558955207
0.31648351648351647,4.869358864629457
0.3362637362637363,4.79810745849211
0.35604395604395606,4.723214399063597
0.3758241758241758,4.644805830083023
0.3956043956043956,4.563017502723681
0.4153846153846154,4.477995388851362
0.4351648351648351,4.389896401118808
0.45494505494505494,4.298889238426366
0.4747252747252747,4.205155378420838
0.4945054945054945,4.108890242264603
0.5142857142857143,4.010304560861397
0.5340659340659341,3.9096259759893597
0.5538461538461538,3.8071009141770515
0.5736263736263736,3.702996775308231
0.5934065934065934,3.5976044812364916
0.6131868131868132,3.491241431106115
0.6329670329670329,3.3842549079761692
0.6527472527472528,3.277025973205123
0.6725274725274726,3.1699738670831508
0.6923076923076923,3.063560900891409
0.7120879120879121,2.9582977692223014
0.7318681318681318,2.8547491217915453
0.7516483516483516,2.7535390985500685
0.7714285714285715,2.655356337145201
0.7912087912087912,2.5609576969603074
0.810989010989011,2.471169608881005
0.8307692307692308,2.386885578326771
0.8505494505494506,2.3090580079972773
0.8703296703296702,2.238682297848588
0.8901098901098901,2.176771329359887
0.9098901098901099,2.1243192039580907
0.9296703296703297,2.0822546910068787
0.9494505494505494,2.0513872410098344
0.9692307692307692,2.032351214058517
0.989010989010989,2.0255562620991223
1.0087912087912088,2.031152450885808
1.0285714285714287,2.049016923318223
1.0483516483516484,2.078764860914698
1.0681318681318681,2.119782470231046
1.087912087912088,2.1712755061572016
1.1076923076923075,2.232324808760488
1.1274725274725275,2.3019407600727044
1.1472527472527472,2.3791107432351977
1.1670329670329669,2.46283647759558
1.1868131868131868,2.5521605693383185
1.2065934065934065,2.6461832891526345
1.2263736263736265,2.744071425449803
1.2461538461538462,2.8450612604138756
1.2659340659340659,2.9484575324808997
1.2857142857142858,3.053629895833967
1.3054945054945055,3.1600080041084158
1.3252747252747252,3.2670760042630844
1.3450549450549452,3.3743669545673494
1.3648351648351649,3.4814574793547726
1.3846153846153846,3.587962832498195
1.4043956043956045,3.6935324480125122
1.4241758241758242,3.797845997048321
1.443956043956044,3.9006099353287413
1.4637362637362636,4.001554505866233
1.4835164835164834,4.100431152871701
1.5032967032967033,4.1970103001968555
1.523076923076923,4.291079448799275
1.542857142857143,4.382441550879798
1.5626373626373626,4.4709136224376005
1.5824175824175823,4.55632556036765
1.6021978021978023,4.6385191345099726
1.621978021978022,4.717347129049243
1.6417582417582417,4.7926726112626845
1.6615384615384616,4.864368308796989
1.6813186813186813,4.932316079429421
1.7010989010989013,4.996406459665016
1.720879120879121,5.056538280577269
1.7406593406593405,5.112618341056762
1.7604395604395604,5.1645611301289245
1.7802197802197801,5.212288591276771
1.7999999999999998,5.255729922789561
1.8197802197802198,5.29482140908362
1.8395604395604395,5.329506278732007
1.8593406593406594,5.359734585617919
1.879120879120879,5.385463110211077
1.8989010989010988,5.406655278472978
1.9186813186813187,5.423281096339996
1.9384615384615385,5.4353170981247025
1.9582417582417584,5.442746307525263
1.978021978021978,5.445558210250469
1.9978021978021978,5.443748737560762
2.0175824175824175,5.437320260301825
2.0373626373626372,5.426281593272954
2.0571428571428574,5.410648010034586
2.076923076923077,5.39044126852377
2.096703296703297,5.365689648120076
2.1164835164835165,5.336427999093735
2.1362637362637362,5.30269780567982
2.1560439560439564,5.26454726436558
2.175824175824176,5.222031379360527
2.195604395604396,5.17521207765154
2.215384615384615,5.1241583465391125
2.2351648351648348,5.0689463971199045
2.254945054945055,5.009659857840144
2.2747252747252746,4.9463900030133585
2.2945054945054943,4.8792360220949185
2.314285714285714,4.808305336560803
2.3340659340659338,4.733713972476993
2.353846153846154,4.655586998302205
2.3736263736263736,4.574059039176767
2.3934065934065933,4.489274880954502
2.413186813186813,4.401390179574386
2.4329670329670328,4.310572294084242
2.452747252747253,4.217001264753624
2.4725274725274726,4.120870961262873
2.4923076923076923,4.022390429914535
2.512087912087912,3.921785473106737
2.5318681318681318,3.8193004987639294
2.5516483516483515,3.71520068170653
2.5714285714285716,3.609774482473885
2.5912087912087913,3.503336570921541
2.610989010989011,3.396231200433861
2.6307692307692307,3.2888360714019993
2.6505494505494505,3.181566706060395
2.6703296703296706,3.0748813255086516
2.6901098901098903,2.9692861662529006
2.70989010989011,2.8653410878123116
2.7296703296703297,2.7636651923173594
2.7494505494505495,2.66494198777067
2.769230769230769,2.5699233671078274
2.7890109890109893,2.479431343194411
2.808791208791209,2.3943560956076335
2.8285714285714287,2.3156485101966022
2.8483516483516484,2.244305152267003
2.8681318681318677,2.181343710440813
2.887912087912088,2.1277676380568895
2.9076923076923076,2.0845202287174014
2.9274725274725273,2.0524307195073903
2.947252747252747,2.0321578449356865
2.9670329670329667,2.0241386976889766
2.986813186813187,2.028551634201233
3.0065934065934066,2.04530041892874
3.0263736263736263,2.0740228853674174
3.046153846153846,2.114122305306619
3.0659340659340657,2.16481522401825
3.085714285714286,2.2251872103725905
3.1054945054945056,2.294248191567672
3.1252747252747253,2.370981134862562
3.145054945054945,2.4543806607475807
3.1648351648351647,2.5434807303974907
3.184615384615385,2.637372323094013
3.2043956043956046,2.735212934250604
3.2241758241758243,2.8362299696232975
3.243956043956044,2.939719946959156
3.2637362637362637,3.0450450653306054
3.2835164835164834,3.151628312248276
3.3032967032967036,3.2589479277137494
3.3230769230769233,3.366531762942615
3.342857142857143,3.473951862388552
3.3626373626373627,3.580819451126663
3.3824175824175824,3.6867804119606133
3.4021978021978025,3.791511274698507
3.4219780219780223,3.8947157030597177
3.441758241758242,3.99612144438249
3.4615384615384617,4.095477697765254
3.481318681318681,4.1925528533869665
3.501098901098901,4.28713255676736
3.520879120879121,4.379018054862739
3.5406593406593405,4.468024785022989
3.5604395604395602,4.553981172278529
3.58021978021978,4.636727604786021
3.5999999999999996,4.71611556132723
3.61978021978022,4.792006868426961
3.6395604395604395,4.864273067903903
3.659340659340659,4.9327948784999025
3.679120879120879,4.997461737678887
3.6989010989010986,5.058171411784502
3.718681318681319,5.11482966453751
3.7384615384615385,5.167349975380588
3.758241758241758,5.215653300477261
3.7780219780219784,5.259667870277484
3.7978021978021976,5.299329018504227
3.8175824175824173,5.334579038220323
3.8373626373626375,5.365367061324021
3.8571428571428568,5.391648958415702
3.876923076923077,5.413387256492443
3.896703296703296,5.430551072376443
3.916483516483517,5.443116060179455
3.936263736263736,5.4510643714590294
3.956043956043956,5.454384627042745
3.9758241758241755,5.4530718997917065
3.9956043956043956,5.447127707852295
4.015384615384615,5.436560018211368
4.035164835164835,5.421383260632497
4.054945054945055,5.401618352315029
4.0747252747252745,5.377292733890005
4.094505494505494,5.348440417654898
4.114285714285715,5.3151020492589565
4.134065934065934,5.27732498439103
4.153846153846154,5.2351633824008195
4.173626373626373,5.188678319212622
4.193406593406594,5.1379379223793755
4.213186813186813,5.083017531687341
4.232967032967033,5.023999889374355
4.252747252747253,4.960975364784929
4.2725274725274724,4.894042219175356
4.292307692307692,4.82330691742645
4.312087912087913,4.748884494649331
4.331868131868132,4.670898987113982
4.351648351648352,4.589483938628408
4.371428571428571,4.504782995489314
4.391208791208792,4.416950605456286
4.410989010989011,4.326152838913268
4.43076923076923,4.232568353510944
4.450549450549451,4.136389527153157
4.4703296703296695,4.037823788192501
4.49010989010989,3.937095176073327
4.50989010989011,3.8344461702513453
4.52967032967033,3.7301398297237207
4.549450549450549,3.6244622893785636
4.569230769230769,3.517725661699422
4.589010989010989,3.410271391654898
4.608791208791209,3.302474106540505
4.628571428571428,3.1947459875873414
4.648351648351649,3.0875416611076383
4.6681318681318675,2.9813635564240535
4.687912087912088,2.876767595822581
4.707692307692308,2.774368955621901
4.7274725274725276,2.674847452847729
4.747252747252747,2.578951856074508
4.767032967032967,2.4875020872052884
4.786813186813187,2.4013878896095786
4.806593406593407,2.321562143471566
4.826373626373626,2.249026730951317
4.846153846153847,2.1848088906161958
4.8659340659340655,2.1299266156942243
4.885714285714286,2.085343091851876
4.905494505494506,2.05191250409179
4.9252747252747255,2.03032244053391
4.945054945054945,2.0210407374585517
4.964835164835165,2.024275755137046
4.984615384615385,2.03995776992743
5.004395604395604,2.0677453442933
5.024175824175824,2.107055329700235
5.043956043956045,2.1571104410643613
5.0637362637362635,2.2169957225181762
5.083516483516483,2.2857152369739504
5.103296703296703,2.3622423516072892
5.123076923076923,2.4455598848130675
5.142857142857143,2.5346890651491876
5.162637362637362,2.6287081465346054
5.182417582417583,2.726762523232129
5.2021978021978015,2.828068476655573
5.221978021978022,2.9319125343979837
5.241758241758242,3.0376480656391815
5.2615384615384615,3.1446903341207695
5.281318681318681,3.2525108649101946
5.301098901098901,3.360631687554607
5.320879120879121,3.4686197997598134
5.340659340659341,3.5760820425275583
5.36043956043956,3.6826604755875443
5.380219780219781,3.7880282772827494
5.3999999999999995,3.891886154461035
5.41978021978022,3.993959226756627
5.43956043956044,4.093994339697519
5.4593406593406595,4.191757758054841
5.479120879120879,4.2870331918897415
5.498901098901099,4.379620110991238
5.518681318681319,4.469332307666175
5.538461538461538,4.5559966724301875
5.558241758241758,4.6394521516471245
5.578021978021979,4.719548860354915
5.5978021978021975,4.796147327296868
5.617582417582418,4.869117852518458
5.637362637362637,4.9383399608002065
5.6571428571428575,5.003701936708495
5.676923076923077,5.06510042919802
5.696703296703297,5.122440115536476
5.716483516483517,5.175633415884878
5.736263736263735,5.224600251196303
5.756043956043956,5.269267838225623
5.775824175824176,5.3095705164048645
5.795604395604395,5.34544960215958
5.815384615384615,5.376853266944169
5.835164835164835,5.4037364358785
5.854945054945055,5.42606070439108
5.874725274725275,5.4437942707301
5.894505494505494,5.4569118826052385
5.914285714285715,5.4653947965809735
5.934065934065933,5.469230749165691
5.953846153846154,5.468413938838301
5.973626373626374,5.462945018533279
5.993406593406593,5.452831098372103
6.013186813186813,5.438085758691769
6.032967032967033,5.418729073684591
6.052747252747253,5.394787646235095
6.072527472527473,5.366294654825958
6.092307692307692,5.333289913692779
6.112087912087913,5.295819947744671
6.131868131868131,5.253938084143693
6.151648351648352,5.207704562859918
6.171428571428572,5.157186669003324
6.191208791208791,5.102458890290793
6.210989010989011,5.043603103653113
6.230769230769231,4.980708795740712
6.2505494505494505,4.913873322969623
6.270329670329671,4.843202217786349
6.29010989010989,4.768809549050972
6.309890109890111,4.6908183458755435
6.329670329670329,4.609361095948631
6.349450549450549,4.524580331368426
6.36923076923077,4.43662931734239
6.3890109890109885,4.3456728618370155
6.408791208791209,4.251888267419131
6.428571428571428,4.155466450149877
6.4483516483516485,4.056613254478227
6.468131868131868,3.9555509975864562
6.487912087912088,3.8525202814358956
6.507692307692308,3.7477821155749527
6.527472527472527,3.641620398103898
6.547252747252747,3.534344805184258
6.567032967032967,3.4262941397304854
6.5868131868131865,3.317840185202288
6.606593406593407,3.209392097314149
6.626373626373626,3.1014013399116713
6.6461538461538465,2.99436712393368
6.665934065934065,2.8888422302593697
6.685714285714286,2.785438975405257
6.705494505494506,2.684834898420695
6.725274725274725,2.5877774934908366
6.745054945054945,2.4950869783259906
6.764835164835165,2.4076556853185744
6.7846153846153845,2.326442241309509
6.804395604395605,2.2524583766984563
6.824175824175824,2.186746173072827
6.8439560439560445,2.130344093196867
6.863736263736263,2.084241513340027
6.883516483516484,2.0493238083249183
6.903296703296704,2.02631304523958
6.923076923076923,2.01571219373365
6.942857142857143,2.017762215017741
6.962637362637362,2.0324203412199164
6.9824175824175825,2.0593640885559403
7.002197802197802,2.0980201420730333
7.021978021978022,2.1476121631050047
7.041758241758242,2.2072185839173626
7.061538461538461,2.2758312517544925
7.081318681318681,2.352407806566256
7.101098901098901,2.435913694387145
7.1208791208791204,2.525352576254644
7.140659340659341,2.619785935227042
7.16043956043956,2.7183437771889443
7.1802197802197805,2.8202286503184593
7.199999999999999,2.9247150605845533
7.21978021978022,3.0311459897335644
7.23956043956044,3.1389277985435466
7.259340659340659,3.2475244134885646
7.279120879120879,3.356451385586152
7.298901098901099,3.4652701803859545
7.318681318681318,3.573582897290713
7.338461538461539,3.681027509601963
7.358241758241758,3.7872736492912704
7.3780219780219785,3.8920189204774647
7.397802197802197,3.9949857038067704
7.417582417582418,4.0959184038365954
7.437362637362638,4.194581088606449
7.457142857142857,4.290755471840748
7.476923076923077,4.384239191731462
7.496703296703297,4.474844344781363
7.516483516483516,4.5623962380214405
7.536263736263736,4.646732327630335
7.556043956043957,4.727701316357971
7.575824175824176,4.8051623860909
7.595604395604395,4.878984545365206
7.615384615384615,4.949046074647674
7.635164835164835,5.015234054801834
7.654945054945055,5.077443966376155
7.674725274725275,5.135579349243703
7.694505494505494,5.189551513730432
7.7142857142857135,5.23927929573411
7.734065934065935,5.284688849494877
7.753846153846154,5.3257134726635895
7.7736263736263735,5.362293459153304
7.793406593406592,5.394375975976934
7.813186813186814,5.4219149608903
7.832967032967034,5.444871038192057
7.852747252747252,5.463211450495799
7.872527472527472,5.476910004696749
7.892307692307693,5.485947030718023
7.912087912087912,5.490309351948142
7.931868131868132,5.489990266581632
7.951648351648351,5.484989539354765
7.971428571428572,5.475313403437047
7.991208791208791,5.460974572501296
8.010989010989011,5.441992263258771
8.03076923076923,5.418392229015981
8.05054945054945,5.3902068050947785
8.07032967032967,5.357474967262601
8.09010989010989,5.320242404654868
8.10989010989011,5.278561609043821
8.129670329670331,5.232491982728675
8.149450549450549,5.1820999678018165
8.169230769230769,5.127459200098618
8.189010989010988,5.068650691779794
8.20879120879121,5.00576304724424
8.22857142857143,4.938892717947981
8.248351648351647,4.868144302737595
8.268131868131867,4.793630901524066
8.287912087912087,4.715474531559764
8.307692307692308,4.633806617277908
8.327472527472528,4.548768566654346
8.347252747252746,4.460512449405193
8.367032967032966,4.369201795091744
8.386813186813187,4.275012532414922
8.406593406593407,4.178134094685341
8.426373626373627,4.078770720668906
8.446153846153845,3.9771429847066697
8.465934065934066,3.873489595087818
8.485714285714286,3.7680695048832273
8.505494505494505,3.6611643843748527
8.525274725274725,3.5530815080556737
8.545054945054945,3.4441571106071738
8.564835164835165,3.3347602631700637
8.584615384615384,3.2252973103120235
8.604395604395604,3.116216884392674
8.624175824175826,3.0080154702823525
8.643956043956043,2.9012434194813363
8.663736263736263,2.7965111952583936
8.683516483516483,2.6944954533890315
8.703296703296704,2.5959443099616126
8.723076923076924,2.501680807700138
8.742857142857142,2.4126031720487036
8.762637362637362,2.329679992009593
8.782417582417583,2.2539380768208224
8.802197802197803,2.1864406255891224
8.821978021978023,2.128253789417595
8.84175824175824,2.0804010151413417
8.86153846153846,2.043806906153163
8.881318681318682,2.01923549722947
8.901098901098901,2.007231000771767
8.920879120879121,2.008070918542585
8.940659340659339,2.021740649890028
8.96043956043956,2.04793497682979
8.98021978021978,2.0860860953787332
9.0,2.135412276946866
9.01978021978022,2.1949777986441354
9.03956043956044,2.263754346418367
9.05934065934066,2.340676146116534
9.079120879120879,2.424684294251182
9.098901098901099,2.5147588578857185
9.11868131868132,2.6099395451101284
9.138461538461538,2.7093369482953875
9.158241758241758,2.812136728006179
9.178021978021977,2.9175989499088044
9.197802197802199,3.025054388166942
9.217582417582419,3.133899153487097
9.237362637362637,3.2435885919879777
9.257142857142856,3.3536310712025803
9.276923076923078,3.463582025779418
9.296703296703297,3.573038465964559
9.316483516483517,3.6816340401288348
9.336263736263735,3.789034672625928
9.356043956043957,3.894934757153392
9.375824175824176,3.999053863770561
9.395604395604396,4.101133907847741
9.415384615384616,4.200936726727204
9.435164835164835,4.29824201162581
9.454945054945055,4.392845546291083
9.474725274725275,4.484557708888564
9.494505494505495,4.573202198805862
9.514285714285714,4.658614955087194
9.534065934065934,4.74064323784617
9.553846153846154,4.819144848150004
9.573626373626373,4.893987465506788
9.593406593406593,4.965048085237899
9.613186813186815,5.032212540721975
9.632967032967032,5.095375097803798
9.652747252747252,5.154438110621688
9.672527472527472,5.209311729769166
9.692307692307693,5.259913655114586
9.712087912087913,5.306168926795305
9.731868131868131,5.348009748915126
9.75164835164835,5.38537534133444
9.771428571428572,5.418211815676793
9.791208791208792,5.44647207230517
9.810989010989012,5.470115715564109
9.83076923076923,5.48910898505534
9.850549450549451,5.503424701128322
9.87032967032967,5.51304222313409
9.89010989010989,5.517947419321176
9.90989010989011,5.518132647554584
9.92967032967033,5.513596746320821
9.94945054945055,5.5043450357510135
9.96923076923077,5.490389328656426
9.989010989010989,5.471747951833658
10.008791208791209,5.448445778165825
10.028571428571428,5.4205142703290665
10.048351648351648,5.38799153721691
10.068131868131868,5.350922404527199
10.08791208791209,5.309358501325482
10.107692307692307,5.263358364815574
10.127472527472527,5.212987566024114
10.147252747252747,5.158318859654125
10.167032967032966,5.099432362000481
10.186813186813188,5.036415761564437
10.206593406593406,4.969364567879434
10.226373626373626,4.898382405091172
10.246153846153845,4.823581358052824
10.265934065934067,4.7450823801379105
10.285714285714286,4.663015773679825
10.305494505494504,4.577521755967209
10.325274725274724,4.488751126110563
10.345054945054946,4.396866050905652
10.364835164835165,4.30204099111092
10.384615384615385,4.204463793381605
10.404395604395603,4.104336977497294
10.424175824175824,4.00187925348201
10.443956043956044,3.897327308676495
10.463736263736264,3.7909379105947445
10.483516483516484,3.682990377094305
10.503296703296703,3.573789470305691
10.523076923076923,3.463668773685146
10.542857142857143,3.3529946104825266
10.562637362637362,3.242170553687437
10.582417582417584,3.131642557271595
10.602197802197802,3.0219046990653853
10.621978021978022,2.9135054565877887
10.641758241758241,2.807054324646651
10.661538461538463,2.7032284100890607
10.681318681318682,2.602778385644948
10.7010989010989,2.506532836141285
10.72087912087912,2.415399586688919
10.740659340659342,2.330362099895071
10.760439560439561,2.252468569394677
10.780219780219781,2.1828111185225416
