Frequency (Hz),Amplitude
0.0,0.1703951885714039
0.020066889632107024,0.18393374897960849
0.04013377926421405,0.21955417331920746
0.060200668896321065,0.26850535788909524
0.0802675585284281,0.32467025039685626
0.10033444816053512,0.38473329245213067
0.12040133779264213,0.4469385354720133
0.14046822742474915,0.5103038154108454
0.1605351170568562,0.5742373295448452
0.1806020066889632,0.638354477258354
0.20066889632107024,0.7023869563243127
0.22073578595317725,0.7661352638734323
0.24080267558528426,0.8294425824199958
0.2608695652173913,0.8921797442270641
0.2809364548494983,0.9542362148966008
0.3010033444816054,1.0155144920801638
0.3210702341137124,1.0759265181998492
0.34113712374581934,1.1353913223904986
0.3612040133779264,1.1938334358927036
0.3812709030100334,1.2511818074707166
0.4013377926421405,1.3073690499663773
0.42140468227424743,1.3623309108941735
0.4414715719063545,1.4160058975351622
0.4615384615384615,1.468335010388654
0.4816053511705685,1.519261553760468
0.5016722408026756,1.5687310019789518
0.5217391304347826,1.616690906174323
0.5418060200668896,1.6630908309083232
0.5618729096989966,1.7078823129276228
0.5819397993311036,1.7510188363941077
0.6020066889632107,1.7924558204147227
0.6220735785953176,1.8321506157442786
0.6421404682274248,1.8700625082960496
0.6622073578595318,1.9061527276523547
0.6822742474916387,1.9403844591800739
0.7023411371237458,1.9727228586647039
0.7224080267558528,2.003135068609489
0.7424749163879598,2.0315902355241384
0.7625418060200668,2.05805952766388
0.7826086956521738,2.0825161527859692
0.802675585284281,2.1049353755736586
0.8227424749163879,2.1252945344432623
0.8428093645484949,2.1435730575021896
0.862876254180602,2.1597524774681154
0.882943143812709,2.1738164453933693
0.903010033444816,2.1857507430672642
0.923076923076923,2.195543293991998
0.9431438127090299,2.203184172847929
0.963210702341137,2.208665613381136
0.983277591973244,2.2119820146603035
1.0033444816053512,2.213129945664263
1.0234113712374582,2.212108148172354
1.0434782608695652,2.208917537942236
1.0635451505016722,2.203561204169433
1.0836120401337792,2.1960444072344694
1.1036789297658862,2.1863745747538026
1.1237458193979932,2.174561295962156
1.1438127090301002,2.1606163144659694
1.1638795986622072,2.1445535194214136
1.1839464882943145,2.1263889352046483
1.2040133779264215,2.1061407096601283
1.2240802675585283,2.0838291010322822
1.2441471571906353,2.05947646370976
1.2642140468227423,2.0331072329406474
1.2842809364548495,2.004747908711078
1.3043478260869565,1.974427039023365
1.3244147157190636,1.9421752028624881
1.3444816053511706,1.9080249932068962
1.3645484949832773,1.8720110005242134
1.3846153846153846,1.8341697973004345
1.4046822742474916,1.7945399242905058
1.4247491638795986,1.7531618793592827
1.4448160535117056,1.710078110019649
1.4648829431438126,1.665333011088523
1.4849498327759196,1.618972929303085
1.5050167224080266,1.5710461773065472
1.5250836120401337,1.5216030601892312
1.5451505016722407,1.4706959188412003
1.5652173913043477,1.4183791958688914
1.5852842809364547,1.3647095319470812
1.605351170568562,1.3097459035176529
1.625418060200669,1.2535498171763788
1.6454849498327757,1.1961855826471117
1.6655518394648827,1.1377206961240627
1.6856187290969897,1.0782263809356432
1.705685618729097,1.0177783562726994
1.725752508361204,0.9564579428798818
1.745819397993311,0.894353677358594
1.765886287625418,0.8315637128121993
1.7859531772575248,0.7681994684442371
1.806020066889632,0.7043913239685378
1.826086956521739,0.6402977781130526
1.846153846153846,0.5761207053002816
1.866220735785953,0.5121318181494917
1.8862876254180598,0.4487207144932527
1.9063545150501673,0.3864866008284467
1.926421404682274,0.326422431651906
1.9464882943143813,0.2702982337609594
1.966555183946488,0.2214395641485376
1.9866220735785953,0.18593646016190876
2.0066889632107023,0.17242929761721132
2.026755852842809,0.18583899073253882
2.0468227424749164,0.22129015986055037
2.0668896321070234,0.2701438414480495
2.0869565217391304,0.3262969340826647
2.1070234113712374,0.38641481134303274
2.1270903010033444,0.44872268365249285
2.1471571906354514,0.5122251129144676
2.1672240802675584,0.5763214940428075
2.1872909698996654,0.640621348718821
2.2073578595317724,0.7048523365424696
2.2274247491638794,0.7688120793777398
2.2474916387959865,0.8323416335844745
2.267558528428094,0.8953101987187744
2.2876254180602005,0.9576059399419842
2.3076923076923075,1.0191302827634245
2.3277591973244145,1.0797942571570878
2.3478260869565215,1.1395160932594715
2.367892976588629,1.1982196049803597
2.3879598662207355,1.2558330831981308
2.408026755852843,1.3122885265406319
2.4280936454849495,1.3675211006427344
2.4481605351170566,1.4214687550074183
2.468227424749164,1.474071950433988
2.4882943143812706,1.5252734651794433
2.508361204013378,1.5750182579175598
2.5284280936454846,1.6232533721303777
2.548494983277592,1.6699278710033634
2.568561872909699,1.7149927949414052
2.5886287625418056,1.7584011359436387
2.608695652173913,1.800107824574723
2.6287625418060196,1.8400697263416097
2.648829431438127,1.87824564506197
2.668896321070234,1.9145963313792609
2.688963210702341,1.9490844950003985
2.709030100334448,1.9816748195469187
2.7290969899665547,2.012333979148727
2.749163879598662,2.041030656090391
2.769230769230769,2.0677355589595825
2.789297658862876,2.09242144085573
2.809364548494983,2.1150631173011614
2.82943143812709,2.1356374835644814
2.849498327759197,2.1541235311590414
2.869565217391304,2.170502363322352
2.8896321070234112,2.1847572093172807
2.9096989966555182,2.1968734374247436
2.9297658862876252,2.2068385665212684
2.9498327759197323,2.2146422761555034
2.9698996655518393,2.2202764150544954
2.9899665551839463,2.2237350080064417
3.0100334448160533,2.22501426107952
3.0301003344481603,2.2241125651492775
3.0501672240802673,2.2210304977182944
3.0702341137123748,2.2157708230231066
3.0903010033444813,2.2083384904345382
3.1103678929765888,2.19874063116853
3.1304347826086953,2.186986553336573
3.1505016722408024,2.1730877353776026
3.1705685618729094,2.157057817926754
3.1906354515050164,2.1389125941927873
3.210702341137124,2.1186699989334223
3.2307692307692304,2.0963500961397123
3.250836120401338,2.0719750655650344
3.270903010033445,2.0455691882652345
3.2909698996655514,2.0171588313527407
3.311036789297659,1.9867724322132536
3.3311036789297654,1.9544404824898913
3.351170568561873,1.9201955122103127
3.3712374581939795,1.884072074522279
3.391304347826087,1.8461067316174031
3.411371237458194,1.8063380425704467
3.4314381270903005,1.764806554013431
3.451505016722408,1.7215547948154963
3.471571906354515,1.6766272762724423
3.491638795986622,1.6300704997554638
3.511705685618729,1.5819329743700363
3.531772575250836,1.5322652479963135
3.551839464882943,1.481119956215707
3.5719063545150496,1.4285518952106178
3.591973244147157,1.3746181269629707
3.612040133779264,1.3193781282900021
3.632107023411371,1.2628939999313995
3.652173913043478,1.205230758821464
3.672240802675585,1.146456747095223
3.692307692307692,1.0866442073565667
3.712374581939799,1.025870098759944
3.732441471571906,0.9642172685405951
3.752508361204013,0.9017761594419846
3.7725752508361197,0.8386473445364688
3.7926421404682276,0.774945374012774
3.8127090301003346,0.7108047655036103
3.832775919732441,0.6463896162523218
3.852842809364548,0.5819095695111831
3.872909698996655,0.5176474045623768
3.8929765886287626,0.4540088772389765
3.9130434782608696,0.3916171861550767
3.933110367892976,0.33150060905499285
3.953177257525083,0.2754766459558178
3.9732441471571907,0.2269105494704485
3.9933110367892977,0.19182828516068462
4.013377926421405,0.17855149745116788
4.033444816053511,0.19173346995354087
4.053511705685618,0.22677837782721352
4.073578595317726,0.2753711634955425
4.093645484949833,0.33147305787814424
4.113712374581939,0.3917088810657523
4.133779264214047,0.45425563422072085
4.153846153846153,0.5180820320743083
4.173913043478261,0.5825630791521236
4.193979933110368,0.6472917991002356
4.214046822742475,0.7119844647844069
4.234113712374581,0.7764306086610206
4.254180602006689,0.8404653565709288
4.274247491638796,0.9039534208504253
4.294314381270903,0.9667794659283753
4.314381270903009,1.0288421055189916
4.334448160535117,1.0900500487944793
4.354515050167224,1.1503195616822366
4.374581939799331,1.2095727574596666
4.394648829431437,1.2677364244389961
4.414715719063545,1.3247412098755662
4.434782608695651,1.3805210452126229
4.454849498327759,1.4350127379543136
4.474916387959866,1.4881556805390765
4.494983277591973,1.5398916425990763
4.5150501672240795,1.5901646234286102
4.535117056856188,1.638920748416831
4.555183946488294,1.6861081978854313
4.575250836120401,1.7316771599899645
4.595317725752508,1.77557980158621
4.615384615384615,1.8177702525482131
4.635451505016722,1.8582046001590526
4.655518394648829,1.8968408910177712
4.6755852842809364,1.9336391385078615
4.695652173913043,1.968561334318908
4.71571906354515,2.001571462846561
4.735785953177258,2.0326355175479387
4.7558528428093645,2.0617215185219027
4.775919732441471,2.088799530731124
4.795986622073578,2.1138416823977204
4.816053511705686,2.1368221831940253
4.8361204013377925,2.157717341921013
4.856187290969899,2.1765055834232907
4.8762541806020065,2.1931674645353834
4.896321070234113,2.207685688890747
4.916387959866221,2.220045120455748
4.936454849498328,2.2302327956757955
4.956521739130435,2.2382379341427385
4.976588628762541,2.2440519477105454
4.996655518394649,2.2476684480028104
5.016722408026756,2.249083252269582
5.036789297658863,2.2482943875645747
5.056856187290969,2.245302093225676
5.076923076923077,2.240108821654074
5.096989966555184,2.232719237398455
5.117056856187291,2.223140214563501
5.137123745819398,2.2113808325739956
5.157190635451505,2.197452370339827
5.177257525083611,2.181368298882215
5.197324414715719,2.163144272498569
5.217391304347826,2.142798118563122
5.237458193979933,2.1203498260835927
5.257525083612039,2.0958215331614483
5.277591973244148,2.0692375135366436
5.297658862876254,2.040624162437903
5.317725752508361,2.010009982009421
5.337792642140468,1.9774255666464358
5.357859531772575,1.942903588650193
5.377926421404682,1.906478784710645
5.397993311036789,1.8681879438512614
5.418060200668896,1.8280698976318324
5.438127090301003,1.7861655136159602
5.458193979933109,1.7425176933856086
5.478260869565218,1.6971713767505465
5.498327759197324,1.650173554288726
5.518394648829431,1.6015732910124139
5.538461538461538,1.551421764853918
5.558528428093646,1.4997723249045085
5.578595317725752,1.4466805760709998
5.598662207357859,1.39220449926178
5.618729096989966,1.3364046197214936
5.638795986622073,1.2793442412353875
5.65886287625418,1.221089771463819
5.678929765886288,1.161711175002244
5.698996655518394,1.1012826081236295
5.719063545150501,1.039883316300955
5.739130434782608,0.97759891898664
5.759197324414716,0.914523277167666
5.7792642140468224,0.8507612587068345
5.799331103678929,0.7864329234377782
5.8193979933110365,0.7216800201256491
5.839464882943144,0.6566763730152089
5.8595317725752505,0.5916450544763725
5.879598662207358,0.5268878792314563
5.8996655518394645,0.46283824405899726
5.919732441471571,0.40016010310855177
5.9397993311036785,0.33994113502812917
5.959866220735786,0.2840774209309833
5.9799331103678925,0.23599812940977188
5.999999999999999,0.20162743766924793
6.020066889632107,0.18879761290129568
6.040133779264214,0.20173596768627275
6.060200668896321,0.23622469627152218
6.080267558528428,0.28444494860357344
6.100334448160535,0.3404830100245589
6.120401337792642,0.40091525950976475
6.1404682274247495,0.4638480985704646
6.160535117056856,0.5281947906148261
6.180602006688963,0.5932915496963621
6.200668896321069,0.6587047256210141
6.2207357859531776,0.7241319927915477
6.240802675585284,0.7893495907055078
6.260869565217391,0.8541828712512879
6.280936454849498,0.9184891489623521
6.301003344481605,0.9821473279930829
6.321070234113712,1.0450514137691111
6.341137123745819,1.1071063338424445
6.361204013377926,1.1682251770236203
6.381270903010033,1.2283273294701311
6.40133779264214,1.287337193085771
6.421404682274248,1.345183290924471
6.441471571906354,1.4017976352481187
6.461538461538461,1.457115277217987
6.481605351170568,1.511073984309848
6.501672240802676,1.5636140088872148
6.521739130434782,1.6146779226903423
6.54180602006689,1.66421049953112
6.561872909698996,1.712158633580915
6.581939799331103,1.7584712841431158
6.60200668896321,1.8030994402468812
6.622073578595318,1.8459961001284337
6.642140468227424,1.88711626190468
6.662207357859531,1.926416922642482
6.682274247491639,1.9638570836849585
6.702341137123746,1.9993977605842532
6.722408026755852,2.0330019963551873
6.742474916387959,2.064634877039952
6.762541806020066,2.094263548784426
6.782608695652174,2.1218572357884544
6.80267558528428,2.14738725861809
6.822742474916388,2.1708270524659166
6.842809364548494,2.1921521850236663
6.862876254180601,2.2113403736927886
6.882943143812709,2.2283715019087653
6.903010033444816,2.2432276343955153
6.9230769230769225,2.2558930311992023
6.94314381270903,2.266354160379005
6.963210702341137,2.2745997092553103
6.983277591973244,2.2806205941363267
7.0033444816053505,2.2844099684614987
7.023411371237458,2.2859632293156724
7.0434782608695645,2.2852780222827245
7.063545150501672,2.282354244620392
7.083612040133779,2.277194046751462
7.103678929765886,2.269801832079144
7.123745819397993,2.2601842551480176
7.143812709030099,2.2483502181856703
7.1638795986622075,2.234310866075538
7.183946488294314,2.2180795798282493
7.204013377926421,2.1996719686375985
7.224080267558528,2.179105860629805
7.2441471571906355,2.1564012924400786
7.264214046822742,2.1315804977817123
7.2842809364548495,2.1046678952100306
7.304347826086956,2.075690075328935
7.324414715719063,2.044675787743892
7.34448160535117,2.011655928134896
7.364548494983278,1.9766635259106327
7.384615384615384,1.9397337330159832
7.404682274247491,1.9009038146069734
7.424749163879598,1.8602131424900754
7.444816053511706,1.8177031924601734
7.464882943143812,1.773417546983406
7.48494983277592,1.727401905083081
7.505016722408026,1.6797041018374899
7.525083612040134,1.6303741406415315
7.545150501672239,1.5794642423963197
7.565217391304348,1.5270289171871099
7.585284280936455,1.4731250659562882
7.605351170568561,1.417812122428226
7.625418060200669,1.3611522494789616
7.645484949832775,1.303210609862055
7.665551839464882,1.244055739638732
7.685618729096991,1.1837600653216946
7.705685618729096,1.1224006250950238
7.725752508361204,1.0600600846492285
7.74581939799331,0.9968281862605903
7.765886287625418,0.932803848218379
7.785953177257525,0.8680982631226699
7.806020066889631,0.8028395699672781
7.826086956521739,0.7371800770935355
7.846153846153847,0.67130775159216
7.866220735785952,0.6054650951206989
7.88628762541806,0.539981293204875
7.906354515050166,0.4753291553258873
7.926421404682274,0.41223004238166455
7.946488294314381,0.35185371814784067
7.966555183946488,0.2962013133575012
7.986622073578595,0.24878051420438466
8.006688963210701,0.21537420973787536
8.02675585284281,0.20320657592821095
8.046822742474916,0.21597713275235375
8.066889632107022,0.24987659917250676
8.08695652173913,0.29769273913646865
8.107023411371236,0.3537012136533957
8.127090301003344,0.4144379831421854
8.147157190635452,0.47792616469288496
8.167224080267557,0.5430085431489838
8.187290969899665,0.6089701443345212
8.207357859531772,0.6753413054302039
8.227424749163879,0.7417942102120629
8.247491638795987,0.808086691855767
8.267558528428093,0.8740304745451046
8.2876254180602,0.9394725120442694
8.307692307692307,1.0042836209582344
8.327759197324415,1.0683513309698311
8.347826086956522,1.1315752583023009
8.367892976588628,1.1938640370091897
8.387959866220736,1.255133239653592
8.408026755852843,1.3153039425594844
8.42809364548495,1.3743017207140562
8.448160535117056,1.432055935012071
8.468227424749163,1.4884992221209372
8.488294314381271,1.5435671271221851
8.508361204013378,1.5971978382537535
8.528428093645484,1.6493319956241985
8.548494983277592,1.699912554133471
8.568561872909697,1.7488846865051166
8.588628762541806,1.7961957162399245
8.608695652173914,1.84179507302934
8.628762541806019,1.8856342650992033
8.648829431438127,1.927666864340348
8.668896321070234,1.967848501087782
8.68896321070234,2.00613686614852
8.709030100334449,2.042491718224702
8.729096989966555,2.076874895288537
8.749163879598662,2.109250328775518
8.769230769230768,2.139584059697791
8.789297658862875,2.1678442559626974
8.809364548494983,2.194001230321158
8.82943143812709,2.21802745848239
8.849498327759196,2.239897597017948
8.869565217391303,2.259588500748077
8.889632107023411,2.2770792393591632
8.909698996655518,2.2923511130466756
8.929765886287624,2.3053876670153817
8.949832775919733,2.31617470469974
8.96989966555184,2.3247002995935566
8.989966555183946,2.33095480560077
9.010033444816054,2.334930865838681
9.030100334448159,2.3366234198426272
9.050167224080267,2.336029709137291
9.070234113712376,2.3331492811549723
9.09030100334448,2.3279839914954854
9.110367892976589,2.3205380045374735
9.130434782608695,2.3108177924255737
9.150501672240802,2.29883213247368
9.17056856187291,2.284592103042118
9.190635451505017,2.268111077965264
9.210702341137123,2.249404719628426
9.23076923076923,2.2284909708173473
9.250836120401337,2.2053900454942825
9.270903010033445,2.1801244186890223
9.290969899665551,2.1527188157370767
9.311036789297658,2.1232002011488387
9.331103678929765,2.091597767458415
9.351170568561873,2.0579429244815794
9.37123745819398,2.0222692895129675
9.391304347826086,1.9846126791211707
9.411371237458194,1.9450111033641098
9.4314381270903,1.9035047634581959
9.451505016722408,1.860136054208973
9.471571906354516,1.8149495728708276
9.49163879598662,1.7679921365785003
9.511705685618729,1.719312811128335
9.531772575250837,1.6689629547429834
9.551839464882942,1.6169962816190195
9.57190635451505,1.5634689516621336
9.591973244147155,1.5084396950517462
9.612040133779264,1.4519699834315973
9.632107023411372,1.3941242640335405
9.652173913043477,1.3349702795829979
9.672240802675585,1.2745795064667298
9.692307692307692,1.21302775806662
9.712374581939798,1.1503960221499772
9.732441471571907,1.0867716353836512
9.752508361204013,1.0222499522992905
9.77257525083612,0.9569367541785786
9.792642140468226,0.8909517901190922
9.812709030100335,0.8244340936771003
9.832775919732441,0.7575501607439025
9.852842809364548,0.6905068773488018
9.872909698996656,0.6235725906826474
9.89297658862876,0.5571126214680866
9.91304347826087,0.4916512563273553
9.933110367892976,0.42798364438474185
9.953177257525082,0.36738242103076135
9.97324414715719,0.3119746554774577
9.993311036789297,0.265351304900656
10.013377926421404,0.23311672873960965
10.033444816053512,0.22182425603438605
10.053511705685617,0.23460095426642394
10.073578595317725,0.2680177921591685
10.093645484949834,0.31550887917022685
10.113712374581938,0.37159590999512776
10.133779264214047,0.432796390593802
10.153846153846153,0.4970485964353534
10.17391304347826,0.5631158873578037
10.193979933110368,0.6302227079426694
10.214046822742475,0.6978554795876026
10.234113712374581,0.7656546702032724
10.254180602006688,0.8333548841237762
10.274247491638796,0.9007504695414893
10.294314381270903,0.9676750703036294
10.31438127090301,1.033989057218969
10.334448160535118,1.0995715647848883
10.354515050167223,1.1643153073497574
10.37458193979933,1.228123123100438
10.394648829431437,1.2909056215511463
10.414715719063544,1.352579553280184
10.434782608695652,1.4130666629759647
10.454849498327757,1.4722928724406579
10.474916387959865,1.5301876929612486
10.494983277591974,1.5866837997345222
10.515050167224079,1.6417167224664089
10.535117056856187,1.695224620341135
10.555183946488295,1.7471481189659146
10.5752508361204,1.7974301932929573
10.595317725752508,1.8460160849348002
10.615384615384615,1.8928532453792408
10.635451505016722,1.9378912988029569
10.65551839464883,1.9810820197572154
10.675585284280936,2.022379322143519
10.695652173913043,2.061739256737482
10.71571906354515,2.099120015143318
10.735785953177256,2.134481938528829
10.755852842809364,2.1677875298444946
10.775919732441471,2.199001468500595
