Time (s),Filtered Signal
0.0,-0.05362729689043677
0.03337008452774715,-0.12568515311746928
0.0667401690554943,-0.10046627279283746
0.10011025358324147,0.07283848706086204
0.1334803381109886,0.3743261439492309
0.16685042263873576,0.7209732797480664
0.20022050716648293,1.0030762277890464
0.23359059169423008,1.1327895187889334
0.2669606762219772,1.0826069203456437
0.30033076074972437,0.8964426682484566
0.3337008452774715,0.6686227461579998
0.36707092980521866,0.5006310422316722
0.40044101433296586,0.45524495827968836
0.433811098860713,0.5285043683619415
0.46718118338846015,0.6516961739969603
0.5005512679162073,0.7220653083162514
0.5339213524439544,0.6482916272014723
0.5672914369717016,0.3905030202125509
0.6006615214994487,-0.022462865695426774
0.6340316060271959,-0.5050331096376303
0.667401690554943,-0.9490697697427162
0.7007717750826902,-1.2635641018733326
0.7341418596104373,-1.4021421148147268
0.7675119441381845,-1.368352406301145
0.8008820286659317,-1.2005625463979515
0.8342521131936789,-0.9477557169769029
0.867622197721426,-0.6498661499953797
0.9009922822491732,-0.33117128435880544
0.9343623667769203,-0.006448047988549155
0.9677324513046675,0.3076128556580418
1.0011025358324146,0.5851726942500757
1.0344726203601617,0.7939339727216774
1.0678427048879089,0.9068305931229215
1.101212789415656,0.9160074516556979
1.1345828739434032,0.8404642200537306
1.1679529584711503,0.7215583858898916
1.2013230429988975,0.606666285359221
1.2346931275266446,0.527702887372616
1.2680632120543918,0.48471096734601654
1.301433296582139,0.44338055982108354
1.334803381109886,0.34941754959030485
1.3681734656376332,0.15472264477056058
1.4015435501653803,-0.15583579934230632
1.4349136346931275,-0.5495118518092724
1.4682837192208746,-0.9505297174847657
1.5016538037486218,-1.264147469185154
1.535023888276369,-1.4108685579626332
1.568393972804116,-1.3569442232186322
1.6017640573318634,-1.1284007352127143
1.6351341418596106,-0.8023631412853786
1.6685042263873577,-0.4786745928087276
1.7018743109151049,-0.24286845112901967
1.735244395442852,-0.13512988227847983
1.7686144799705992,-0.13756219587690885
1.8019845644983463,-0.1847897985312626
1.8353546490260935,-0.1935330175229222
1.8687247335538406,-0.09897200697701612
1.9020948180815878,0.11729635017050188
1.935464902609335,0.4195922336896953
1.968834987137082,0.7340262800829498
2.002205071664829,0.9806908464218914
2.0355751561925763,1.107396542019278
2.0689452407203235,1.1094002244107115
2.1023153252480706,1.0263299245540405
2.1356854097758178,0.9186925418057112
2.169055494303565,0.836318965432701
2.202425578831312,0.7947219196490732
2.235795663359059,0.770825094657602
2.2691657478868064,0.7193482597994252
2.3025358324145535,0.6005921335757155
2.3359059169423007,0.40474756170981446
2.369276001470048,0.15985807021976334
2.402646085997795,-0.08089714522341651
2.436016170525542,-0.2661639436566983
2.4693862550532892,-0.3736153683706724
2.5027563395810364,-0.42290993511691133
2.5361264241087835,-0.4668589792394726
2.5694965086365307,-0.5641883026200226
2.602866593164278,-0.7467468360707962
2.636236677692025,-0.997297054544098
2.669606762219772,-1.2494694410252187
2.7029768467475193,-1.4112424363097484
2.7363469312752664,-1.4022929070724137
2.7697170158030135,-1.1889720347083919
2.8030871003307607,-0.8015683354567511
2.836457184858508,-0.3263799961545729
2.869827269386255,0.12389837180361972
2.903197353914002,0.4490019873259929
2.9365674384417493,0.593583652769917
2.9699375229694964,0.5614786862120704
3.0033076074972436,0.4080458580856386
3.0366776920249907,0.2156717730140831
3.070047776552738,0.06326509559090586
3.103417861080485,0.0013518149204216259
3.136787945608232,0.0406001666973279
3.1701580301359793,0.15546483100167258
3.203528114663727,0.298984992448353
3.236898199191474,0.4217134271482202
3.270268283719221,0.4878579925414973
3.3036383682469683,0.4841143249891938
3.3370084527747155,0.4198852698658421
3.3703785373024626,0.32039182629362906
3.4037486218302098,0.21595337613903112
3.437118706357957,0.13129449474834917
3.470488790885704,0.07821050842004004
3.503858875413451,0.053552099400579194
3.5372289599411983,0.04269218091345847
3.5705990444689455,0.026910305581383645
3.6039691289966926,-0.008094776679287917
3.63733921352444,-0.06573985200599308
3.670709298052187,-0.13662855396415202
3.704079382579934,-0.20191312085668603
3.7374494671076812,-0.2404486227410652
3.7708195516354284,-0.23650978808597847
3.8041896361631755,-0.1846669427238152
3.8375597206909227,-0.0900919646408611
3.87092980521867,0.034789933281839235
3.904299889746417,0.17444752518845738
3.937669974274164,0.31248351061575175
3.9710400588019112,0.4314596279756538
4.004410143329658,0.5123900587157884
4.0377802278574055,0.5368167784526691
4.071150312385153,0.4925307665889009
4.1045203969129,0.3806720513327675
4.137890481440647,0.21965753953858314
4.171260565968394,0.04210877698941671
4.204630650496141,-0.1154370195941723
4.238000735023888,-0.22593326381857826
4.2713708195516356,-0.28198754999939846
4.304740904079383,-0.2977017715915267
4.33811098860713,-0.30120848049023136
4.371481073134877,-0.3214809158786563
4.404851157662624,-0.37554834665267534
4.438221242190371,-0.46166486023160586
4.471591326718118,-0.5608854522689821
4.504961411245866,-0.6456592341964502
4.538331495773613,-0.6912630347837159
4.57170158030136,-0.6851856602617694
4.605071664829107,-0.6309119904115862
4.638441749356854,-0.5451327831685565
4.671811833884601,-0.45007161222436576
4.7051819184123485,-0.3643540193814621
4.738552002940096,-0.29610519692045945
4.771922087467843,-0.2408250241482405
4.80529217199559,-0.18460339377006846
4.838662256523337,-0.1111374304897402
4.872032341051084,-0.00948087119367228
4.905402425578831,0.1209505769458436
4.9387725101065785,0.27053962412290655
4.972142594634326,0.4248314377364599
5.005512679162073,0.5722937612148071
5.03888276368982,0.7098561422322355
5.072252848217567,0.8422443669692576
5.105622932745314,0.9744660996959974
5.138993017273061,1.1013498770692736
5.1723631018008085,1.2010320857753842
5.205733186328556,1.2383314973750699
5.239103270856303,1.1788174514981138
5.27247335538405,1.007627763297395
5.305843439911797,0.7428411535957529
5.339213524439544,0.4346037189140458
5.372583608967291,0.14819646810562478
5.4059536934950385,-0.061839663231870505
5.439323778022786,-0.1738329926635872
5.472693862550533,-0.2061123983726042
5.50606394707828,-0.20579791719510995
5.539434031606027,-0.22567512266503006
5.572804116133774,-0.30140459280676196
5.606174200661521,-0.43996909877567336
5.6395442851892685,-0.6230316281867959
5.672914369717016,-0.8204878410930088
5.706284454244763,-1.0048885570641817
5.73965453877251,-1.1587433737028445
5.773024623300257,-1.2724420582277358
5.806394707828004,-1.3367647458741174
5.839764792355751,-1.3370085618717114
5.873134876883499,-1.2541779482486772
5.906504961411246,-1.0737555009670074
5.939875045938993,-0.7973342325110365
5.97324513046674,-0.4499144353629369
6.006615214994487,-0.07743668833058696
6.039985299522234,0.2657396099125737
6.073355384049981,0.534053517509214
6.106725468577729,0.7044568496661079
6.140095553105476,0.7802044440586309
6.173465637633223,0.7837567120397724
6.20683572216097,0.7437211332389937
6.240205806688717,0.6835024688674373
6.273575891216464,0.617300018429385
6.3069459757442115,0.5537054542699469
6.340316060271959,0.5020116389676031
6.373686144799706,0.47485771145513084
6.407056229327454,0.4839476357168261
6.440426313855201,0.5310991858719265
6.473796398382948,0.6009903077845293
6.507166482910695,0.6618283215479974
6.540536567438442,0.6757669292675542
6.5739066519661895,0.6149482903128765
6.607276736493937,0.47516457188706646
6.640646821021684,0.27964480513365947
6.674016905549431,0.07018180384247363
6.707386990077178,-0.1107717257777428
6.740757074604925,-0.23865587757310466
6.774127159132672,-0.31698895810653865
6.8074972436604195,-0.3739959763160506
6.840867328188167,-0.4469329693471304
6.874237412715914,-0.561350610226619
6.907607497243661,-0.7152225317267251
6.940977581771408,-0.8758747313232804
6.974347666299155,-0.9917854431898645
7.007717750826902,-1.014265590075106
7.0410878353546495,-0.9191628757911148
7.074457919882397,-0.7184883558489461
7.107828004410144,-0.4564543479410415
7.141198088937891,-0.1916788437731828
7.174568173465638,0.02621259485702593
7.207938257993385,0.17476962093651394
7.241308342521132,0.2634466166663427
7.27467842704888,0.3232207771060809
7.308048511576627,0.38685826377039767
7.341418596104374,0.47013040476765877
7.374788680632121,0.5635808595209808
7.408158765159868,0.6388157110762742
7.441528849687615,0.665639629695758
7.4748989342153624,0.6306645179921718
7.50826901874311,0.5472233760760957
7.541639103270857,0.4509385569030317
7.575009187798604,0.38277440003265284
7.608379272326351,0.3679621640808139
7.641749356854098,0.4014222234658092
7.675119441381845,0.4471023843367051
7.7084895259095925,0.45173756397651044
7.74185961043734,0.36656682519008343
7.775229694965087,0.16710602202590633
7.808599779492834,-0.13726632911006842
7.841969864020581,-0.5066626729751226
7.875339948548328,-0.8836589626884915
7.908710033076075,-1.2091328208866827
7.9420801176038225,-1.4347626151183521
7.97545020213157,-1.5294253245602332
8.008820286659317,-1.4805326351118773
8.042190371187063,-1.2932186770920482
8.075560455714811,-0.9895046949575804
8.108930540242557,-0.607181664701241
8.142300624770305,-0.19622769386605352
8.175670709298052,0.18920899154220464
8.2090407938258,0.5027240097528308
8.242410878353546,0.7176943256415409
8.275780962881294,0.8340184767497507
8.30915104740904,0.8755925039327448
8.342521131936788,0.8786943794520524
8.375891216464534,0.8760536191673836
8.409261300992283,0.8837683651143817
8.442631385520029,0.8969420795464977
8.476001470047777,0.8956023069433666
8.509371554575523,0.8574530272987514
8.542741639103271,0.7708888792409746
8.57611172363102,0.641925461087939
8.609481808158765,0.49196608340400605
8.642851892686513,0.3478691289001958
8.67622197721426,0.22936393961767054
8.709592061742008,0.13987411642883685
8.742962146269754,0.0649612430605752
8.776332230797502,-0.021040261977091506
8.809702315325248,-0.14328419707321455
8.843072399852996,-0.31471923988997147
8.876442484380743,-0.5293022946749979
8.90981256890849,-0.7626485188531148
8.943182653436237,-0.9794205624443182
8.976552737963985,-1.1440994366146957
9.009922822491731,-1.230807015304282
9.04329290701948,-1.2288063962313365
9.076662991547225,-1.142494658816098
9.110033076074973,-0.9869876337722583
9.14340316060272,-0.7818580985188209
9.176773245130468,-0.5458378880231443
9.210143329658214,-0.294400118891171
9.243513414185962,-0.04049924019082666
9.276883498713708,0.20293986520244575
9.310253583241456,0.42108861863944363
9.343623667769203,0.5977041983400064
9.37699375229695,0.7183351019614556
9.410363836824697,0.7747619985017526
9.443733921352445,0.7683059431347633
9.477104005880191,0.7101344230178175
9.51047409040794,0.6181893848114144
9.543844174935685,0.5119386743286023
9.577214259463434,0.4070401074245417
9.61058434399118,0.3119528880333568
9.643954428518928,0.22771907940063035
9.677324513046674,0.15092440831871132
9.710694597574422,0.07861429671963314
9.744064682102168,0.013071796021501852
9.777434766629916,-0.03580936972878136
9.810804851157663,-0.05215045111006071
9.84417493568541,-0.019915711542905338
9.877545020213157,0.06856825440716631
9.910915104740905,0.20440644632847005
9.944285189268651,0.3579418590261107
9.9776552737964,0.48168319419818223
10.011025358324146,0.5213905011138759
10.044395442851894,0.4331810565321122
10.07776552737964,0.20134896704902652
10.111135611907388,-0.1500402418128304
10.144505696435134,-0.5576266801125347
10.177875780962882,-0.9332572888001054
10.211245865490628,-1.1890306545808922
10.244615950018376,-1.2646018481260934
10.277986034546123,-1.1465180226879461
10.31135611907387,-0.8716007260061828
10.344726203601617,-0.5124756399513191
10.378096288129365,-0.15098234035353647
10.411466372657111,0.1491762839886577
10.44483645718486,0.35872718176879403
10.478206541712606,0.48179854027171687
10.511576626240354,0.5403795907438328
10.5449467107681,0.5547495022133777
10.578316795295848,0.5319703911082336
10.611686879823594,0.4687671442853507
10.645056964351342,0.36526230649989966
10.678427048879088,0.23835999319604478
10.711797133406836,0.12333937961840813
10.745167217934583,0.059977912089875615
10.77853730246233,0.07039083151067425
10.811907386990077,0.1424806131512579
10.845277471517825,0.23068166804583431
10.878647556045571,0.275630213029299
10.91201764057332,0.2327744507822224
10.945387725101066,0.09417051216316988
10.978757809628814,-0.108510920808538
11.01212789415656,-0.32077300646824064
11.045497978684308,-0.49157587721671814
11.078868063212054,-0.5940963264013607
11.112238147739802,-0.6304180925383059
11.145608232267548,-0.6200169701911513
11.178978316795297,-0.5814361433169686
11.212348401323043,-0.5193625925840134
11.24571848585079,-0.42428587901769854
11.279088570378537,-0.2830499506353469
11.312458654906285,-0.09199995211388362
11.345828739434031,0.1359597947209634
11.37919882396178,0.3738666562733431
11.412568908489526,0.5896920064762673
11.445938993017274,0.7554652850691008
11.47930907754502,0.8518063796812253
11.512679162072768,0.8677219173649818
11.546049246600514,0.799246249992397
11.579419331128262,0.650653872000609
11.612789415656009,0.43868828210978383
11.646159500183757,0.19621034437300278
11.679529584711503,-0.0299689158721962
11.71289966923925,-0.1900224179404563
11.746269753766997,-0.24859611626269434
11.779639838294745,-0.2015480554182928
11.813009922822491,-0.08281690090169017
11.84638000735024,0.04454051413051139
11.879750091877986,0.11187786264241502
11.913120176405734,0.07388309015766625
11.94649026093348,-0.07051429458984022
11.979860345461228,-0.276270168598564
12.013230429988974,-0.4717610655541082
12.046600514516722,-0.5912579949701443
12.079970599044469,-0.6046564193461529
12.113340683572217,-0.5295389363393957
12.146710768099963,-0.41947016526361236
12.180080852627711,-0.3347695123940311
12.213450937155457,-0.311146895205874
12.246821021683205,-0.342471428860987
12.280191106210951,-0.38613452101106505
12.3135611907387,-0.3873529470364593
12.346931275266446,-0.30898609474596667
12.380301359794194,-0.15116840139852736
12.41367144432194,0.048840646766666385
12.447041528849688,0.2353900996661933
12.480411613377434,0.36105758522821585
12.513781697905182,0.40719671118668205
12.547151782432929,0.38871848002240533
12.580521866960677,0.34237737453764283
12.613891951488423,0.306331586482121
12.647262036016171,0.3022732844991295
12.680632120543917,0.3285989717595321
12.714002205071665,0.3661795678670399
12.747372289599411,0.39156146441544376
12.78074237412716,0.3894911166395666
12.814112458654908,0.35850114100500496
12.847482543182654,0.30814166345137706
12.880852627710402,0.25117218561927657
12.914222712238148,0.1961268416947407
12.947592796765896,0.14443090489743712
12.980962881293642,0.09284385635144894
13.01433296582139,0.038590913890194596
13.047703050349137,-0.01692683759330089
13.081073134876885,-0.06871412693472313
13.114443219404631,-0.11277097385003607
13.147813303932379,-0.15129797601758763
13.181183388460125,-0.19411838943741214
13.214553472987873,-0.25390778209060866
13.24792355751562,-0.33684592924586915
13.281293642043368,-0.43394617836519805
13.314663726571114,-0.519114090795811
13.348033811098862,-0.557023385153048
13.381403895626608,-0.5185219382860103
13.414773980154356,-0.3964582502086235
13.448144064682102,-0.21346840504601486
13.48151414920985,-0.016533383325954196
13.514884233737597,0.14041888479825873
13.548254318265345,0.2182902239058967
13.581624402793091,0.2087197631151568
13.614994487320839,0.1364257499959624
13.648364571848585,0.046824906122636324
13.681734656376333,-0.015077407675703852
13.71510474090408,-0.024421423624830848
13.748474825431828,0.014336556013468208
13.781844909959574,0.07266630659330187
13.815214994487322,0.11446702000913589
13.848585079015068,0.11546901598136729
13.881955163542816,0.07617510170656831
13.915325248070562,0.022472637059169243
13.94869533259831,-0.005907767603187353
13.982065417126057,0.026603161941724855
14.015435501653805,0.13500159479338766
14.048805586181551,0.30537457967952414
14.082175670709299,0.496955697355643
14.115545755237045,0.6526522319470539
14.148915839764793,0.7138940846057726
14.18228592429254,0.6358415264021812
14.215656008820288,0.4003540914213584
14.249026093348034,0.024968902312885292
14.282396177875782,-0.4342480073297984
14.315766262403528,-0.8888380724890587
14.349136346931276,-1.2351805823860456
14.382506431459023,-1.3814742546765832
14.41587651598677,-1.277733094805194
14.449246600514517,-0.9376055661758282
14.482616685042265,-0.44086016610901496
14.515986769570011,0.08836699124056267
14.54935685409776,0.5219276625872398
14.582726938625505,0.7713446712177419
14.616097023153253,0.8164157193232665
14.649467107681,0.7061957739842902
14.682837192208748,0.5322125777366514
14.716207276736494,0.3864867164896978
14.749577361264242,0.3234993304160479
14.782947445791988,0.3425206039055378
14.816317530319736,0.39638183306643443
14.849687614847483,0.4202470411514637
14.88305769937523,0.3653538811448675
14.916427783902977,0.22184178581765754
14.949797868430725,0.021451267858104167
14.983167952958471,-0.17876746869166749
15.01653803748622,-0.32188782463549565
15.049908122013965,-0.372885340956512
15.083278206541713,-0.32769835471110786
15.11664829106946,-0.20832432887749133
15.150018375597208,-0.04998668075852843
15.183388460124954,0.11089205255271416
15.216758544652702,0.24217801988682786
15.250128629180448,0.31546545028104156
15.283498713708196,0.3048949820132638
15.316868798235943,0.19091422583035808
15.35023888276369,-0.030177186631271568
15.383608967291437,-0.33611634922305433
15.416979051819185,-0.6759807657397956
15.450349136346931,-0.9799385969644623
15.48371922087468,-1.1794300298163587
15.517089305402425,-1.2291959031162283
15.550459389930174,-1.120847092617342
15.58382947445792,-0.8819712881225804
15.617199558985668,-0.5623901688371729
15.650569643513414,-0.21543270416014557
15.683939728041162,0.11658139334529202
15.717309812568908,0.40736016101293504
15.750679897096656,0.6431400105220678
15.784049981624403,0.8162511160872006
15.81742006615215,0.9216606169746899
15.850790150679897,0.9587751225705926
15.884160235207645,0.935983021365162
15.917530319735391,0.8727745662039728
15.95090040426314,0.7955256611788196
15.984270488790886,0.7273155103380453
16.017640573318634,0.6766807995850185
16.05101065784638,0.6320371328762541
16.084380742374126,0.5662699806760825
16.117750826901876,0.4507260489637295
16.151120911429622,0.27233289007867895
16.18449099595737,0.044944059012470575
16.217861080485115,-0.19200316200234135
16.251231165012864,-0.388441106814492
16.28460124954061,-0.5060229484954009
16.317971334068357,-0.5371273474937696
16.351341418596103,-0.5105256527182104
16.384711503123853,-0.4797688326497307
16.4180815876516,-0.4988091339814545
16.451451672179346,-0.5959023755305571
16.484821756707092,-0.7580210993873993
16.51819184123484,-0.9332344859282973
16.551561925762588,-1.0502428138386362
16.584932010290334,-1.0465862144811846
16.61830209481808,-0.8935074340078967
16.65167217934583,-0.6073562440434088
16.685042263873576,-0.2435534070354214
16.718412348401323,0.12345002244556383
16.75178243292907,0.42533379436143964
16.78515251745682,0.6200447483991575
16.818522601984565,0.699949636990214
16.85189268651231,0.6868812210390115
16.885262771040058,0.618480624613196
16.918632855567807,0.5328908785304429
16.952002940095554,0.45781300567303485
16.9853730246233,0.4064275138804834
17.018743109151046,0.37905408832646276
17.052113193678796,0.367591439257005
17.085483278206542,0.36017081162237874
17.11885336273429,0.3450388970424162
17.15222344726204,0.3139352948681046
17.185593531789785,0.26522751000879685
17.21896361631753,0.2060159230980588
17.252333700845277,0.1513932937085932
17.285703785373027,0.11923342267998636
17.319073869900773,0.12080572405565702
17.35244395442852,0.1505012708823551
17.385814038956266,0.18027874032107646
