Time (s),Filtered Signal
0.0,-8.750169259907583e-05
0.03337004405286344,-0.36576865065417374
0.06674008810572687,-0.5956894815841333
0.10011013215859031,-0.603652333643738
0.13348017621145375,-0.3836280479009277
0.16685022026431717,-0.008411722450696922
0.20022026431718062,0.40130871635823406
0.23359030837004408,0.7235497383796123
0.2669603524229075,0.87781016310149
0.3003303964757709,0.8476074897311634
0.33370044052863435,0.6761472981458887
0.3670704845814978,0.4401940858256425
0.40044052863436125,0.21549076157021974
0.43381057268722467,0.04870201133565156
0.46718061674008815,-0.05400560901720994
0.5005506607929515,-0.11992025092284234
0.533920704845815,-0.1900727929770002
0.5672907488986785,-0.29660674270432075
0.6006607929515418,-0.4464964265726951
0.6340308370044053,-0.6171409287081853
0.6674008810572687,-0.7643846025787931
0.7007709251101322,-0.839109374838082
0.7341409691629956,-0.8058773722489075
0.767511013215859,-0.6567261809489944
0.8008810572687225,-0.41513836041316754
0.834251101321586,-0.12883175834790977
0.8676211453744493,0.1458339634612135
0.9009911894273128,0.3618663412410445
0.9343612334801763,0.49517986339627607
0.9677312775330397,0.5486182282217228
1.001101321585903,0.5454027950854081
1.0344713656387665,0.5155061848329099
1.06784140969163,0.4815269797928847
1.1012114537444935,0.4506505309900416
1.134581497797357,0.4160165315951372
1.1679515418502202,0.3658314614064687
1.2013215859030837,0.29452182235418334
1.2346916299559472,0.209376810442622
1.2680616740088106,0.12891167932408884
1.3014317180616741,0.07392432135922576
1.3348017621145374,0.056217378146492435
1.3681718061674009,0.07112880013272803
1.4015418502202643,0.09795687030081363
1.4349118942731278,0.10834388494527439
1.4682819383259913,0.0787655756826057
1.5016519823788548,0.0012874166278925422
1.535022026431718,-0.112484570346168
1.5683920704845815,-0.23624865470946563
1.601762114537445,-0.3406551886565398
1.6351321585903085,-0.40662145880691475
1.668502202643172,-0.43421392070233694
1.7018722466960352,-0.44265531905718736
1.7352422907488987,-0.46070986834577565
1.7686123348017622,-0.5110419063572657
1.8019823788546256,-0.5953731311969312
1.8353524229074891,-0.687830104703127
1.8687224669603526,-0.7410745559753845
1.9020925110132159,-0.70433280012013
1.9354625550660793,-0.5464695534572531
1.9688325991189428,-0.27375846110533647
2.002202643171806,0.06672629283354242
2.0355726872246698,0.40108175341116303
2.068942731277533,0.6546835661990021
2.1023127753303967,0.7791241690979676
2.13568281938326,0.7681214542901893
2.1690528634361232,0.6559033014340814
2.202422907488987,0.49996704542276366
2.23579295154185,0.3570812552819409
2.269162995594714,0.26350987493169725
2.302533039647577,0.2270871857870796
2.3359030837004404,0.23223398903858858
2.369273127753304,0.25294239934927953
2.4026431718061674,0.26613192466553526
2.436013215859031,0.2593725600215583
2.4693832599118943,0.23122874164671853
2.5027533039647576,0.18665785619542713
2.5361233480176213,0.1317436654673534
2.5694933920704845,0.07100799764410813
2.6028634361233483,0.00785510332748753
2.6362334801762115,-0.05363876854092573
2.6696035242290748,-0.10796869021146985
2.7029735682819385,-0.1496601704754405
2.7363436123348017,-0.17623525085044797
2.7697136563876654,-0.19069650520257592
2.8030837004405287,-0.2015828279199062
2.8364537444933924,-0.21988599796764607
2.8698237885462556,-0.25382681959587133
2.903193832599119,-0.30379860336017306
2.9365638766519826,-0.36003446173234055
2.969933920704846,-0.40456190079348264
3.0033039647577096,-0.4171703484733293
3.036674008810573,-0.38326374248454315
3.070044052863436,-0.30047702373991675
3.1034140969162998,-0.18128081322234843
3.136784140969163,-0.05032049481924574
3.1701541850220267,0.06275870441564475
3.20352422907489,0.13259722059151777
3.2368942731277532,0.14638953140028713
3.270264317180617,0.10834087604965396
3.30363436123348,0.038689330647419695
3.337004405286344,-0.03267639442659887
3.370374449339207,-0.07621241000928748
3.4037444933920704,-0.07309868415672824
3.437114537444934,-0.022189223986095144
3.4704845814977974,0.059510630413949966
3.503854625550661,0.14366792910996726
3.5372246696035243,0.20253796650058029
3.5705947136563876,0.22119469138632972
3.6039647577092513,0.20458611556267678
3.6373348017621145,0.1757540638142008
3.6707048458149782,0.16536740334173444
3.7040748898678415,0.19682578936193035
3.737444933920705,0.2735848603867772
3.7708149779735685,0.3747416168213464
3.8041850220264317,0.46143472019399556
3.8375550660792954,0.4917889659426365
3.8709251101321587,0.4381730638876646
3.9042951541850224,0.29930922316707614
3.9376651982378856,0.10192760184815935
3.971035242290749,-0.10871791273469589
4.004405286343612,-0.2852142750250686
4.037775330396476,-0.3941034927806759
4.0711453744493395,-0.4251953419333721
4.104515418502203,-0.3911390333272536
4.137885462555066,-0.3189447326454472
4.171255506607929,-0.23836180812855545
4.2046255506607935,-0.17238070912205375
4.237995594713657,-0.1329135008354056
4.27136563876652,-0.1215598119933105
4.304735682819383,-0.13312919655612807
4.3381057268722465,-0.1592305487847731
4.371475770925111,-0.19043918484314146
4.404845814977974,-0.21716287009214544
4.438215859030837,-0.23023929975585683
4.4715859030837,-0.22213012232483764
4.504955947136564,-0.1887620316913324
4.538325991189428,-0.1313414166545035
4.571696035242291,-0.05726108665134867
4.605066079295154,0.020561863829651472
4.638436123348018,0.08621477516278916
4.671806167400881,0.12505378111778315
4.705176211453745,0.12892892473065684
4.738546255506608,0.10073947857897612
4.7719162995594715,0.05608771947023901
4.805286343612335,0.02017867847493785
4.838656387665198,0.019817029738736874
4.872026431718062,0.0728223601519912
4.905396475770925,0.17910088719887013
4.938766519823789,0.3176939731520048
4.972136563876652,0.45201222054727613
5.005506607929515,0.5420175523127908
5.038876651982379,0.5589258094110269
5.072246696035243,0.4965296574707986
5.105616740088106,0.37416661221102643
5.138986784140969,0.22941650047237813
5.172356828193832,0.1027746915572942
5.2057268722466965,0.020286594639809898
5.23909691629956,-0.018207354930766907
5.272466960352423,-0.03915354011253841
5.305837004405286,-0.08239823203056465
5.3392070484581495,-0.1802322035170823
5.372577092511014,-0.3379239029221273
5.405947136563877,-0.5256665632321199
5.43931718061674,-0.6871138200016942
5.4726872246696034,-0.7617453573621631
5.506057268722468,-0.7111494337202395
5.539427312775331,-0.5368271056358056
5.572797356828194,-0.28089293958987593
5.606167400881057,-0.009307933867952265
5.639537444933921,0.21420752506108232
5.672907488986785,0.35110925448235913
5.706277533039648,0.39743428269127523
5.739647577092511,0.37660659549921566
5.7730176211453745,0.32113371170221444
5.806387665198238,0.2539264861634746
5.839757709251102,0.17924352578313596
5.873127753303965,0.08721668716800819
5.9064977973568284,-0.03194173459844478
5.939867841409692,-0.1732842407274882
5.973237885462555,-0.3112730748186881
6.006607929515419,-0.40682729660611566
6.039977973568282,-0.42401671845941247
6.073348017621146,-0.34765686899154197
6.106718061674009,-0.1924130444256505
6.140088105726872,0.0015247333695525304
6.173458149779736,0.1841326659859825
6.2068281938325995,0.3148583528106303
6.240198237885463,0.37638738161858976
6.273568281938326,0.3770911141709626
6.306938325991189,0.3423986429247398
6.3403083700440535,0.3006223493455976
6.373678414096917,0.2706262575833852
6.40704845814978,0.256595330849868
6.440418502202643,0.2507149045194076
6.4737885462555065,0.2405281645688124
6.507158590308371,0.21620314295683826
6.540528634361234,0.17425810018642793
6.573898678414097,0.11713060826413607
6.60726872246696,0.050376326948729525
6.640638766519824,-0.02004920110872076
6.674008810572688,-0.08900160438645163
6.707378854625551,-0.15204500628963008
6.740748898678414,-0.20517512537931812
6.774118942731278,-0.24526207007486983
6.807488986784141,-0.27113156407596495
6.840859030837005,-0.28442767621123205
6.874229074889868,-0.2894269658089377
6.9075991189427315,-0.29166724371643526
6.940969162995595,-0.29598115534176545
6.974339207048458,-0.30475332808359035
7.007709251101322,-0.31692411382685304
7.041079295154185,-0.32783939050900124
7.074449339207049,-0.3298879880746247
7.107819383259912,-0.3139993690634206
7.141189427312775,-0.272140007899721
7.174559471365639,-0.20056623348130384
7.207929515418503,-0.10278116264507998
7.241299559471366,0.009539794128978702
7.274669603524229,0.11916914455544203
7.308039647577092,0.20950273054436083
7.3414096916299565,0.27202544805213913
7.37477973568282,0.31110706032240215
7.408149779735683,0.34249947359440036
7.441519823788546,0.38475364171705384
7.47488986784141,0.4469909289349926
7.508259911894274,0.5196111080205195
7.541629955947137,0.5742505318383065
7.575,0.5750275112825357
7.608370044052863,0.4967603018476207
7.641740088105728,0.3410258603023643
7.675110132158591,0.14081574804266708
7.708480176211454,-0.0502183770770546
7.741850220264317,-0.1799050301887527
7.775220264317181,-0.22065107208056076
7.808590308370045,-0.18200265336510368
7.841960352422908,-0.10618206398977442
7.875330396475771,-0.04852560665597884
7.9087004405286345,-0.05210137887801106
7.942070484581498,-0.1283883130103609
7.975440528634362,-0.252704718198398
8.008810572687224,-0.3759514805682848
8.042180616740088,-0.446760464992319
8.075550660792953,-0.4337800082879993
8.108920704845815,-0.33837460925481094
8.142290748898679,-0.1928762429180544
8.175660792951541,-0.04616069425735471
8.209030837004406,0.05641910555230138
8.24240088105727,0.09003129382920336
8.275770925110132,0.05778270515652939
8.309140969162996,-0.013355223117275808
8.342511013215859,-0.08529273823849241
8.375881057268723,-0.12446472056618646
8.409251101321587,-0.11422723210393262
8.44262114537445,-0.05975190817972659
8.475991189427313,0.01573716041011461
8.509361233480176,0.08140480993684666
8.54273127753304,0.11170793253605256
8.576101321585904,0.09677900899854489
8.609471365638766,0.046245281198834226
8.64284140969163,-0.01511076229852136
8.676211453744493,-0.058213121811718886
8.709581497797357,-0.0626403288531169
8.742951541850221,-0.02610493841802201
8.776321585903084,0.03387387833535064
8.809691629955948,0.08724229307140921
8.84306167400881,0.10486374412741238
8.876431718061674,0.07247872189473066
8.909801762114538,-0.0010350833409563218
8.9431718061674,-0.08508034759068565
8.976541850220265,-0.13829917298378147
9.009911894273127,-0.124768650971683
9.043281938325991,-0.028824111539014426
9.076651982378856,0.1374969849687416
9.110022026431718,0.33725263584543513
9.143392070484582,0.520341007570029
9.176762114537445,0.639577232055847
9.210132158590309,0.6652336177946718
9.243502202643173,0.5931639450449957
9.276872246696035,0.444186934185117
9.3102422907489,0.25549275317812076
9.343612334801762,0.0674641411614703
9.376982378854626,-0.08930474236736076
9.41035242290749,-0.20227323979829379
9.443722466960352,-0.2778203931749245
9.477092511013216,-0.33480374038258415
9.510462555066079,-0.3936103704922564
9.543832599118943,-0.46513700192599505
9.577202643171807,-0.5440915324089184
9.61057268722467,-0.6093166099207799
9.643942731277534,-0.631155516584266
9.677312775330396,-0.5832208288270916
9.71068281938326,-0.45424574424712216
9.744052863436124,-0.25555890312223933
9.777422907488987,-0.02113142689186779
9.81079295154185,0.2003888841824122
9.844162995594713,0.35949132394563776
9.877533039647577,0.4211062232348447
9.910903083700441,0.37614878401399543
9.944273127753304,0.2449440692229021
9.977643171806168,0.07083184949278089
10.01101321585903,-0.0940862476518287
10.044383259911895,-0.20587475304820999
10.077753303964759,-0.2419698234683806
10.111123348017621,-0.20581607947156028
10.144493392070485,-0.12177269950244898
10.177863436123348,-0.023177597495533813
10.211233480176212,0.0610165102612624
10.244603524229076,0.11562300780818997
10.277973568281938,0.1414697221117512
10.311343612334802,0.15068399303247443
10.344713656387665,0.15808910627533088
10.378083700440529,0.17312816557621794
10.411453744493393,0.19604073741942551
10.444823788546255,0.21965217962179434
10.47819383259912,0.2351875089285478
10.511563876651982,0.2384282193719802
10.544933920704846,0.23242385612130206
10.57830396475771,0.2250253376422463
10.611674008810573,0.22269143781535358
10.645044052863437,0.22452301199412703
10.678414096916299,0.22070397678849088
10.711784140969163,0.1971052749115603
10.745154185022027,0.1439845152296853
10.77852422907489,0.06376092664018954
10.811894273127754,-0.027265587811400885
10.845264317180618,-0.10527303979234896
10.87863436123348,-0.15066606995761253
10.912004405286345,-0.15898405028629084
10.945374449339207,-0.14461166506105685
10.978744493392071,-0.13453250600648253
11.012114537444935,-0.15478014411845106
11.045484581497798,-0.21642872078163755
11.078854625550662,-0.3085143151213306
11.112224669603524,-0.4018089538760693
11.145594713656388,-0.46175688929159814
11.178964757709252,-0.46418537872176335
11.212334801762115,-0.4061163574011648
11.245704845814979,-0.30668197328239677
11.279074889867841,-0.19817610436852207
11.312444933920705,-0.11192062706943062
11.34581497797357,-0.06561588554836252
11.379185022026432,-0.05751811979160564
11.412555066079296,-0.06920313882841754
11.445925110132158,-0.07480362669205061
11.479295154185023,-0.05220886320058277
11.512665198237887,0.008432424240077898
11.546035242290749,0.10181470687387609
11.579405286343613,0.2105199983504103
11.612775330396476,0.3121099944035994
11.64614537444934,0.3872190068778617
11.679515418502204,0.4256636681031612
11.712885462555066,0.42858173896515384
11.74625550660793,0.40612270351464863
11.779625550660793,0.3718263178788651
11.812995594713657,0.3361021633498584
11.846365638766521,0.3016684840648911
11.879735682819383,0.26305779855076117
11.913105726872248,0.2104629420334545
11.94647577092511,0.1360545121656158
11.979845814977974,0.03959521682258792
12.013215859030838,-0.06947631106960309
12.0465859030837,-0.1744580848078048
12.079955947136565,-0.25697098006433
12.113325991189427,-0.3030064393348639
12.146696035242291,-0.30690572504044233
12.180066079295155,-0.2721357633135738
12.213436123348018,-0.20933014234573408
12.246806167400882,-0.13298484058745633
12.280176211453744,-0.05817122743600665
12.313546255506608,0.0020095445604302476
12.346916299559473,0.03819187844596252
12.380286343612335,0.046004132955703485
12.413656387665199,0.026938058063909066
12.447026431718061,-0.011453384995556508
12.480396475770926,-0.05657004207827545
12.51376651982379,-0.09333908901636945
12.547136563876652,-0.10806190400649786
12.580506607929516,-0.0925110616975245
12.613876651982379,-0.0468937131769362
12.647246696035243,0.019429481743420587
12.680616740088107,0.08980583303202692
12.71398678414097,0.1442186922391071
12.747356828193833,0.16425369222628625
12.780726872246696,0.13799985748456184
12.81409691629956,0.06391658659263923
12.847466960352424,-0.04724674481498446
12.880837004405286,-0.17340561547460762
12.91420704845815,-0.2856031318851965
12.947577092511013,-0.35562345720916605
12.980947136563877,-0.3648217220723183
13.014317180616741,-0.31087802614621646
13.047687224669604,-0.20914023715287472
13.081057268722468,-0.08708168222967712
13.11442731277533,0.026390320188546652
13.147797356828194,0.1121157776982962
13.181167400881058,0.16689358929321682
13.21453744493392,0.2014206338878337
13.247907488986785,0.23088931974853866
13.281277533039647,0.26324268907161025
13.314647577092511,0.291656022059985
13.348017621145376,0.29585391815942014
13.381387665198238,0.2522904313227121
13.414757709251102,0.14839247777677478
13.448127753303964,-0.006437751239630475
13.481497797356829,-0.17915258499732362
13.514867841409693,-0.32241411235759926
13.548237885462555,-0.39129130948190244
13.58160792951542,-0.3599931964546466
13.614977973568282,-0.23129189997481836
13.648348017621146,-0.03481266646716264
13.68171806167401,0.18437559797374797
13.715088105726872,0.38113667026604325
13.748458149779736,0.5226993355676398
13.781828193832599,0.5936427815990196
13.815198237885463,0.5933844271781129
13.848568281938327,0.5299329352497728
13.88193832599119,0.41466967207698907
13.915308370044054,0.2608249317873639
13.948678414096916,0.08484570714173494
13.98204845814978,-0.09250139683565041
14.015418502202644,-0.24814904612140667
14.048788546255507,-0.36217210811755113
14.08215859030837,-0.4240815608006082
14.115528634361233,-0.4362470847501167
14.148898678414097,-0.4120652831484797
14.182268722466961,-0.36939828274447833
14.215638766519824,-0.3224471414203436
14.249008810572688,-0.2760896187296899
14.28237885462555,-0.22545869833321458
14.315748898678414,-0.1609711701374514
14.349118942731279,-0.0764429617875088
14.382488986784141,0.02355421205640708
14.415859030837005,0.1208151234517061
14.449229074889868,0.1871571160328425
14.482599118942732,0.19400274666361836
14.515969162995596,0.12455626249754406
14.549339207048458,-0.01641260191806541
14.582709251101322,-0.1998363604306489
14.616079295154185,-0.3788634692095022
14.649449339207049,-0.5030731706481603
14.682819383259913,-0.5354242053988636
14.716189427312775,-0.4654337380501849
14.74955947136564,-0.31319976446155584
14.782929515418502,-0.12226442942694703
14.816299559471366,0.05635390295604748
14.84966960352423,0.18303470840306715
14.883039647577093,0.2439671460940232
14.916409691629957,0.255135244725063
14.94977973568282,0.25385037770931707
14.983149779735683,0.280923430097382
15.016519823788547,0.36080823190192735
15.04988986784141,0.48841462917669803
15.083259911894274,0.6288343045868142
15.116629955947138,0.73071124652183
15.15,0.7477830856210169
15.183370044052865,0.6591632107605212
15.216740088105727,0.4792790188576303
15.250110132158591,0.25303203857094175
15.283480176211455,0.038511324000372604
15.316850220264318,-0.11485198739367848
15.350220264317182,-0.18316026649781328
15.383590308370044,-0.17332966254280985
15.416960352422908,-0.11586812526090849
15.450330396475772,-0.0497674081359175
15.483700440528635,-0.006877743985525499
15.517070484581499,-0.002248738162606556
15.550440528634361,-0.033385541786610254
15.583810572687225,-0.08717323348636974
15.61718061674009,-0.1501944005294819
15.650550660792952,-0.21723520334739724
15.683920704845816,-0.2939221696697419
15.717290748898678,-0.39206299521392773
15.750660792951543,-0.5195421337906688
15.784030837004407,-0.6695004557242965
15.817400881057269,-0.8147576320560006
15.850770925110133,-0.9119661827921459
15.884140969162996,-0.9157852423864022
15.91751101321586,-0.7980160677653851
15.950881057268724,-0.5629664512706019
15.984251101321586,-0.2508436758295728
16.01762114537445,0.07383964905188577
16.050991189427315,0.34444920714110305
16.084361233480177,0.5151198536477665
16.11773127753304,0.5742127964371301
16.151101321585905,0.5433107281292106
16.184471365638768,0.46403073057023664
16.21784140969163,0.38014333519680904
16.251211453744492,0.32306494005175773
16.284581497797358,0.30534914301335503
16.31795154185022,0.3221376123487325
16.351321585903083,0.3574141331914178
16.38469162995595,0.3913963421323926
16.41806167400881,0.40670429424352295
16.451431718061674,0.3925074015833056
16.48480176211454,0.3466188806593987
16.518171806167402,0.2754818179938044
16.551541850220264,0.1918837229256486
16.584911894273127,0.11067227137969352
16.618281938325993,0.04368197744388413
16.651651982378855,-0.004154640061999561
16.685022026431717,-0.035690774969478194
16.718392070484583,-0.05888162971266017
16.751762114537446,-0.08175562703526035
16.785132158590308,-0.10756420906578652
16.818502202643174,-0.13264896294124492
16.851872246696036,-0.1482118827107603
16.8852422907489,-0.1451667712411939
16.91861233480176,-0.1196832806426498
16.951982378854627,-0.07673503624350998
16.98535242290749,-0.029995526974447524
17.01872246696035,0.0018914433029577204
17.052092511013218,0.0012232263058484746
17.08546255506608,-0.04272268933059321
17.118832599118942,-0.129441641655579
17.152202643171808,-0.24613850674000182
17.18557268722467,-0.3705034129391721
17.218942731277533,-0.47694196723419063
