Time (s),Filtered Signal
0.0,0.009919630322507238
0.03337008452774715,0.0855608234538069
0.0667401690554943,0.12053512904260968
0.10011025358324147,0.08605603932879631
0.1334803381109886,-0.0252223963318751
0.16685042263873576,-0.1954560664470296
0.20022050716648293,-0.3866025110037013
0.23359059169423008,-0.5539912787146
0.2669606762219772,-0.6633956239242373
0.30033076074972437,-0.7033476492572676
0.3337008452774715,-0.6860424492053108
0.36707092980521866,-0.6363733621208459
0.40044101433296586,-0.5757237098263084
0.433811098860713,-0.510391432853404
0.46718118338846015,-0.43156393528486015
0.5005512679162073,-0.32630884182029346
0.5339213524439544,-0.19185890979332684
0.5672914369717016,-0.04321770280597856
0.6006615214994487,0.09169615324997075
0.6340316060271959,0.18715076347441942
0.667401690554943,0.23596932003946983
0.7007717750826902,0.25686068102307985
0.7341418596104373,0.2873101347243601
0.7675119441381845,0.36477434689225735
0.8008820286659317,0.505515479612819
0.8342521131936789,0.6917881730946828
0.867622197721426,0.8738392140754356
0.9009922822491732,0.9860532447257396
0.9343623667769203,0.9704900372750376
0.9677324513046675,0.7986389649108064
1.0011025358324146,0.48368328712230757
1.0344726203601617,0.07938615848449171
1.0678427048879089,-0.333921362406724
1.101212789415656,-0.6719708385303844
1.1345828739434032,-0.8708581200736966
1.1679529584711503,-0.9051490253436633
1.2013230429988975,-0.7934976631266673
1.2346931275266446,-0.5896688949260138
1.2680632120543918,-0.3623374753579314
1.301433296582139,-0.17138040446266986
1.334803381109886,-0.04946583496679557
1.3681734656376332,0.004833500352477387
1.4015435501653803,0.02095571234880547
1.4349136346931275,0.04061251786922372
1.4682837192208746,0.09875181221134459
1.5016538037486218,0.20820927480445753
1.535023888276369,0.35345421078526634
1.568393972804116,0.49564346708703816
1.6017640573318634,0.58725345065268
1.6351341418596106,0.5909571629605601
1.6685042263873577,0.4954105623573651
1.7018743109151049,0.32127993520951076
1.735244395442852,0.11443227581068113
1.7686144799705992,-0.07138192628315261
1.8019845644983463,-0.19514917394476342
1.8353546490260935,-0.2434967534690385
1.8687247335538406,-0.23329564852617818
1.9020948180815878,-0.20105594018614914
1.935464902609335,-0.1843898328167463
1.968834987137082,-0.20449666954932993
2.002205071664829,-0.25800393743254807
2.0355751561925763,-0.32179811415902715
2.0689452407203235,-0.36788622021633716
2.1023153252480706,-0.380112122797348
2.1356854097758178,-0.3635253062519711
2.169055494303565,-0.3411390158026623
2.202425578831312,-0.33976970208241786
2.235795663359059,-0.37281748668094594
2.2691657478868064,-0.4297059365479457
2.3025358324145535,-0.47814561738677913
2.3359059169423007,-0.4784490061606703
2.369276001470048,-0.402720816033711
2.402646085997795,-0.24929714874817274
2.436016170525542,-0.04531211047352257
2.4693862550532892,0.16394608331524113
2.5027563395810364,0.33420311833833427
2.5361264241087835,0.4415638871215191
2.5694965086365307,0.4936582962881034
2.602866593164278,0.5273225239102719
2.636236677692025,0.5927852273539348
2.669606762219772,0.7298601990582751
2.7029768467475193,0.945523718792697
2.7363469312752664,1.202727599875389
2.7697170158030135,1.4266631978508701
2.8030871003307607,1.5279739404416073
2.836457184858508,1.4352334655004413
2.869827269386255,1.1244618222272649
2.903197353914002,0.6336586810731217
2.9365674384417493,0.05546837910618565
2.9699375229694964,-0.4906545507852666
3.0033076074972436,-0.8971735652793158
3.0366776920249907,-1.1036492480539584
3.070047776552738,-1.1148124172387586
3.103417861080485,-0.9946144890986304
3.136787945608232,-0.8390512207250749
3.1701580301359793,-0.7389899934786401
3.203528114663727,-0.7475884560996309
3.236898199191474,-0.8639815914739479
3.270268283719221,-1.0376430716635827
3.3036383682469683,-1.1898674105176907
3.3370084527747155,-1.2434460945450192
3.3703785373024626,-1.1501646958905534
3.4037486218302098,-0.9075912213007827
3.437118706357957,-0.5602977077666617
3.470488790885704,-0.18507203112459067
3.503858875413451,0.1356667595052565
3.5372289599411983,0.3438013416576406
3.5705990444689455,0.4279867988228693
3.6039691289966926,0.4291170611188257
3.63733921352444,0.42479373776101803
3.670709298052187,0.4970809761614041
3.704079382579934,0.695423872924879
3.7374494671076812,1.0099189102535784
3.7708195516354284,1.3672197016431873
3.8041896361631755,1.652929802791221
3.8375597206909227,1.7534698065538168
3.87092980521867,1.6015076729332032
3.904299889746417,1.2061797231055322
3.937669974274164,0.6544397170067817
3.9710400588019112,0.08147210769792636
4.004410143329658,-0.3785669942392074
4.0377802278574055,-0.641261393850474
4.071150312385153,-0.699746055468498
4.1045203969129,-0.6203341998322772
4.137890481440647,-0.5088566028982665
4.171260565968394,-0.46328848929028965
4.204630650496141,-0.5335498779044782
4.238000735023888,-0.70505150037552
4.2713708195516356,-0.9110025499602683
4.304740904079383,-1.065426323752528
4.33811098860713,-1.10040625684198
4.371481073134877,-0.9908973543480953
4.404851157662624,-0.7579334510787601
4.438221242190371,-0.45208095343059596
4.471591326718118,-0.1279878055209277
4.504961411245866,0.17634093357807545
4.538331495773613,0.44620527865412
4.57170158030136,0.6820965780816527
4.605071664829107,0.8842328497022236
4.638441749356854,1.0405599775403798
4.671811833884601,1.1261890283715756
4.7051819184123485,1.1150597254428578
4.738552002940096,0.9971806942054793
4.771922087467843,0.7911004559758568
4.80529217199559,0.5432400645012838
4.838662256523337,0.3123806185437075
4.872032341051084,0.14558143519413055
4.905402425578831,0.056982223290590106
4.9387725101065785,0.020447457144998498
4.972142594634326,-0.019233350052973712
5.005512679162073,-0.1209248614716845
5.03888276368982,-0.319094521473807
5.072252848217567,-0.6063181047226176
5.105622932745314,-0.9344933390100998
5.138993017273061,-1.2337937125091676
5.1723631018008085,-1.4399434480245692
5.205733186328556,-1.5169490007859698
5.239103270856303,-1.4655288207214252
5.27247335538405,-1.3151589360937745
5.305843439911797,-1.1056590852810073
5.339213524439544,-0.8685157804479805
5.372583608967291,-0.6169119285162358
5.4059536934950385,-0.3479469211965782
5.439323778022786,-0.054037761687626175
5.472693862550533,0.26371312063407915
5.50606394707828,0.5876714633309797
5.539434031606027,0.8856539221731089
5.572804116133774,1.122236590933523
5.606174200661521,1.2744485623122708
5.6395442851892685,1.344357225098266
5.672914369717016,1.3613561213288576
5.706284454244763,1.3705575768949116
5.73965453877251,1.4099834157738553
5.773024623300257,1.4860086501336631
5.806394707828004,1.560126645878025
5.839764792355751,1.5573165716187072
5.873134876883499,1.3967325964714232
5.906504961411246,1.0330114072975394
5.939875045938993,0.4880990719993019
5.97324513046674,-0.14487081686980235
6.006615214994487,-0.73157088088056
6.039985299522234,-1.148631683484845
6.073355384049981,-1.333352871283364
6.106725468577729,-1.3062822592716359
6.140095553105476,-1.1555511390499629
6.173465637633223,-0.991743142235543
6.20683572216097,-0.8969629356822785
6.240205806688717,-0.8933901013286975
6.273575891216464,-0.9446964801057245
6.3069459757442115,-0.9857553213510796
6.340316060271959,-0.9622943334219035
6.373686144799706,-0.85935685481515
6.407056229327454,-0.7056773394593003
6.440426313855201,-0.5546114601919366
6.473796398382948,-0.4536052959995389
6.507166482910695,-0.41828890951005326
6.540536567438442,-0.42345707041756053
6.5739066519661895,-0.4144055288018752
6.607276736493937,-0.3327225320543885
6.640646821021684,-0.14450166856181415
6.674016905549431,0.14183903160499414
6.707386990077178,0.4762809486600837
6.740757074604925,0.7863892457187035
6.774127159132672,1.0065057864572355
6.8074972436604195,1.1038181836849479
6.840867328188167,1.0895929095489274
6.874237412715914,1.0108501991704137
6.907607497243661,0.9268735228843216
6.940977581771408,0.8816912730254322
6.974347666299155,0.8849689289451763
7.007717750826902,0.9093823901458084
7.0410878353546495,0.9048606079347952
7.074457919882397,0.8226346894019595
7.107828004410144,0.6380059920547289
7.141198088937891,0.3618083886894265
7.174568173465638,0.03615507780447114
7.207938257993385,-0.28243191671784856
7.241308342521132,-0.5437267858707377
7.27467842704888,-0.7185927769387805
7.308048511576627,-0.8022383193740191
7.341418596104374,-0.8070149130213294
7.374788680632121,-0.7512020786239778
7.408158765159868,-0.6512984092244287
7.441528849687615,-0.5218327035679562
7.4748989342153624,-0.3810132353504605
7.50826901874311,-0.25616306196099264
7.541639103270857,-0.18245943241761636
7.575009187798604,-0.19234265378811805
7.608379272326351,-0.29902561273191247
7.641749356854098,-0.4824333903147404
7.675119441381845,-0.6866301214073927
7.7084895259095925,-0.8333434832251895
7.74185961043734,-0.8483519547277358
7.775229694965087,-0.6902150220834217
7.808599779492834,-0.36827946699343656
7.841969864020581,0.05896263747726861
7.875339948548328,0.5049621136123644
7.908710033076075,0.8860103132045644
7.9420801176038225,1.1476538381322416
7.97545020213157,1.275049777273126
8.008820286659317,1.2843568734452995
8.042190371187063,1.2022077688600785
8.075560455714811,1.0461633563545862
8.108930540242557,0.8176924985828541
8.142300624770305,0.5114508003881443
8.175670709298052,0.13470411797839735
8.2090407938258,-0.27589206999722143
8.242410878353546,-0.6524836171289609
8.275780962881294,-0.9138654362828539
8.30915104740904,-0.9967319076249522
8.342521131936788,-0.8857336170580582
8.375891216464534,-0.6267038956611355
8.409261300992283,-0.3145374367056278
8.442631385520029,-0.05903553746510011
8.476001470047777,0.05724312122359997
8.509371554575523,0.010671535784660232
8.542741639103271,-0.15657861185769723
8.57611172363102,-0.3578929293582044
8.609481808158765,-0.5021463437731342
8.642851892686513,-0.5334906858947489
8.67622197721426,-0.45193077040341717
8.709592061742008,-0.3049182601035987
8.742962146269754,-0.15506738073304505
8.776332230797502,-0.041939103577436514
8.809702315325248,0.04062423077243751
8.843072399852996,0.13847826099589444
8.876442484380743,0.30540444440210734
8.90981256890849,0.563403009531801
8.943182653436237,0.8779886974006487
8.976552737963985,1.16367774458967
9.009922822491731,1.3185085914573442
9.04329290701948,1.2706374601600228
9.076662991547225,1.013446730716455
9.110033076074973,0.6115028916775017
9.14340316060272,0.17453540812984972
9.176773245130468,-0.18765975786967148
9.210143329658214,-0.40781635160927454
9.243513414185962,-0.48196903966219495
9.276883498713708,-0.4604868844095764
9.310253583241456,-0.4159851842268511
9.343623667769203,-0.40524027741159474
9.37699375229695,-0.4438860348185169
9.410363836824697,-0.5050822355527209
9.443733921352445,-0.5406257112282575
9.477104005880191,-0.5116860018885565
9.51047409040794,-0.4122180290408677
9.543844174935685,-0.2730724693548437
9.577214259463434,-0.14594945035969648
9.61058434399118,-0.07732938422152674
9.643954428518928,-0.08722875354329297
9.677324513046674,-0.16367358484262892
9.710694597574422,-0.2739313139896971
9.744064682102168,-0.3839427036293644
9.777434766629916,-0.47367874664115195
9.810804851157663,-0.5400123324666226
9.84417493568541,-0.5871754517690009
9.877545020213157,-0.6125330165996122
9.910915104740905,-0.5978041712738708
9.944285189268651,-0.5120550627186976
9.9776552737964,-0.32548809711677856
10.011025358324146,-0.02669309923797737
10.044395442851894,0.36590843048841415
10.07776552737964,0.8044850784472534
10.111135611907388,1.2239511479575476
10.144505696435134,1.5601196217518558
10.177875780962882,1.7659570711067256
10.211245865490628,1.819984157415817
10.244615950018376,1.7252982000164805
10.277986034546123,1.5020061419907884
10.31135611907387,1.1780032777133569
10.344726203601617,0.7824615967292821
10.378096288129365,0.34393996043810315
10.411466372657111,-0.10783172372237812
10.44483645718486,-0.539401758677254
10.478206541712606,-0.9135344852512742
10.511576626240354,-1.1935863108124258
10.5449467107681,-1.3518562175499396
10.578316795295848,-1.3789259064563713
10.611686879823594,-1.2895705272193199
10.645056964351342,-1.1213993982762624
10.678427048879088,-0.9250962815754241
10.711797133406836,-0.7489834097467589
10.745167217934583,-0.6237798487202917
10.77853730246233,-0.5540014937768541
10.811907386990077,-0.5197363024267011
10.845277471517825,-0.48766920279008014
10.878647556045571,-0.4258356651827043
10.91201764057332,-0.31519411064077196
10.945387725101066,-0.15350712894535773
10.978757809628814,0.048354238888546015
11.01212789415656,0.27360727567215815
11.045497978684308,0.5051841249026168
11.078868063212054,0.7269708074252349
11.112238147739802,0.9215778168351842
11.145608232267548,1.0682395208002105
11.178978316795297,1.1443896377187184
11.212348401323043,1.13184368851548
11.24571848585079,1.0250967124650507
11.279088570378537,0.8371947364728209
11.312458654906285,0.5992237707232115
11.345828739434031,0.35236307059668465
11.37919882396178,0.13510262729064135
11.412568908489526,-0.029231823772488147
11.445938993017274,-0.13929892419339657
11.47930907754502,-0.21381770655445514
11.512679162072768,-0.28155731856539984
11.546049246600514,-0.36747118304199
11.579419331128262,-0.48095552959002713
11.612789415656009,-0.6112714394427974
11.646159500183757,-0.7319203794098389
11.679529584711503,-0.8117091893184344
11.71289966923925,-0.8273050350773973
11.746269753766997,-0.771664816127037
11.779639838294745,-0.6550024588093234
11.813009922822491,-0.4987707680248449
11.84638000735024,-0.32651786505314717
11.879750091877986,-0.1566240927153159
11.913120176405734,-0.00018340421685226528
11.94649026093348,0.1363054986019626
11.979860345461228,0.24695133841251277
12.013230429988974,0.32531497896452055
12.046600514516722,0.367774386539834
12.079970599044469,0.3792249308456276
12.113340683572217,0.37633879479011795
12.146710768099963,0.3842560320503514
12.180080852627711,0.4263309990252316
12.213450937155457,0.5112064783126306
12.246821021683205,0.6241084096823496
12.280191106210951,0.7280241803863104
12.3135611907387,0.7757945420275201
12.346931275266446,0.7285875541384398
12.380301359794194,0.5727433570658931
12.41367144432194,0.32739695089962634
12.447041528849688,0.039324509305208595
12.480411613377434,-0.2329334235782873
12.513781697905182,-0.4391002174385915
12.547151782432929,-0.55330242614609
12.580521866960677,-0.5802851407495421
12.613891951488423,-0.5500045343897833
12.647262036016171,-0.5035470692467663
12.680632120543917,-0.4763823174593468
12.714002205071665,-0.48540200630094366
12.747372289599411,-0.5241584394407114
12.78074237412716,-0.5672544130482026
12.814112458654908,-0.581443527593176
12.847482543182654,-0.5389599640098316
12.880852627710402,-0.4284501532550028
12.914222712238148,-0.26024507959106985
12.947592796765896,-0.0646657739782318
12.980962881293642,0.11617065038559161
13.01433296582139,0.24114148940197072
13.047703050349137,0.28428240318812337
13.081073134876885,0.2459402525510389
13.114443219404631,0.1562199943462031
13.147813303932379,0.06756075518309275
13.181183388460125,0.037021743040553605
13.214553472987873,0.10377681523093726
13.24792355751562,0.2709645667962075
13.281293642043368,0.5007629349387562
13.314663726571114,0.726386729541382
13.348033811098862,0.8766699341137727
13.381403895626608,0.9023629736148998
13.414773980154356,0.7923057200183102
13.448144064682102,0.5730678486421554
13.48151414920985,0.29428283218883805
13.514884233737597,0.008606632156105833
13.548254318265345,-0.2436242072316178
13.581624402793091,-0.43933683523723865
13.614994487320839,-0.5682546874019299
13.648364571848585,-0.6250046731332568
13.681734656376333,-0.6046740898592062
13.71510474090408,-0.5055282205269097
13.748474825431828,-0.33741190865825615
13.781844909959574,-0.12996458351441295
13.815214994487322,0.0664456731559636
13.848585079015068,0.19130011981004957
13.881955163542816,0.1943824943685897
13.915325248070562,0.05838088090493344
13.94869533259831,-0.18712050981122053
13.982065417126057,-0.4688622983405792
14.015435501653805,-0.6919211817849146
14.048805586181551,-0.7731981033997545
14.082175670709299,-0.6727742039419263
14.115545755237045,-0.4094127139581705
14.148915839764793,-0.053088754506695195
14.18228592429254,0.3023164859639602
14.215656008820288,0.5741743197588934
14.249026093348034,0.7189881878404752
14.282396177875782,0.7417421378663916
14.315766262403528,0.6842878802986687
14.349136346931276,0.599846381383178
14.382506431459023,0.5265377350606056
14.41587651598677,0.4724814748951474
14.449246600514517,0.4187350991947764
14.482616685042265,0.33717106895002197
14.515986769570011,0.2127602573689913
14.54935685409776,0.05747198732900663
14.582726938625505,-0.09255366555195745
14.616097023153253,-0.19580464945964057
14.649467107681,-0.2302785657949116
14.682837192208748,-0.21034230479983154
14.716207276736494,-0.1847883358615539
14.749577361264242,-0.2148725975422792
14.782947445791988,-0.34212426999419016
14.816317530319736,-0.5622256139932783
14.849687614847483,-0.8193934800108355
14.88305769937523,-1.0259391480160247
14.916427783902977,-1.0988976122414764
14.949797868430725,-0.996535539901836
14.983167952958471,-0.7370990346326942
15.01653803748622,-0.39073293037255713
15.049908122013965,-0.04870128831864458
15.083278206541713,0.2149455158155106
15.11664829106946,0.37089185930819835
15.150018375597208,0.4389626594348235
15.183388460124954,0.4691066669880925
15.216758544652702,0.5102661415603946
15.250128629180448,0.5837725111975146
15.283498713708196,0.6744976452170269
15.316868798235943,0.7429753363660786
15.35023888276369,0.7505625986151431
15.383608967291437,0.6833097280690124
15.416979051819185,0.5617070864135089
15.450349136346931,0.4316653711104402
15.48371922087468,0.34218385438283366
15.517089305402425,0.3216535302057909
15.550459389930174,0.36453678943332785
15.58382947445792,0.43408776419914136
15.617199558985668,0.47862641701954867
15.650569643513414,0.45295048742553057
15.683939728041162,0.33526245951162753
15.717309812568908,0.13330201153659768
15.750679897096656,-0.12108695997877983
15.784049981624403,-0.3848727329058012
15.81742006615215,-0.6180276609730042
15.850790150679897,-0.7937464164665899
15.884160235207645,-0.9023039265873631
15.917530319735391,-0.9491213957232949
15.95090040426314,-0.9493048310615634
15.984270488790886,-0.9210910708398871
16.017640573318634,-0.8799403379455696
16.05101065784638,-0.8343082908944033
16.084380742374126,-0.7837787522607085
16.117750826901876,-0.719993295306042
16.151120911429622,-0.6302772351617029
16.18449099595737,-0.5030092712674143
16.217861080485115,-0.3330303720282183
16.251231165012864,-0.12520060025886343
16.28460124954061,0.10527703557415376
16.317971334068357,0.336139426121769
16.351341418596103,0.5441136805041241
16.384711503123853,0.7117492595647367
16.4180815876516,0.8323376099693839
16.451451672179346,0.9104760654191117
16.484821756707092,0.9574185678535954
16.51819184123484,0.9829717616950934
16.551561925762588,0.9880902865856511
16.584932010290334,0.9627952808935781
16.61830209481808,0.8916324587576165
16.65167217934583,0.7644849429825816
16.685042263873576,0.5867570767748311
16.718412348401323,0.3824421206039027
16.75178243292907,0.18714619109245176
16.78515251745682,0.033818825995997705
16.818522601984565,-0.061719694750663245
16.85189268651231,-0.10801404509306056
16.885262771040058,-0.13430765516940246
16.918632855567807,-0.17788471705333697
16.952002940095554,-0.26851914978608854
16.9853730246233,-0.4168336369829229
17.018743109151046,-0.6106762300000197
17.052113193678796,-0.8195042377138605
17.085483278206542,-1.0036984994532312
17.11885336273429,-1.125073266230516
17.15222344726204,-1.1560891548114076
17.185593531789785,-1.0866992843251329
17.21896361631753,-0.9279973489056158
17.252333700845277,-0.7110948548959761
17.285703785373027,-0.47951760462512927
17.319073869900773,-0.275334230329842
17.35244395442852,-0.12293178115729117
17.385814038956266,-0.01754134913212152
