Time (s),Filtered Signal
0.0,0.009773650110266728
0.033370165745856356,-0.13101644881574512
0.06674033149171271,-0.3018907400846233
0.10011049723756907,-0.5125697616811737
0.13348066298342542,-0.7430170139241625
0.16685082872928178,-0.9508860181853676
0.20022099447513814,-1.0907866522417775
0.2335911602209945,-1.1344610994675708
0.26696132596685085,-1.0813995561418543
0.30033149171270723,-0.9556306681595229
0.33370165745856356,-0.7921730815173598
0.3670718232044199,-0.6214002646503118
0.4004419889502763,-0.4592376556105829
0.43381215469613266,-0.3067610697341133
0.467182320441989,-0.15741897167039928
0.5005524861878453,-0.006660440486805321
0.5339226519337017,0.14147839843244303
0.5672928176795581,0.2738490218958934
0.6006629834254145,0.3733544478150991
0.6340331491712707,0.42682931777639266
0.6674033149171271,0.43182915873114536
0.7007734806629835,0.39939572395093703
0.7341436464088398,0.3516752353286282
0.7675138121546962,0.3151443851338888
0.8008839779005525,0.31163030632040184
0.8342541436464089,0.3501267222419332
0.8676243093922653,0.42247170437112286
0.9009944751381216,0.5050026654431227
0.934364640883978,0.5662505246607297
0.9677348066298344,0.578122357652363
1.0011049723756906,0.5260792916887195
1.0344751381215471,0.41381703184237056
1.0678453038674034,0.26028577314998236
1.1012154696132597,0.09056311447389592
1.1345856353591162,-0.07480422688837186
1.1679558011049724,-0.22659686827607947
1.201325966850829,-0.3665227708367915
1.2346961325966852,-0.5001291797440524
1.2680662983425415,-0.6271439763151722
1.301436464088398,-0.7348510286280997
1.3348066298342542,-0.7986794502056583
1.3681767955801105,-0.79053676906882
1.401546961325967,-0.6913552836048819
1.4349171270718233,-0.5018977990541645
1.4682872928176796,-0.24635776595218187
1.501657458563536,0.03344793789502502
1.5350276243093923,0.29098985580007575
1.5683977900552488,0.4892486431103211
1.601767955801105,0.6098817837365049
1.6351381215469614,0.6537467106582073
1.6685082872928179,0.6338709527423912
1.7018784530386741,0.5658483241401733
1.7352486187845306,0.4614266725192397
1.768618784530387,0.32833512422498645
1.8019889502762432,0.1750063411947507
1.8353591160220997,0.015639430451894226
1.868729281767956,-0.1289890511770345
1.9020994475138122,-0.23656137139280087
1.9354696132596687,-0.2917175857123112
1.968839779005525,-0.29319950968845554
2.0022099447513813,-0.25533079370023815
2.0355801104972375,-0.2025199633338039
2.0689502762430942,-0.1591528059398707
2.1023204419889505,-0.13962852792813932
2.135690607734807,-0.14326208667363852
2.169060773480663,-0.15643230261745816
2.2024309392265193,-0.16085363143869255
2.235801104972376,-0.143842844829304
2.2691712707182323,-0.10539807141830962
2.3025414364640886,-0.05839897949758647
2.335911602209945,-0.021648216208459626
2.369281767955801,-0.009179251324697879
2.402651933701658,-0.021383625645230782
2.436022099447514,-0.042887924139472934
2.4693922651933704,-0.0489024310231769
2.5027624309392267,-0.017458891146456365
2.536132596685083,0.058327752381041646
2.5695027624309392,0.16439297869648764
2.602872928176796,0.27004684261236267
2.636243093922652,0.34151931043548933
2.6696132596685085,0.35894288773709965
2.7029834254143648,0.32841291123929967
2.736353591160221,0.28196664510019176
2.7697237569060777,0.2633238387234905
2.803093922651934,0.3042490528216978
2.8364640883977903,0.4022699820338227
2.8698342541436466,0.511920346099453
2.903204419889503,0.5569553882956074
2.936574585635359,0.4613683634850996
2.969944751381216,0.1868110404321139
3.003314917127072,-0.24127356852608864
3.0366850828729284,-0.7331510699773423
3.0700552486187846,-1.1629937558101162
3.103425414364641,-1.4149720907068588
3.1367955801104976,-1.4272125129891982
3.170165745856354,-1.2140239348282775
3.20353591160221,-0.8567751875501668
3.2369060773480665,-0.46828589514383323
3.2702762430939227,-0.14742123007498892
3.3036464088397794,0.055815067052268096
3.3370165745856357,0.15040197556097185
3.370386740331492,0.18769778859895384
3.4037569060773483,0.22865507258125667
3.4371270718232045,0.31196894852662166
3.4704972375690613,0.438082993342744
3.5038674033149175,0.5747362454110495
3.537237569060774,0.6786254685013767
3.57060773480663,0.7204752831513082
3.6039779005524863,0.7005327464061568
3.6373480662983426,0.6475436893706525
3.6707182320441993,0.6029527136946019
3.7040883977900556,0.5989869575796718
3.737458563535912,0.6414718366651544
3.770828729281768,0.7052714796116558
3.8041988950276244,0.7440601016276442
3.837569060773481,0.7097582015294784
3.8709392265193374,0.5731056105259472
3.9043093922651937,0.33678024959301
3.93767955801105,0.03584620579255959
3.9710497237569062,-0.27442540608413113
4.0044198895027625,-0.5382219143530357
4.037790055248619,-0.7182001937679149
4.071160220994475,-0.8060744091757298
4.104530386740332,-0.8207878857230079
4.1379005524861885,-0.7959252657668002
4.171270718232044,-0.7628889098235789
4.204640883977901,-0.7379738439421171
4.238011049723757,-0.718977157403345
4.271381215469614,-0.6917429960390982
4.30475138121547,-0.6419382609073849
4.338121546961326,-0.5650979084846305
4.371491712707183,-0.46961463029108297
4.404861878453039,-0.37171833711379276
4.438232044198895,-0.2860011375870425
4.471602209944752,-0.21721156803727815
4.504972375690608,-0.15789953497324466
4.538342541436465,-0.09300244855616042
4.5717127071823205,-0.00874677608701609
4.605082872928177,0.09877445032927956
4.638453038674034,0.21956297999008575
4.67182320441989,0.3321181089661272
4.7051933701657465,0.4112368037472219
4.738563535911602,0.43786683635796103
4.771933701657459,0.40689420025658035
4.805303867403316,0.3297534495193051
4.8386740331491715,0.23107029807271243
4.872044198895028,0.1411022121331346
4.905414364640884,0.08729367310990863
4.938784530386741,0.08805873212609049
4.972154696132597,0.1501770922900207
5.005524861878453,0.269098535996731
5.03889502762431,0.430382447550292
5.072265193370166,0.6111124293446434
5.105635359116023,0.7817945173568929
5.1390055248618784,0.9104277367585758
5.172375690607735,0.9698115181190579
5.205745856353592,0.9467459757094804
5.239116022099448,0.8491302566420569
5.272486187845304,0.7061696080225695
5.30585635359116,0.5591444550929533
5.339226519337017,0.44478377553290815
5.372596685082874,0.3778876944664676
5.4059668508287295,0.3417622842949998
5.439337016574586,0.29273056562153926
5.472707182320442,0.1790118990892379
5.506077348066299,-0.03290045824040153
5.5394475138121555,-0.336213500558492
5.572817679558011,-0.6780169662144844
5.606187845303868,-0.9757038452435784
5.639558011049724,-1.1517680530303271
5.672928176795581,-1.17322420364077
5.706298342541437,-1.076858267803557
5.739668508287293,-0.9647862571657284
5.77303867403315,-0.9663981428090925
5.806408839779006,-1.1785910869466267
5.839779005524862,-1.6092120802524303
5.873149171270718,-2.1517674602007557
5.906519337016575,-2.609189242477121
5.939889502762432,-2.763426446754408
5.9732596685082875,-2.4647132022450853
6.006629834254144,-1.7012075507651958
6.04,-0.6148154429446134
6.073370165745857,0.5477472503685519
6.1067403314917135,1.5286308905302934
6.140110497237569,2.154642447571622
6.173480662983426,2.391176551296083
6.206850828729282,2.3317338486010035
6.240220994475139,2.1331959293264946
6.273591160220995,1.9331516817241414
6.306961325966851,1.791369962182877
6.340331491712708,1.681159115841159
6.373701657458564,1.5281810393054525
6.40707182320442,1.2701348467311666
6.440441988950277,0.9028696213142645
6.473812154696133,0.48941110399457993
6.50718232044199,0.13042455529100588
6.5405524861878455,-0.08493764926366715
6.573922651933702,-0.12053750059074782
6.607292817679559,-0.006593237006290635
6.640662983425415,0.1790554077635546
6.674033149171271,0.3489544438208735
6.707403314917127,0.44225956654924126
6.740773480662984,0.44159761354578914
6.774143646408841,0.36513688637062225
6.8075138121546965,0.24215092167518468
6.840883977900553,0.0884011102049967
6.874254143646409,-0.1037521173868141
6.907624309392266,-0.3551643561543879
6.9409944751381225,-0.6765120142636118
6.974364640883978,-1.046632677185884
7.007734806629835,-1.4070288559867352
7.041104972375691,-1.6780858025636873
7.074475138121548,-1.7902287999082493
7.107845303867403,-1.714415924362222
7.14121546961326,-1.4760922967045174
7.174585635359117,-1.1452264884987056
7.207955801104973,-0.8074855321163558
7.241325966850829,-0.5309964365142582
7.274696132596685,-0.3444861541065238
7.308066298342542,-0.23566345484598272
7.341436464088399,-0.16784929832637527
7.3748066298342545,-0.10415948947716258
7.408176795580111,-0.026299979019345603
7.441546961325967,0.06035479254637683
7.474917127071824,0.13554301893209092
7.5082872928176805,0.1798822269759208
7.541657458563536,0.18837030478841718
7.575027624309393,0.17509500070804382
7.608397790055249,0.1680933960800796
7.641767955801106,0.19810882648268538
7.675138121546962,0.28682353467128396
7.708508287292818,0.43890667682298795
7.741878453038675,0.6395840436919115
7.775248618784531,0.8573398585683043
7.808618784530387,1.0506094735657656
7.841988950276244,1.177330847934854
7.8753591160221,1.2059139730848027
7.908729281767957,1.1251692071923882
7.9420994475138125,0.9497466586411116
7.975469613259669,0.7179422080522169
8.008839779005525,0.4810028697896784
8.042209944751383,0.2866774116434367
8.075580110497238,0.16292621901301532
8.108950276243094,0.10851610547431774
8.14232044198895,0.0948620713158002
8.175690607734808,0.07882564991030573
8.209060773480664,0.02139795530795798
8.24243093922652,-0.09546315884531131
8.275801104972377,-0.2608969601607368
8.309171270718233,-0.43944333656916695
8.342541436464089,-0.5857203446606067
8.375911602209946,-0.6630994820765655
8.409281767955802,-0.6581995800105559
8.442651933701658,-0.5849092373443924
8.476022099447514,-0.4765334029628293
8.509392265193371,-0.37025332000519406
8.542762430939227,-0.291575466369709
8.576132596685083,-0.24604145720616674
8.60950276243094,-0.22147377375170005
8.642872928176796,-0.19863147214243598
8.676243093922652,-0.16415087279798204
8.709613259668508,-0.11895024521009628
8.742983425414366,-0.07800341803086057
8.776353591160222,-0.061982912475868665
8.809723756906077,-0.08539057148576827
8.843093922651935,-0.14743093622590972
8.87646408839779,-0.23031456411358683
8.909834254143647,-0.30580025858571347
8.943204419889504,-0.3466612944551361
8.97657458563536,-0.3375209244524679
9.009944751381216,-0.2801727494073451
9.043314917127072,-0.19149730637649037
9.07668508287293,-0.09567088121921503
9.110055248618785,-0.014705357393120138
9.143425414364641,0.038508641376817095
9.176795580110499,0.062305880054144114
9.210165745856354,0.06375913865683294
9.24353591160221,0.0538754505941474
9.276906077348068,0.04326942801925718
9.310276243093924,0.04009433034502566
9.34364640883978,0.050218160878371707
9.377016574585635,0.07815498541127466
9.410386740331493,0.12696426621129028
9.443756906077349,0.19638445762992263
9.477127071823205,0.2802300456689874
9.510497237569062,0.3654001219826117
9.543867403314918,0.43467330849910385
9.577237569060774,0.4735292468296009
9.610607734806631,0.47841152944181303
9.643977900552487,0.4618426301223332
9.677348066298343,0.4501980114790862
9.710718232044199,0.47308068513874646
9.744088397790057,0.5477547281026052
9.777458563535912,0.6655840425610294
9.810828729281768,0.7877720135957951
9.844198895027626,0.8543359446237178
9.877569060773482,0.8045103676022642
9.910939226519337,0.6012540146279861
9.944309392265193,0.24986685970116432
9.97767955801105,-0.19764703803055367
10.011049723756907,-0.6553606475696409
10.044419889502763,-1.0292000649588984
10.07779005524862,-1.2461301911380256
10.111160220994476,-1.275850016962639
10.144530386740332,-1.1374287806893753
10.17790055248619,-0.889545047727202
10.211270718232045,-0.6091508377297866
10.244640883977901,-0.3669249395400412
10.278011049723757,-0.20783343285871791
10.311381215469615,-0.1421794746110291
10.34475138121547,-0.14833820505490808
10.378121546961326,-0.1846109767597585
10.411491712707184,-0.20539646498782896
10.44486187845304,-0.17648669446761672
10.478232044198895,-0.08539937056491054
10.511602209944753,0.055473888606737624
10.544972375690609,0.2131914762007517
10.578342541436465,0.34471031534694513
10.61171270718232,0.4107820352184255
10.645082872928178,0.38956395890511
10.678453038674034,0.2857001252100538
10.71182320441989,0.13123271251841118
10.745193370165747,-0.023148435110804638
10.778563535911603,-0.12461173070261676
10.811933701657459,-0.13708067525359788
10.845303867403315,-0.0553011458700969
10.878674033149172,0.09211310581333579
10.912044198895028,0.25284199151664977
10.945414364640884,0.37083764932779306
10.978784530386742,0.408069973023224
11.012154696132598,0.3586755336860124
11.045524861878453,0.24921301701074353
11.078895027624311,0.12501309385090742
11.112265193370167,0.029123672442589274
11.145635359116023,-0.016223669475340922
11.179005524861878,-0.017168456830002548
11.212375690607736,-0.0019287707765174291
11.245745856353592,-0.004557303654601529
11.279116022099448,-0.04712136577271057
11.312486187845305,-0.1288002121237326
11.345856353591161,-0.2264571087799208
11.379226519337017,-0.30554293999329973
11.412596685082875,-0.33559118818256134
11.44596685082873,-0.3030382010749535
11.479337016574586,-0.21594412509888633
11.512707182320442,-0.09918659767035996
11.5460773480663,0.017084482532729445
11.579447513812156,0.11026544935936262
11.612817679558011,0.17372843258145232
11.646187845303869,0.2173747834930929
11.679558011049725,0.2603576002587731
11.71292817679558,0.3194196061005034
11.746298342541436,0.3981731006033011
11.779668508287294,0.48225451362667404
11.81303867403315,0.5427921424958045
11.846408839779006,0.5470620691888514
11.879779005524863,0.4720522840092972
11.91314917127072,0.3152594854719505
11.946519337016575,0.09807664960671932
11.979889502762433,-0.13977088640448407
12.013259668508288,-0.3524734468915493
12.046629834254144,-0.5020774151494011
12.08,-0.5687994733070446
12.113370165745858,-0.5545036423824025
12.146740331491714,-0.4793612917205357
12.18011049723757,-0.37423826297468993
12.213480662983427,-0.27202234860727736
12.246850828729283,-0.20013697856869855
12.280220994475139,-0.17510279570224738
12.313591160220996,-0.19934443026371554
12.346961325966852,-0.26065764003600017
12.380331491712708,-0.3350548549673732
12.413701657458564,-0.39318062436759715
12.447071823204421,-0.40901101562145953
12.480441988950277,-0.3679999806045837
12.513812154696133,-0.27143560539719
12.54718232044199,-0.1351207071935261
12.580552486187846,0.01696352978705008
12.613922651933702,0.16103520686009581
12.64729281767956,0.2802190619969303
12.680662983425416,0.3670991756962476
12.714033149171271,0.4219978690058484
12.747403314917127,0.4489314594505527
12.780773480662985,0.45188709942749544
12.81414364640884,0.4332546379345996
12.847513812154697,0.3946498708865362
12.880883977900554,0.33896069432782167
12.91425414364641,0.2719139249566246
12.947624309392266,0.2019212750501513
12.980994475138122,0.1380462851058287
13.01436464088398,0.08701888623217914
13.047734806629835,0.050754872793032244
13.081104972375691,0.025593721655831222
13.114475138121549,0.0036618669513822366
13.147845303867404,-0.024112734396503542
13.18121546961326,-0.06433336234827802
13.214585635359118,-0.11787662429798654
13.247955801104974,-0.17792445941142343
13.28132596685083,-0.22999632069511527
13.314696132596685,-0.2545315741038322
13.348066298342543,-0.23214468916520659
13.381436464088399,-0.15073875610743523
13.414806629834255,-0.012395946835258624
13.448176795580112,0.16293253084491885
13.481546961325968,0.339582256119224
13.514917127071824,0.4748915726750751
13.548287292817681,0.5322446102677278
13.581657458563537,0.4936605222948922
13.615027624309393,0.3665278381550651
13.648397790055249,0.1811075068327544
13.681767955801106,-0.020563126322028766
13.715138121546962,-0.19962283173319004
13.748508287292818,-0.3324482907832639
13.781878453038676,-0.41447540985189646
13.815248618784532,-0.45473269610839334
13.848618784530387,-0.46503291502022226
13.881988950276245,-0.45064428563534714
13.9153591160221,-0.4082157267488211
13.948729281767957,-0.33214734703835797
13.982099447513813,-0.22504977369790988
14.01546961325967,-0.10483144311147488
14.048839779005526,-0.002471415818366118
14.082209944751382,0.0499108874530255
14.11558011049724,0.034738944529451615
14.148950276243095,-0.04064271915510666
14.182320441988951,-0.14561799177397114
14.215690607734807,-0.24003944546169986
14.249060773480664,-0.2930236792246723
14.28243093922652,-0.29653879379291864
14.315801104972376,-0.2662546996404234
14.349171270718234,-0.22935353443151263
14.38254143646409,-0.20650338731354448
14.415911602209945,-0.19852856700635613
14.449281767955803,-0.1854642431532771
14.482651933701659,-0.1383540529438159
14.516022099447515,-0.03671364849296434
14.54939226519337,0.11854599430430637
14.582762430939228,0.30399563074144936
14.616132596685084,0.4845299778371281
14.64950276243094,0.6294697057846226
14.682872928176797,0.7246405248450698
14.716243093922653,0.7741397981466127
14.749613259668509,0.7919256577290247
14.782983425414367,0.7892050904730298
14.816353591160222,0.7655361155746674
14.849723756906078,0.7088543181654025
14.883093922651934,0.6042331885821863
14.916464088397792,0.44625830472505584
14.949834254143648,0.24794616237285302
14.983204419889503,0.04088769540809516
15.016574585635361,-0.13434522293705592
15.049944751381217,-0.24368560483518065
15.083314917127073,-0.2740907254420642
15.116685082872928,-0.2403971843128903
15.150055248618786,-0.18105989910189582
15.183425414364642,-0.1441219443084094
15.216795580110498,-0.1689079787196865
15.250165745856355,-0.27066308364900493
15.283535911602211,-0.4341269388357373
15.316906077348067,-0.6185469231067758
15.350276243093925,-0.7723094937794707
15.38364640883978,-0.8517288127821587
15.417016574585636,-0.8368319583496562
15.450386740331492,-0.7379581503353873
15.48375690607735,-0.5905277682872057
15.517127071823205,-0.44020448272777285
15.550497237569061,-0.3247743896832569
15.583867403314919,-0.260383874323929
15.617237569060775,-0.23757377497197726
15.65060773480663,-0.22794150373322747
15.683977900552488,-0.19764905474382727
15.717348066298344,-0.12160914562720945
15.7507182320442,0.007168694017208842
15.784088397790056,0.175774410353218
15.817458563535913,0.3565921172515067
15.85082872928177,0.5167261884387028
15.884198895027625,0.628182176263435
15.917569060773483,0.6757616385544941
15.950939226519338,0.6606032446430647
15.984309392265194,0.5985133631058213
16.01767955801105,0.5136970298887743
16.051049723756908,0.4300997265656475
16.084419889502765,0.3636791586500149
16.11779005524862,0.31871339100575635
16.151160220994477,0.289445259736579
16.18453038674033,0.26573372972303483
16.21790055248619,0.23939396584961814
16.251270718232046,0.20776082892846318
16.2846408839779,0.17283269405334942
16.318011049723758,0.13709286639334214
16.351381215469615,0.09915293724322086
16.38475138121547,0.05247829613781467
16.418121546961327,-0.011489920524887844
16.451491712707185,-0.0973977753367406
16.48486187845304,-0.20088363408411744
16.518232044198896,-0.30785476434888903
16.551602209944754,-0.3992383872328039
16.584972375690608,-0.4589465374275415
16.618342541436466,-0.48056017451637284
16.651712707182323,-0.4686567650573417
16.685082872928177,-0.4337623693053825
16.718453038674035,-0.383929256910714
16.751823204419892,-0.31846174449201115
16.785193370165747,-0.22853196335134743
16.818563535911604,-0.10541922097711587
16.851933701657458,0.04796262173620269
16.885303867403316,0.20957492534002867
16.918674033149173,0.34084299390520467
16.952044198895027,0.40010328367488335
16.985414364640885,0.36128677119028973
17.018784530386743,0.2284579433653428
17.052154696132597,0.03813060768787441
17.085524861878454,-0.15285161092376895
17.118895027624312,-0.28881656742706874
17.152265193370166,-0.33638966610831145
17.185635359116024,-0.2958028800132654
17.21900552486188,-0.19791440137403404
17.252375690607735,-0.08926734798271797
17.285745856353593,-0.01258361214516438
17.31911602209945,0.008865459540142446
