Frequency (Hz),Amplitude
0.0,0.3866425342216009
0.019801980198019802,0.3931480145509094
0.039603960396039604,0.41202444803752897
0.0594059405940594,0.44162090714522667
0.07920792079207921,0.4798548048825478
0.09900990099009901,0.5247098279338116
0.1188118811881188,0.574483344748703
0.13861386138613863,0.627835634272666
0.15841584158415842,0.6837452174237242
0.1782178217821782,0.7414394897502202
0.19801980198019803,0.8003306618389676
0.21782178217821782,0.8599653258698048
0.2376237623762376,0.9199873211653978
0.25742574257425743,0.9801111619635796
0.27722772277227725,1.040103207605583
0.297029702970297,1.0997683172478023
0.31683168316831684,1.1589403400100335
0.33663366336633666,1.2174752824571267
0.3564356435643564,1.2752463528279483
0.37623762376237624,1.3321403306692798
0.39603960396039606,1.3880548811443791
0.4158415841584158,1.4428965494228088
0.43564356435643564,1.4965792497190187
0.45544554455445546,1.5490231177893812
0.4752475247524752,1.6001536331445085
0.495049504950495,1.649900943312822
0.5148514851485149,1.6981993408244809
0.5346534653465347,1.7449868565972897
0.5544554455445545,1.790204942731349
0.5742574257425742,1.8337982244662254
0.594059405940594,1.8757143059809473
0.613861386138614,1.9159036183473053
0.6336633663366337,1.954319300645457
0.6534653465346534,1.9909171072727847
0.6732673267326733,2.0256553360056353
0.6930693069306931,2.05849477253701
0.7128712871287128,2.0893986481064784
0.7326732673267327,2.1183326075287336
0.7524752475247525,2.145264685464542
0.7722772277227723,2.170165289199162
0.7920792079207921,2.1930071865257417
0.8118811881188118,2.213765497595808
0.8316831683168316,2.2324176898104002
0.8514851485148516,2.2489435749966296
0.8712871287128713,2.263325308252868
0.891089108910891,2.2755473879603763
0.9108910891089109,2.285596656553414
0.9306930693069307,2.2934623017191793
0.9504950495049505,2.2991358577665806
0.9702970297029703,2.302611206961129
0.99009900990099,2.3038845806743806
1.00990099009901,2.3029545602431964
1.0297029702970297,2.2998220774766422
1.0495049504950495,2.2944904147894687
1.0693069306930694,2.2869652049811715
1.0891089108910892,2.277254430720794
1.108910891089109,2.265368423840123
1.1287128712871286,2.2513198645841674
1.1485148514851484,2.235123781019073
1.1683168316831685,2.216797548855399
1.188118811881188,2.196360892011599
1.2079207920792079,2.1738358843211327
1.227722772277228,2.1492469528803837
1.2475247524752475,2.122620883647026
1.2673267326732673,2.093986830036251
1.2871287128712872,2.063376325430342
1.3069306930693068,2.0308233007265155
1.3267326732673268,1.9963641083080266
1.3465346534653466,1.9600375541515216
1.3663366336633662,1.9218849401974423
1.3861386138613863,1.881950119639227
1.405940594059406,1.8402795684641111
1.4257425742574257,1.7969224774549182
1.4455445544554455,1.7519308700023941
1.4653465346534653,1.7053597525736772
1.4851485148514851,1.657267306659777
1.504950495049505,1.6077151336597528
1.5247524752475248,1.5567685676993308
1.5445544554455446,1.5044970761793728
1.5643564356435644,1.450974774409674
1.5841584158415842,1.396281089736515
1.6039603960396038,1.3405016231828109
1.6237623762376237,1.283729274354701
1.6435643564356437,1.2260657205479046
1.6633663366336633,1.1676233770687685
1.683168316831683,1.1085280179380645
1.7029702970297032,1.0489223120896576
1.7227722772277227,0.9889706413439935
1.7425742574257426,0.9288657293977896
1.7623762376237624,0.868837848689165
1.782178217821782,0.8091677124417129
1.801980198019802,0.750204627004266
1.8217821782178218,0.6923920628751872
1.8415841584158414,0.6363033555656487
1.8613861386138615,0.5826902332455074
1.881188118811881,0.532544770554991
1.900990099009901,0.48716763138389463
1.920792079207921,0.4482157361209246
1.9405940594059405,0.41766581955700666
1.9603960396039604,0.3975938884740311
1.98019801980198,0.3897083483392414
2.0,0.39477417960422106
2.01980198019802,0.4122982524603793
2.0396039603960396,0.4407368443301715
2.0594059405940595,0.47804914859943076
2.0792079207920793,0.5222101731404257
2.099009900990099,0.5714849274723514
2.118811881188119,0.6244966247909902
2.1386138613861387,0.6801907379641391
2.1584158415841586,0.7377680592403874
2.1782178217821784,0.7966203314281148
2.1980198019801978,0.8562786748309994
2.217821782178218,0.9163752669603236
2.237623762376238,0.976615784108316
2.257425742574257,1.0367598185058708
2.2772277227722775,1.0966069790208248
2.297029702970297,1.1559869798630134
2.3168316831683167,1.2147525183159142
2.336633663366337,1.2727741093685125
2.3564356435643563,1.3299363028810136
2.376237623762376,1.3861348861566312
2.3960396039603964,1.441274795762074
2.4158415841584158,1.4952685450237868
2.4356435643564356,1.5480350302618615
2.455445544554456,1.5994986179387112
2.4752475247524752,1.6495884421415992
2.495049504950495,1.6982378609660767
2.514851485148515,1.7453840339547408
2.5346534653465347,1.7909675924785378
2.5544554455445545,1.83493238198714
2.5742574257425743,1.8772252601918382
2.594059405940594,1.9177959390281676
2.6138613861386135,1.9565968610559967
2.633663366336634,1.9935831030600732
2.6534653465346536,2.02871230120466
2.673267326732673,2.0619445933055442
2.6930693069306932,2.0932425747112418
2.712871287128713,2.1225712650020867
2.7326732673267324,2.149898083273741
2.7524752475247527,2.1751928302088146
2.7722772277227725,2.198427675485135
2.792079207920792,2.2195771493433862
2.811881188118812,2.238618137355814
2.8316831683168315,2.2555298776150927
2.8514851485148514,2.2702939597056817
2.8712871287128716,2.282894324938192
2.891089108910891,2.2933172674250706
2.910891089108911,2.3015514356574998
2.9306930693069306,2.307587834313278
2.9504950495049505,2.311419826085315
2.9702970297029703,2.3130431333736037
2.99009900990099,2.312455839730735
3.00990099009901,2.3096583909955446
3.0297029702970297,2.3046535960911547
3.0495049504950495,2.297446627504875
3.0693069306930694,2.2880450215092387
3.089108910891089,2.276458678227034
3.108910891089109,2.2626998616901504
3.128712871287129,2.2467832000942307
3.148514851485148,2.2287256865096077
3.1683168316831685,2.20854668037723
3.1881188118811883,2.18626791019761
3.2079207920792077,2.161913477915684
3.227722772277228,2.1355098656185283
3.2475247524752473,2.10708594530137
3.267326732673267,2.076672992627697
3.2871287128712874,2.0443047058194717
3.3069306930693068,2.010017231075975
3.3267326732673266,1.9738491962489275
3.346534653465347,1.9358417549176867
3.366336633663366,1.8960386435381695
3.386138613861386,1.8544862550176966
3.4059405940594063,1.8112337329442472
3.4257425742574257,1.7663330918370814
3.4455445544554455,1.7198393702769619
3.4653465346534653,1.6718108257413629
3.485148514851485,1.6223091825866254
3.504950495049505,1.571399948126821
3.5247524752475248,1.519152816502442
3.5445544554455446,1.4656421865012972
3.564356435643564,1.4109478283975838
3.5841584158415842,1.3551557472400533
3.603960396039604,1.298359307352575
3.6237623762376234,1.2406607073278675
3.6435643564356437,1.1821729297854005
3.6633663366336635,1.123022340508395
3.683168316831683,1.0633521845064295
3.702970297029703,1.0033273326825602
3.722772277227723,0.9431407873102401
3.7425742574257423,0.8830226780603311
3.762376237623762,0.8232527975265477
3.7821782178217824,0.7641781557916549
3.801980198019802,0.7062375610872872
3.8217821782178216,0.6499957154547222
3.841584158415842,0.5961892514334194
3.8613861386138613,0.5457851550666742
3.881188118811881,0.5000449659387215
3.9009900990099013,0.460570453659665
3.9207920792079207,0.42927372625217786
3.9405940594059405,0.4081810153925476
3.96039603960396,0.39900745390771747
3.98019801980198,0.40261097660977446
4.0,0.4186541052082238
4.01980198019802,0.4457432396886479
4.03960396039604,0.48192918346132113
4.0594059405940595,0.5252144485163379
4.079207920792079,0.5738500246561106
4.099009900990099,0.6264273206287153
4.118811881188119,0.6818568355230012
4.138613861386139,0.7393077489854654
4.158415841584159,0.7981454957904798
4.178217821782178,0.8578801030967165
4.198019801980198,0.918127086709848
4.217821782178218,0.9785789986923431
4.237623762376238,1.0389850512853482
4.257425742574258,1.0991365768934929
4.2772277227722775,1.1588566207124391
4.297029702970297,1.2179924417114183
4.316831683168317,1.27641006328226
4.336633663366336,1.3339902765641034
4.356435643564357,1.3906256815598304
4.376237623762377,1.446218476470218
4.3960396039603955,1.500678791715277
4.415841584158416,1.5539234243709201
4.435643564356436,1.6058748698038772
4.455445544554455,1.6564605759495754
4.475247524752476,1.7056123658593911
4.4950495049504955,1.7532659884840796
4.514851485148514,1.7993607679435448
4.534653465346535,1.8438393289758055
4.554455445544555,1.886647381693139
4.574257425742574,1.927733552777987
4.594059405940594,1.9670492532269916
4.613861386138614,2.0045485749811265
4.633663366336633,2.0401882104639495
4.653465346534653,2.073927390331957
4.673267326732674,2.1057278357238634
4.693069306930693,2.135553722055125
4.712871287128713,2.163371651994722
4.732673267326733,2.1891506357240136
4.752475247524752,2.212862076942625
4.772277227722772,2.234479763376312
4.792079207920793,2.253979860773816
4.811881188118812,2.271340909566834
4.8316831683168315,2.2865438235190707
4.851485148514852,2.299571889815232
4.871287128712871,2.3104107701437044
4.891089108910891,2.3190485024132945
4.910891089108912,2.3254755028177256
4.930693069306931,2.32968456802492
4.9504950495049505,2.3316708773237207
4.97029702970297,2.331431994611037
4.99009900990099,2.328967870148257
5.00990099009901,2.3242808420601735
5.02970297029703,2.317375637592352
5.0495049504950495,2.3082593741867106
5.069306930693069,2.296941560480501
5.089108910891089,2.2834340973827874
5.108910891089109,2.267751279436589
5.128712871287129,2.2499097967359205
5.148514851485149,2.2299287377371937
5.1683168316831685,2.207829593387
5.188118811881188,2.1836362630861275
5.207920792079208,2.157375063127427
5.227722772277227,2.1290747383880957
5.247524752475248,2.0987664782322417
5.267326732673268,2.066483937795962
5.2871287128712865,2.0322632660965074
5.306930693069307,1.9961431427449925
5.326732673267327,1.9581648254677948
5.346534653465346,1.91837221118367
5.366336633663367,1.87681191407578
5.3861386138613865,1.8335333649900825
5.405940594059405,1.788588937648652
5.425742574257426,1.7420341086781004
5.445544554455446,1.693927660443114
5.465346534653465,1.6443319383140536
5.485148514851486,1.59331317752564
5.504950495049505,1.540941919538611
5.524752475247524,1.4872935442790494
5.544554455445545,1.4324489534889877
5.564356435643565,1.3764954526726503
5.584158415841584,1.319527896210487
5.603960396039604,1.2616501842532732
5.623762376237624,1.2029772341047216
5.643564356435643,1.1436375975106425
5.663366336633663,1.0837769652579785
5.683168316831684,1.0235629013504615
5.702970297029703,0.9631912941882658
5.7227722772277225,0.9028952191797602
5.742574257425743,0.8429571955660177
5.762376237623762,0.7837262015932209
5.782178217821782,0.7256412593862929
5.801980198019803,0.6692637640209883
5.821782178217822,0.6153205324354258
5.841584158415841,0.5647575424976098
5.861386138613861,0.5187977904059435
5.881188118811881,0.47898103811989234
5.900990099009901,0.44713521483180624
5.920792079207921,0.4252010270144979
5.9405940594059405,0.41485389430913916
5.96039603960396,0.4170075139826723
5.98019801980198,0.4314754702209873
6.0,0.45704549951946977
6.01980198019802,0.4919065793087552
6.03960396039604,0.534128322042274
6.0594059405940595,0.5819713942392418
6.079207920792079,0.6340050965850883
6.099009900990099,0.6891058501406394
6.118811881188119,0.7464077091375059
6.138613861386139,0.8052446006018261
6.158415841584159,0.8650999924324045
6.178217821782178,0.9255676454585096
6.198019801980198,0.9863224957569143
6.217821782178218,1.0470995185498464
6.237623762376237,1.1076784978574217
6.257425742574258,1.1678730455649082
6.2772277227722775,1.2275226452976855
6.297029702970296,1.2864868460321106
6.316831683168317,1.3446409890269329
6.336633663366337,1.4018730355456546
6.356435643564356,1.4580811912731315
6.376237623762377,1.5131721124830062
6.396039603960396,1.567059540919914
6.415841584158415,1.619663257524494
6.435643564356436,1.6709082754150324
6.455445544554456,1.7207242139509655
6.475247524752475,1.7690448109669574
6.495049504950495,1.815807541240695
6.514851485148515,1.8609533172178243
6.534653465346534,1.904426253841029
6.554455445544554,1.946173483627511
6.574257425742575,1.9861450113362367
6.594059405940594,2.0242935999645337
6.6138613861386135,2.060574681626343
6.633663366336634,2.094946288245296
6.653465346534653,2.127368998055459
6.673267326732673,2.1578058947213825
6.693069306930694,2.186222536526369
6.712871287128713,2.212586933577505
6.732673267326732,2.236869531369792
6.752475247524753,2.2590431993650752
6.772277227722772,2.2790832234918006
6.792079207920792,2.2969673016735848
6.811881188118813,2.3126755416587756
6.8316831683168315,2.326190460557497
6.851485148514851,2.33749698560407
6.871287128712871,2.346582455755891
6.891089108910891,2.3534366238188773
6.910891089108911,2.358051658857815
6.930693069306931,2.3604221487098385
6.9504950495049505,2.3605451024730035
6.97029702970297,2.358419952891695
6.99009900990099,2.354048558607504
7.00990099009901,2.347435206290337
7.02970297029703,2.33858661271104
7.0495049504950495,2.3275119268652267
7.069306930693069,2.314222732310155
7.089108910891089,2.2987330499335985
7.108910891089109,2.2810593414386626
7.128712871287128,2.261220513902571
7.148514851485149,2.239237925854778
7.1683168316831685,2.2151353954228905
7.188118811881187,2.188939211218872
7.207920792079208,2.1606781467884386
7.227722772277228,2.130383479630384
7.247524752475247,2.09808901601952
7.267326732673268,2.063831123148627
7.287128712871287,2.0276487704575543
7.306930693069306,1.9895835824615322
7.326732673267327,1.9496799059538807
7.346534653465347,1.9079848951768548
7.366336633663366,1.8645486194776406
7.3861386138613865,1.8194241991609517
7.405940594059406,1.7726679768054159
7.425742574257425,1.724339733352429
7.445544554455446,1.674502960974112
7.465346534653466,1.623225208320065
7.485148514851485,1.570578518565099
7.504950495049505,1.5166399872034961
7.524752475247524,1.461492475431775
7.544554455445544,1.4052255271919605
7.564356435643565,1.3479365548950266
7.584158415841584,1.2897323825094897
7.603960396039604,1.2307312679778684
7.623762376237624,1.1710655739952103
7.643564356435643,1.1108853230308455
7.663366336633663,1.0503629674812405
7.683168316831684,0.9896998402566353
7.702970297029703,0.9291349386614574
7.7227722772277225,0.8689569481554386
7.742574257425743,0.8095207337409434
7.762376237623762,0.7512698737040561
7.782178217821782,0.6947670204152913
7.801980198019803,0.6407334830679953
7.821782178217822,0.5900973211154846
7.841584158415841,0.5440431324171349
7.861386138613862,0.5040431147725892
7.881188118811881,0.4718260811491487
7.900990099009901,0.4492197438758172
7.92079207920792,0.43782147528197735
7.9405940594059405,0.43856376902223676
7.96039603960396,0.45139585863817633
7.980198019801979,0.47530374963471195
8.0,0.5086532419984654
8.01980198019802,0.5496210438962169
8.03960396039604,0.5965059184540623
8.05940594059406,0.647869888908568
8.07920792079208,0.7025600272995207
8.099009900990099,0.7596740890356868
8.118811881188119,0.8185104967793765
8.138613861386139,0.8785211692966263
8.158415841584159,0.9392730773979546
8.178217821782178,1.0004188887312155
8.198019801980198,1.0616752228516773
8.217821782178218,1.122806746845519
8.237623762376238,1.1836145781448029
8.257425742574258,1.2439278079036113
8.277227722772277,1.303597271623422
8.297029702970297,1.362490938991702
8.316831683168317,1.4204904754689172
8.336633663366337,1.4774886573363244
8.356435643564357,1.5333874131674405
8.376237623762377,1.5880963288954675
8.396039603960396,1.6415314988839007
8.415841584158416,1.693614637409597
8.435643564356436,1.7442723877444997
8.455445544554456,1.793435782348321
8.475247524752476,1.8410398194773603
8.495049504950495,1.887023130100741
8.514851485148515,1.9313277153177792
8.534653465346535,1.9738987391330427
8.554455445544555,2.014684364923449
8.574257425742575,2.0536356265453617
8.594059405940595,2.0907063270088524
8.613861386138613,2.1258529591562327
8.633663366336634,2.1590346439420065
8.653465346534654,2.190213082808926
8.673267326732672,2.219352521354038
8.693069306930694,2.246419722027074
8.712871287128714,2.2713839440363697
8.732673267326732,2.294216928981817
8.752475247524753,2.3148928910098485
8.772277227722773,2.3333885105075507
8.792079207920791,2.3496829305336777
8.811881188118813,2.363757755332113
8.831683168316832,2.3755970503960455
8.85148514851485,2.385187343653429
8.871287128712872,2.392517627431341
8.891089108910892,2.3975793609317835
8.91089108910891,2.400366473017132
8.930693069306932,2.400875365162507
8.950495049504951,2.3991049144866574
8.97029702970297,2.395056476824359
8.990099009900991,2.388733889853511
9.00990099009901,2.380143476340868
9.029702970297029,2.3692940476228848
9.04950495049505,2.3561969074946343
9.06930693069307,2.340865856741714
9.089108910891088,2.323317198619982
9.10891089108911,2.3035697456681743
9.12871287128713,2.2816448283319852
9.148514851485148,2.257566305989331
9.16831683168317,2.231360581099163
9.188118811881187,2.203056617357259
9.207920792079207,2.172685962938772
9.227722772277229,2.1402827801489415
9.247524752475247,2.105883883103258
9.267326732673267,2.0695287854322673
9.287128712871288,2.0312597604761398
9.306930693069306,1.9911219170284795
9.326732673267326,1.9491632944449886
9.346534653465348,1.9054349819013177
9.366336633663366,1.8599912678331902
9.386138613861386,1.812889827212881
9.405940594059407,1.7641919564339406
9.425742574257425,1.7139628683633281
9.445544554455445,1.662272063813531
9.465346534653467,1.6091938006177993
9.485148514851485,1.5548076881216473
9.504950495049505,1.4991994438844118
9.524752475247526,1.4424618616379157
9.544554455445544,1.3846960563839503
9.564356435643564,1.3260130757899609
9.584158415841586,1.2665359994067071
9.603960396039604,1.206402692407554
9.623762376237623,1.145769443701943
9.643564356435645,1.084815806331333
9.663366336633663,1.0237510796916285
9.683168316831683,0.9628230376195197
9.702970297029704,0.90232971929406
9.722772277227723,0.8426353508151766
9.742574257425742,0.7841916969093075
9.762376237623764,0.7275661789266257
9.782178217821782,0.6734774941725968
9.801980198019802,0.6228372578480076
9.821782178217823,0.5767905487100333
9.841584158415841,0.5367367452411411
9.861386138613861,0.5042942829517733
9.881188118811881,0.48115856211602775
9.900990099009901,0.4688207134100259
9.92079207920792,0.46819990587016486
9.94059405940594,0.47935916348563345
9.96039603960396,0.5014857393864821
9.98019801980198,0.5331496072756293
10.0,0.572671348141301
10.01980198019802,0.6184192144861148
10.03960396039604,0.6689678547213419
10.05940594059406,0.723144256469258
10.07920792079208,0.7800118440487362
10.099009900990099,0.8388313668415173
10.118811881188119,0.8990190798859835
10.138613861386139,0.9601103997752841
10.158415841584159,1.021730995007956
10.178217821782178,1.0835747493177295
10.198019801980198,1.1453872999148662
10.217821782178218,1.2069538388297192
10.237623762376238,1.2680900835001436
10.257425742574258,1.3286355739775493
10.277227722772277,1.3884486715710307
10.297029702970297,1.4474028032367565
10.316831683168317,1.5053836219057266
10.336633663366337,1.5622868442807811
10.356435643564357,1.6180165932080364
10.376237623762377,1.6724841186509072
10.396039603960396,1.7256068049066493
10.415841584158416,1.7773073958704138
10.435643564356436,1.8275133876183511
10.455445544554454,1.8761565502854922
10.475247524752476,1.923172550518591
10.495049504950495,1.968500652647857
10.514851485148514,2.012083481821386
10.534653465346535,2.053866836163913
10.554455445544555,2.093799537900011
10.574257425742573,2.1318333155674813
10.594059405940595,2.1679227111184187
10.613861386138614,2.2020250069922125
10.633663366336632,2.234100169242567
10.653465346534654,2.26411080357892
10.673267326732674,2.2920221217940644
10.693069306930692,2.317801916533142
