Time (s),Filtered Signal
0.0,0.014890773045185168
0.033370165745856356,-0.11066117955271412
0.06674033149171271,-0.19378328541903728
0.10011049723756907,-0.2087945600338868
0.13348066298342542,-0.15548243557000488
0.16685082872928178,-0.05550183730073044
0.20022099447513814,0.06008337321832017
0.2335911602209945,0.1645238403164304
0.26696132596685085,0.24321284225386092
0.30033149171270723,0.293014765535195
0.33370165745856356,0.3159185035495564
0.3670718232044199,0.31268223658898414
0.4004419889502763,0.28098755160512534
0.43381215469613266,0.21877215647870524
0.467182320441989,0.12964726722631112
0.5005524861878453,0.025973324071721975
0.5339226519337017,-0.07316327988264952
0.5672928176795581,-0.1484501853602155
0.6006629834254145,-0.18780778760394637
0.6340331491712707,-0.19063552285245758
0.6674033149171271,-0.16658678450510256
0.7007734806629835,-0.1298359602085366
0.7341436464088398,-0.0923106780139102
0.7675138121546962,-0.059660402773271094
0.8008839779005525,-0.03177605338134757
0.8342541436464089,-0.006813484820049723
0.8676243093922653,0.014319689490492699
0.9009944751381216,0.026108725063704517
0.934364640883978,0.020572961963095143
0.9677348066298344,-0.007650762864073343
1.0011049723756906,-0.0561371268779764
1.0344751381215471,-0.11257594099482708
1.0678453038674034,-0.15759927486351288
1.1012154696132597,-0.17203143374435284
1.1345856353591162,-0.14570875918330073
1.1679558011049724,-0.08375934286613987
1.201325966850829,-0.006814631354990998
1.2346961325966852,0.05594254012142427
1.2680662983425415,0.07861189291685923
1.301436464088398,0.05028800140689236
1.3348066298342542,-0.018860314324140582
1.3681767955801105,-0.10037711899484293
1.401546961325967,-0.1582942273373268
1.4349171270718233,-0.163165596588045
1.4682872928176796,-0.10312985138203833
1.501657458563536,0.012560547188892265
1.5350276243093923,0.1582204571034709
1.5683977900552488,0.30141378059694274
1.601767955801105,0.4126958573516338
1.6351381215469614,0.4716788947906686
1.6685082872928179,0.46871220032781674
1.7018784530386741,0.40410250808527376
1.7352486187845306,0.2872872677734362
1.768618784530387,0.13669966552701607
1.8019889502762432,-0.021119745404155867
1.8353591160220997,-0.15533026512133935
1.868729281767956,-0.23818649794843813
1.9020994475138122,-0.2539917027587334
1.9354696132596687,-0.20565326178118679
1.968839779005525,-0.11521409295167061
2.0022099447513813,-0.017284128715799
2.0355801104972375,0.052382359989437584
2.0689502762430942,0.06866851921048882
2.1023204419889505,0.024669930763586635
2.135690607734807,-0.06753194820401663
2.169060773480663,-0.18258102830769657
2.2024309392265193,-0.2912464471229468
2.235801104972376,-0.3696691918101471
2.2691712707182323,-0.40526145926161655
2.3025414364640886,-0.39788925931909636
2.335911602209945,-0.3569826323723702
2.369281767955801,-0.2965051077642714
2.402651933701658,-0.22990262793771615
2.436022099447514,-0.16651069267101382
2.4693922651933704,-0.11002244232055569
2.5027624309392267,-0.05896789381299165
2.536132596685083,-0.008777807162719515
2.5695027624309392,0.0453253686478987
2.602872928176796,0.10576318057718996
2.636243093922652,0.17168629215099354
2.6696132596685085,0.24046850049785937
2.7029834254143648,0.31093495158612394
2.736353591160221,0.3860099282715962
2.7697237569060777,0.4718792089037977
2.803093922651934,0.5722123202683768
2.8364640883977903,0.6792647811766267
2.8698342541436466,0.7670517048352948
2.903204419889503,0.7927814540934675
2.936574585635359,0.70975754193377
2.969944751381216,0.48874341199871424
3.003314917127072,0.13858454675793844
3.0366850828729284,-0.28524158106597447
3.0700552486187846,-0.6913247535257486
3.103425414364641,-0.9805075142823402
3.1367955801104976,-1.0807179522627715
3.170165745856354,-0.9734908951590635
3.20353591160221,-0.7004893325190584
3.2369060773480665,-0.3473626939425567
3.2702762430939227,-0.012396163624067183
3.3036464088397794,0.2264133373540338
3.3370165745856357,0.3327285544492787
3.370386740331492,0.3149909187439347
3.4037569060773483,0.21328003537380613
3.4371270718232045,0.07844729625161921
3.4704972375690613,-0.046386794428550725
3.5038674033149175,-0.13527124059330017
3.537237569060774,-0.17891726656322607
3.57060773480663,-0.17827507129401782
3.6039779005524863,-0.1379191164451319
3.6373480662983426,-0.06320275037299383
3.6707182320441993,0.038430773163224435
3.7040883977900556,0.15460548894213935
3.737458563535912,0.26704128550273687
3.770828729281768,0.35429550643612556
3.8041988950276244,0.3974618126517622
3.837569060773481,0.38616666632824287
3.8709392265193374,0.3220291830998574
3.9043093922651937,0.21813453709966693
3.93767955801105,0.09498549242043651
3.9710497237569062,-0.025238997902570327
4.0044198895027625,-0.1239907085842595
4.037790055248619,-0.18972908313680376
4.071160220994475,-0.21892875040994839
4.104530386740332,-0.2152026535858839
4.1379005524861885,-0.18743493352567564
4.171270718232044,-0.1476429847087961
4.204640883977901,-0.10880841271919295
4.238011049723757,-0.08258367584629595
4.271381215469614,-0.0768900829855213
4.30475138121547,-0.09387535234283753
4.338121546961326,-0.12907346364383593
4.371491712707183,-0.17249164881056878
4.404861878453039,-0.21165739542117373
4.438232044198895,-0.23571765515320373
4.471602209944752,-0.23901930684880685
4.504972375690608,-0.22262761601878778
4.538342541436465,-0.19303425534107896
4.5717127071823205,-0.15855938555996446
4.605082872928177,-0.1250889797504113
4.638453038674034,-0.09322112715669287
4.67182320441989,-0.058324802545222966
4.7051933701657465,-0.013632694864404344
4.738563535911602,0.04506898960226077
4.771933701657459,0.11554677764514507
4.805303867403316,0.18823826609567243
4.8386740331491715,0.24928483834932832
4.872044198895028,0.2864806616874346
4.905414364640884,0.295530330629114
4.938784530386741,0.2835063482654951
4.972154696132597,0.267367068658636
5.005524861878453,0.2675214239975024
5.03889502762431,0.29880417368106826
5.072265193370166,0.36274369003482326
5.105635359116023,0.44486116367765677
5.1390055248618784,0.5188478791021293
5.172375690607735,0.5565452290461224
5.205745856353592,0.539936346010392
5.239116022099448,0.47005599038330265
5.272486187845304,0.3684900392127188
5.30585635359116,0.2698110423979313
5.339226519337017,0.20699364796412004
5.372596685082874,0.19524549483946663
5.4059668508287295,0.22137163225327725
5.439337016574586,0.24469823856893838
5.472707182320442,0.21148779217307115
5.506077348066299,0.07875004878050651
5.5394475138121555,-0.16221533714365816
5.572817679558011,-0.4743503295536548
5.606187845303868,-0.7838861466426331
5.639558011049724,-1.0097791706193175
5.672928176795581,-1.1028471349612972
5.706298342541437,-1.076471485280824
5.739668508287293,-1.0110417006317391
5.77303867403315,-1.0239539836051912
5.806408839779006,-1.2129407128931373
5.839779005524862,-1.5958395973559096
5.873149171270718,-2.0765214454322467
5.906519337016575,-2.4594005354353365
5.939889502762432,-2.514857359581909
5.9732596685082875,-2.0731263581274924
6.006629834254144,-1.1068819003266193
6.04,0.2368714458772215
6.073370165745857,1.6747458598491247
6.1067403314917135,2.882254147626771
6.140110497237569,3.606645081751458
6.173480662983426,3.749084769015158
6.206850828729282,3.383048622958903
6.240220994475139,2.7061459455743258
6.273591160220995,1.9521711130309987
6.306961325966851,1.3044674666648208
6.340331491712708,0.845479172002703
6.373701657458564,0.5563012613261719
6.40707182320442,0.3562086793506179
6.440441988950277,0.15704497180555657
6.473812154696133,-0.09367170716647515
6.50718232044199,-0.39632524374293837
6.5405524861878455,-0.7097386144481231
6.573922651933702,-0.9772833307987903
6.607292817679559,-1.1533903422818388
6.640662983425415,-1.2191310279550651
6.674033149171271,-1.1833483526533517
6.707403314917127,-1.0730898621814162
6.740773480662984,-0.9206946486169615
6.774143646408841,-0.7541144089432524
6.8075138121546965,-0.5933698165966087
6.840883977900553,-0.45195431764449695
6.874254143646409,-0.33966830754841204
6.907624309392266,-0.26365435579105595
6.9409944751381225,-0.22662837663687307
6.974364640883978,-0.22383460011658413
7.007734806629835,-0.24153992026044432
7.041104972375691,-0.2592727587689195
7.074475138121548,-0.2559538299274711
7.107845303867403,-0.21772962843228177
7.14121546961326,-0.14395870973047364
7.174585635359117,-0.04819048449738928
7.207955801104973,0.04693858071042508
7.241325966850829,0.11910211209480026
7.274696132596685,0.15594666298827464
7.308066298342542,0.16058185496937682
7.341436464088399,0.1502111979792731
7.3748066298342545,0.14836720513718035
7.408176795580111,0.17424866796679261
7.441546961325967,0.23405534143201448
7.474917127071824,0.31822891783759494
7.5082872928176805,0.4056047299371397
7.541657458563536,0.4721559180794903
7.575027624309393,0.5000171032012705
7.608397790055249,0.4828077123224076
7.641767955801106,0.42560321503218623
7.675138121546962,0.3407791805934827
7.708508287292818,0.2427188180458414
7.741878453038675,0.14416207540748874
7.775248618784531,0.05517986064992395
7.808618784530387,-0.016286152614643123
7.841988950276244,-0.06427604840795773
7.8753591160221,-0.08619896348968147
7.908729281767957,-0.08501058671823523
7.9420994475138125,-0.06996724054072787
7.975469613259669,-0.05403324140506688
8.008839779005525,-0.04820040283268801
8.042209944751383,-0.05564860109893603
8.075580110497238,-0.06973976981854826
8.108950276243094,-0.07807923171283508
8.14232044198895,-0.07107965018695395
8.175690607734808,-0.05007719892050964
8.209060773480664,-0.029536189785432376
8.24243093922652,-0.03091540142282972
8.275801104972377,-0.07068954984181645
8.309171270718233,-0.1488574970588348
8.342541436464089,-0.2446368888139063
8.375911602209946,-0.32258846422056053
8.409281767955802,-0.3469980182529413
8.442651933701658,-0.29793726322454295
8.476022099447514,-0.18137955643986875
8.509392265193371,-0.02851772150696841
8.542762430939227,0.11554022837243526
8.576132596685083,0.20879132413777526
8.60950276243094,0.2278722987375964
8.642872928176796,0.17581997703277413
8.676243093922652,0.07922081299707752
8.709613259668508,-0.023652698045547274
8.742983425414366,-0.09846171032923202
8.776353591160222,-0.12745501519545968
8.809723756906077,-0.11382627969191873
8.843093922651935,-0.07625703025120233
8.87646408839779,-0.03679349131752365
8.909834254143647,-0.008518473109061175
8.943204419889504,0.010385075083804138
8.97657458563536,0.03299043637647136
9.009944751381216,0.07258634833823312
9.043314917127072,0.13083316903823888
9.07668508287293,0.19249237553014215
9.110055248618785,0.23056340545130175
9.143425414364641,0.2197042210007312
9.176795580110499,0.15089077056393174
9.210165745856354,0.0392462565502007
9.24353591160221,-0.07962103239967322
9.276906077348068,-0.16357240214399046
9.310276243093924,-0.18184587315091838
9.34364640883978,-0.128691459988612
9.377016574585635,-0.02657633587167942
9.410386740331493,0.0824211181519844
9.443756906077349,0.1532607623328024
9.477127071823205,0.15561600372010723
9.510497237569062,0.08544793564722741
9.543867403314918,-0.03381555332081299
9.577237569060774,-0.16042782757191124
9.610607734806631,-0.24975536363203923
9.643977900552487,-0.2699157403365892
9.677348066298343,-0.2120330312108911
9.710718232044199,-0.0920263088576583
9.744088397790057,0.055858614660718876
9.777458563535912,0.19079915985389143
9.810828729281768,0.27809141459609377
9.844198895027626,0.2987053572806968
9.877569060773482,0.25311961719617576
9.910939226519337,0.15895496727337102
9.944309392265193,0.0439094298482291
9.97767955801105,-0.06321765263783928
10.011049723756907,-0.1403849697597219
10.044419889502763,-0.17684099990479207
10.07779005524862,-0.17361358988743797
10.111160220994476,-0.1407427096243731
10.144530386740332,-0.0928843791306439
10.17790055248619,-0.04485612235254872
10.211270718232045,-0.00807218566190289
10.244640883977901,0.011748563176217848
10.278011049723757,0.015370400389192863
10.311381215469615,0.009038757353140345
10.34475138121547,0.0016547796423118334
10.378121546961326,0.0008608006372222148
10.411491712707184,0.009625603673144323
10.44486187845304,0.025083985896008548
10.478232044198895,0.040438519101275924
10.511602209944753,0.049065931563387864
10.544972375690609,0.04859767015243224
10.578342541436465,0.042588751629772915
10.61171270718232,0.03863934497462263
10.645082872928178,0.04380983975803182
10.678453038674034,0.059755379628663945
10.71182320441989,0.08031486152656293
10.745193370165747,0.09314955021083289
10.778563535911603,0.08501533904881238
10.811933701657459,0.04834984344077513
10.845303867403315,-0.01402425753630424
10.878674033149172,-0.0886461986428144
10.912044198895028,-0.15618256118980542
10.945414364640884,-0.19924201364748842
10.978784530386742,-0.20947549890247188
11.012154696132598,-0.1902820484759471
11.045524861878453,-0.15363784642888267
11.078895027624311,-0.1128294950866489
11.112265193370167,-0.07531019341120429
11.145635359116023,-0.039913510565245953
11.179005524861878,-6.845633049804708e-05
11.212375690607736,0.049051610163209886
11.245745856353592,0.10405828138855618
11.279116022099448,0.1519221668792505
11.312486187845305,0.17502370496182218
11.345856353591161,0.16025021079643265
11.379226519337017,0.10721349999516074
11.412596685082875,0.03095511888167552
11.44596685082873,-0.04265125004992169
11.479337016574586,-0.0868399779979257
11.512707182320442,-0.08464320623622204
11.5460773480663,-0.03551287307757394
11.579447513812156,0.0448154380492774
11.612817679558011,0.1306841205381527
11.646187845303869,0.1959325823132776
11.679558011049725,0.22234979763013443
11.71292817679558,0.20419639542286008
11.746298342541436,0.14796571181279672
11.779668508287294,0.06854573779125814
11.81303867403315,-0.016071200036961032
11.846408839779006,-0.08954305313510931
11.879779005524863,-0.14025050400910397
11.91314917127072,-0.1624555663313388
11.946519337016575,-0.1559306075939073
11.979889502762433,-0.12471153869978441
12.013259668508288,-0.07566416657718023
12.046629834254144,-0.01742309012648124
12.08,0.04006201398227273
12.113370165745858,0.08565952929460097
12.146740331491714,0.10767368534211437
12.18011049723757,0.09586061879233077
12.213480662983427,0.04510975952448542
12.246850828729283,-0.040247209009516054
12.280220994475139,-0.1438050752788995
12.313591160220996,-0.23867670557248505
12.346961325966852,-0.2944495672240822
12.380331491712708,-0.28796153088401355
12.413701657458564,-0.2137375803833161
12.447071823204421,-0.08903959465130068
12.480441988950277,0.049808372847216564
12.513812154696133,0.15941898794615722
12.54718232044199,0.20529502659015827
12.580552486187846,0.17519333901478318
12.613922651933702,0.08413029257032222
12.64729281767956,-0.03130249791439886
12.680662983425416,-0.127083521913024
12.714033149171271,-0.16850982374403828
12.747403314917127,-0.14262453345804735
12.780773480662985,-0.0613796464892524
12.81414364640884,0.04527799824186659
12.847513812154697,0.14281276002791743
12.880883977900554,0.2057748424560713
12.91425414364641,0.22583903049125587
12.947624309392266,0.21135040120724463
12.980994475138122,0.17973105535471692
13.01436464088398,0.14735944000614298
13.047734806629835,0.12224870197003797
13.081104972375691,0.10278048798754143
13.114475138121549,0.08212741642513922
13.147845303867404,0.054871329972953756
13.18121546961326,0.02143303342015466
13.214585635359118,-0.012303664911327407
13.247955801104974,-0.03951894203569463
13.28132596685083,-0.05774937909477053
13.314696132596685,-0.07106236713029487
13.348066298342543,-0.08727025325873149
13.381436464088399,-0.11165865057116081
13.414806629834255,-0.14122582084626906
13.448176795580112,-0.16353009649248665
13.481546961325968,-0.1617344894030209
13.514917127071824,-0.12373515033024107
13.548287292817681,-0.05056024269014873
13.581657458563537,0.04081121055771323
13.615027624309393,0.12232867817316552
13.648397790055249,0.1655852350318556
13.681767955801106,0.15349713547919216
13.715138121546962,0.08762089114981324
13.748508287292818,-0.01205635834751272
13.781878453038676,-0.11455839415412376
13.815248618784532,-0.189307888845986
13.848618784530387,-0.21685367753401588
13.881988950276245,-0.19490849321454679
13.9153591160221,-0.1376517854628687
13.948729281767957,-0.06885815885362373
13.982099447513813,-0.011790305928627388
14.01546961325967,0.01991630839310487
14.048839779005526,0.02659586971231481
14.082209944751382,0.020487810424135007
14.11558011049724,0.018537364477013603
14.148950276243095,0.03357404460604042
14.182320441988951,0.06790520146837686
14.215690607734807,0.11205517569908571
14.249060773480664,0.1489800983689481
14.28243093922652,0.16169534344940104
14.315801104972376,0.1408539844706377
14.349171270718234,0.08895234480085285
14.38254143646409,0.019421576855271565
14.415911602209945,-0.04881401497492451
14.449281767955803,-0.09871323702010548
14.482651933701659,-0.12104677982885317
14.516022099447515,-0.11633277201002507
14.54939226519337,-0.09229894867539484
14.582762430939228,-0.058641314211565376
14.616132596685084,-0.02208547319906743
14.64950276243094,0.01569366733859868
14.682872928176797,0.05657131547181446
14.716243093922653,0.10224531446936692
14.749613259668509,0.15071260127901098
14.782983425414367,0.19494376842008362
14.816353591160222,0.22430436764684827
14.849723756906078,0.2278633292615628
14.883093922651934,0.1981296752014676
14.916464088397792,0.13399079857946458
14.949834254143648,0.042151404393591725
14.983204419889503,-0.06329896702149654
15.016574585635361,-0.16341462295339654
15.049944751381217,-0.238864797064535
15.083314917127073,-0.27535089262493995
15.116685082872928,-0.26806792273649493
15.150055248618786,-0.22316402080247533
15.183425414364642,-0.15526155593312052
15.216795580110498,-0.0820278893679862
15.250165745856355,-0.018328852778859265
15.283535911602211,0.027410076883878517
15.316906077348067,0.053461798702776654
15.350276243093925,0.06249251653522206
15.38364640883978,0.05869972832744435
15.417016574585636,0.04611891223312332
15.450386740331492,0.028512932531379837
15.48375690607735,0.009996418734005324
15.517127071823205,-0.004820262164223738
15.550497237569061,-0.0117841789952114
15.583867403314919,-0.008866202959904451
15.617237569060775,0.002550540739814589
15.65060773480663,0.01784047047792246
15.683977900552488,0.031098953913436603
15.717348066298344,0.03812497653381661
15.7507182320442,0.03880227642358861
15.784088397790056,0.03727472996912312
15.817458563535913,0.03937702336755682
15.85082872928177,0.04843506288723118
15.884198895027625,0.061840239914128445
15.917569060773483,0.07080882992127999
15.950939226519338,0.06419023315717196
15.984309392265194,0.0347793388088173
16.01767955801105,-0.015270716089924075
16.051049723756908,-0.07332732388417953
16.084419889502765,-0.12067469765877788
16.11779005524862,-0.14049290443937537
16.151160220994477,-0.1253136930707825
16.18453038674033,-0.0801202605882756
16.21790055248619,-0.019810837841915917
16.251270718232046,0.037124359475600235
16.2846408839779,0.07516805920097534
16.318011049723758,0.08567626703764188
16.351381215469615,0.0674287566383784
16.38475138121547,0.025225050882150355
16.418121546961327,-0.031542379176228354
16.451491712707185,-0.08955291194008567
16.48486187845304,-0.13238606414813958
16.518232044198896,-0.14319935212252075
16.551602209944754,-0.10995852409248491
16.584972375690608,-0.031736399459693684
16.618342541436466,0.07723212210711365
16.651712707182323,0.1890064837287993
16.685082872928177,0.26988408681928894
16.718453038674035,0.292391057852469
16.751823204419892,0.24631114377313063
16.785193370165747,0.14361898777946197
16.818563535911604,0.014735623338676215
16.851933701657458,-0.10252432369776682
16.885303867403316,-0.17662117303130564
16.918674033149173,-0.19282606840378616
16.952044198895027,-0.15650358424670938
16.985414364640885,-0.08842027390553736
17.018784530386743,-0.01484916517584923
17.052154696132597,0.04278179521438286
17.085524861878454,0.07428628269260756
17.118895027624312,0.08108408293555075
17.152265193370166,0.0715409105729464
