Time (s),Filtered Signal
0.0,-0.056262734808896105
0.03337000366703337,0.10885300250342905
0.06674000733406674,0.36549905510394437
0.1001100110011001,0.7495095436310547
0.13348001466813347,1.2143953898864366
0.16685001833516683,1.6452255002034557
0.2002200220022002,1.9075113330921682
0.2335900256692336,1.9074585085291595
0.26696002933626695,1.6344489617687088
0.3003300330033003,1.1658564820219899
0.33370003667033366,0.6333866755042241
0.36707004033736707,0.168861369595538
0.4004400440044004,-0.1440316046019808
0.4338100476714338,-0.2908845465183589
0.4671800513384672,-0.3149380102073974
0.5005500550055005,-0.28356880903157783
0.5339200586725339,-0.25274293617432264
0.5672900623395672,-0.24684449393069324
0.6006600660066006,-0.2602424022729171
0.634030069673634,-0.27436945160658444
0.6674000733406673,-0.2769863560224431
0.7007700770077008,-0.27178662730955644
0.7341400806747341,-0.27446204263911794
0.7675100843417675,-0.30024746987459244
0.8008800880088008,-0.3523789667108871
0.8342500916758342,-0.4187621332567241
0.8676200953428675,-0.4777249055322551
0.9009900990099009,-0.5078029195049526
0.9343601026769344,-0.4949763888314624
0.9677301063439677,-0.4340426178750226
1.001100110011001,-0.32579707303619826
1.0344701136780343,-0.1744478705918083
1.0678401173450678,0.011612202844400853
1.1012101210121013,0.21643802146058364
1.1345801246791345,0.4144966723193962
1.167950128346168,0.5738361854588017
1.2013201320132012,0.665073692996538
1.2346901356802347,0.6726187721043374
1.268060139347268,0.6021856982686676
1.3014301430143014,0.47968994980347457
1.3348001466813346,0.3406684706742837
1.368170150348368,0.21439148149972462
1.4015401540154016,0.11023856433596504
1.4349101576824348,0.013712872532676602
1.4682801613494683,-0.10468392972313167
1.5016501650165015,-0.2709096125182737
1.535020168683535,-0.4878830894179141
1.5683901723505682,-0.7252493028291017
1.6017601760176017,-0.9248818981072844
1.6351301796846351,-1.0211651885800912
1.6685001833516684,-0.9676780749387205
1.7018701870187019,-0.7583537385320533
1.735240190685735,-0.43339415218930794
1.7686101943527686,-0.06707133155613212
1.8019801980198018,0.257399459326926
1.8353502016868353,0.47536720715281544
1.8687202053538687,0.5597330944194421
1.902090209020902,0.5249051889380004
1.9354602126879354,0.4159012622170616
1.9688302163549687,0.2886209147694153
2.002200220022002,0.1899317322336371
2.0355702236890356,0.1449713015715272
2.0689402273560686,0.15502786424211776
2.102310231023102,0.2045884270456974
2.1356802346901356,0.27266936672091147
2.169050238357169,0.3425924049711546
2.2024202420242025,0.40604819095404365
2.2357902456912355,0.4606912667739382
2.269160249358269,0.5040203580269291
2.3025302530253025,0.5281645792904663
2.335900256692336,0.5193714956665813
2.369270260359369,0.4628925627883802
2.4026402640264024,0.35046494954923113
2.436010267693436,0.18595555392482582
2.4693802713604693,-0.013980472063390792
2.502750275027503,-0.22416961097567084
2.536120278694536,-0.41729889669018
2.5694902823615693,-0.5691671149906539
2.6028602860286028,-0.6614689549744163
2.636230289695636,-0.6831414565891307
2.6696002933626692,-0.6320904139046568
2.7029702970297027,-0.5177558376181719
2.736340300696736,-0.3627633558050349
2.7697103043637696,-0.20086725956864954
2.803080308030803,-0.06967602102029302
2.836450311697836,0.00031743641360221377
2.8698203153648696,-0.003952042315518667
2.903190319031903,-0.07341422845746624
2.9365603226989365,-0.18033969298618235
2.96993032636597,-0.2884729685508783
3.003300330033003,-0.3649785018950777
3.0366703337000365,-0.3889665358063789
3.07004033736707,-0.35404937255410446
3.1034103410341034,-0.2660752166155317
3.1367803447011364,-0.13920071922313063
3.17015034836817,0.007374673068071249
3.2035203520352034,0.15210572904463943
3.236890355702237,0.2747899320999371
3.2702603593692703,0.3618239294043055
3.3036303630363033,0.41105436972469117
3.3370003667033368,0.4326517320133307
3.3703703703703702,0.4437459322744609
3.4037403740374037,0.45839951112154803
3.4371103777044367,0.4782446862314388
3.47048038137147,0.48982943946000534
3.5038503850385037,0.471369395877772
3.537220388705537,0.4059763171621175
3.5705903923725706,0.29406431514894066
3.6039603960396036,0.1574566871306869
3.637330399706637,0.0320603519945571
3.6707004033736705,-0.04771532283724105
3.704070407040704,-0.06511310752518946
3.7374404107077375,-0.029881121085972923
3.7708104143747705,0.0241920121150018
3.804180418041804,0.051718196783686984
3.8375504217088374,0.012826486594317175
3.870920425375871,-0.11145676737691815
3.904290429042904,-0.31064241360911815
3.9376604327099374,-0.5456138505141688
3.971030436376971,-0.7587757556755211
4.004400440044004,-0.8908782655494223
4.037770443711038,-0.8996282303606434
4.071140447378071,-0.7739089232607548
4.104510451045105,-0.5381088153567469
4.137880454712137,-0.24420143305944658
4.171250458379171,0.04600401286580653
4.204620462046204,0.2816786435041487
4.237990465713238,0.4384417682874533
4.271360469380271,0.5221824628307511
4.304730473047305,0.5600055877527278
4.338100476714338,0.5827844928840067
4.3714704803813715,0.6075486289925145
4.404840484048405,0.6280292047796721
4.438210487715438,0.6180428015576387
4.471580491382471,0.546509741237227
4.5049504950495045,0.3972718228475913
4.538320498716538,0.18400907087937943
4.571690502383571,-0.04803025804425311
4.605060506050605,-0.2362864889870046
4.638430509717638,-0.3264230796415785
4.671800513384672,-0.29817989476921464
4.705170517051705,-0.17883881937854706
4.738540520718738,-0.03595354459100733
4.771910524385771,0.049776471639970926
4.805280528052805,0.020536438476079718
4.838650531719838,-0.13036808967644975
4.872020535386872,-0.352561178662683
4.905390539053905,-0.5594690814744704
4.938760542720939,-0.6673565576535305
4.972130546387972,-0.6341981698184065
5.005500550055006,-0.47930894382187844
5.038870553722038,-0.2736937467710966
5.072240557389072,-0.10550161770760963
5.105610561056105,-0.037424401668264565
5.138980564723139,-0.07695393414561937
5.172350568390172,-0.1740192290564974
5.2057205720572055,-0.24690475132928247
5.239090575724239,-0.22336676322305618
5.272460579391272,-0.0765341119101206
5.305830583058306,0.1618625515721147
5.3392005867253385,0.41676060077562005
5.372570590392372,0.6051139446416887
5.405940594059405,0.6733380977375637
5.439310597726439,0.6186979313408891
5.472680601393472,0.48541112586733987
5.506050605060506,0.33932087495212726
5.539420608727539,0.23538562902242158
5.572790612394573,0.19478988638238803
5.606160616061606,0.2022687343014263
5.63953061972864,0.22285143861456944
5.672900623395672,0.22681731615887551
5.706270627062706,0.2077411213619367
5.739640630729739,0.18311707970028102
5.773010634396773,0.1776240888189218
5.806380638063806,0.19973847598031627
5.83975064173084,0.2270143570910414
5.873120645397873,0.2110049746799349
5.9064906490649065,0.10154471061581397
5.93986065273194,-0.12186389647309444
5.9732306563989725,-0.42945811413251134
6.006600660066006,-0.7447978868531494
6.0399706637330395,-0.9731977398593753
6.073340667400073,-1.0418421540188159
6.106710671067106,-0.9315280809779275
6.14008067473414,-0.6841559107314706
6.173450678401173,-0.3828723749571233
6.206820682068207,-0.11571073462479543
6.24019068573524,0.05904678319312293
6.273560689402273,0.13016777900350648
6.306930693069306,0.12798934222327102
6.34030069673634,0.10226358676786135
6.373670700403373,0.0962984064950651
6.407040704070407,0.12985353979895423
6.44041070773744,0.19686281966796898
6.473780711404474,0.27592186204793445
6.507150715071507,0.345788573775623
6.540520718738541,0.39708133124449213
6.573890722405573,0.4345796048961924
6.607260726072607,0.46992973954928813
6.64063072973964,0.509523975956031
6.6740007334066735,0.5447506003464035
6.707370737073707,0.550721745915472
6.7407407407407405,0.4954107318526389
6.774110744407774,0.35568238417409825
6.807480748074807,0.13255468160845105
6.840850751741841,-0.14258505078439565
6.8742207554088735,-0.41545713267584433
6.907590759075907,-0.6281941469789263
6.94096076274294,-0.7422316887809675
6.974330766409974,-0.7536918991618066
7.007700770077007,-0.6928802130097669
7.041070773744041,-0.6071154420397451
7.074440777411074,-0.5350271346724549
7.107810781078108,-0.4857650061439005
7.141180784745141,-0.43478372533384724
7.174550788412174,-0.33933677806501983
7.207920792079207,-0.1659765961818552
7.241290795746241,0.08465738025878813
7.274660799413274,0.3695486712473563
7.308030803080308,0.6168270624813763
7.341400806747341,0.7550856759845511
7.3747708104143745,0.7444062835134563
7.408140814081408,0.594312013077358
7.4415108177484415,0.36052371878630796
7.474880821415475,0.12262709937979699
7.5082508250825075,-0.04666254711757941
7.541620828749541,-0.10694420557678884
7.5749908324165744,-0.060063443465002406
7.608360836083608,0.057896297784565086
7.641730839750641,0.19680648611519191
7.675100843417675,0.31430318064312035
7.708470847084708,0.38916672932313656
7.741840850751742,0.4214423148108716
7.775210854418775,0.4215803840163126
7.808580858085808,0.39629114805022037
7.841950861752841,0.3399141202152104
7.875320865419875,0.23652136357459155
7.908690869086908,0.07170456811287156
7.942060872753942,-0.15263222522383552
7.975430876420975,-0.4092104886018636
8.008800880088009,-0.6482200369813438
8.042170883755041,-0.8123778277140331
8.075540887422076,-0.8583018271850693
8.108910891089108,-0.7748014058170684
8.142280894756142,-0.589589205262233
8.175650898423175,-0.3608115964645415
8.20902090209021,-0.1564407293780917
8.242390905757242,-0.02995319775575338
8.275760909424275,-0.002372853465032249
8.309130913091309,-0.05787750861812979
8.342500916758341,-0.15405649565651144
8.375870920425376,-0.24143553068002463
8.409240924092408,-0.2831631165248315
8.442610927759443,-0.2665023867283459
8.475980931426475,-0.2023734041301626
8.50935093509351,-0.11505773770842297
8.542720938760542,-0.028303987528394876
8.576090942427575,0.045296740805811496
8.60946094609461,0.10744313449584765
8.642830949761642,0.16972243671341078
8.676200953428676,0.24516351296861824
8.709570957095709,0.3405273817655132
8.742940960762743,0.45285200313665697
8.776310964429776,0.5709340890477668
8.80968096809681,0.6797522777130169
8.843050971763843,0.7647601170818312
8.876420975430875,0.8138679805899737
8.90979097909791,0.8169929345801102
8.943160982764942,0.7649399249021067
8.976530986431976,0.6499826951702935
9.009900990099009,0.4694730086206032
9.043270993766043,0.23160918605725317
9.076640997433076,-0.039696662697823334
9.11001100110011,-0.3047255424573242
9.143381004767143,-0.5150923824777356
9.176751008434175,-0.6272931710445532
9.21012101210121,-0.6182461659343117
9.243491015768242,-0.4964989159406013
9.276861019435277,-0.3036948065468379
9.31023102310231,-0.10436011620057462
9.343601026769344,0.03340723205147282
9.376971030436376,0.0600412918525759
9.41034103410341,-0.038419162114530864
9.443711037770443,-0.23483757696200605
9.477081041437476,-0.46983258675652834
9.51045104510451,-0.672511635209325
9.543821048771543,-0.785657893356918
9.577191052438577,-0.785347399947111
9.61056105610561,-0.6864852239448603
9.643931059772644,-0.5315973206828674
9.677301063439677,-0.3682412988224047
9.710671067106711,-0.226522885659422
9.744041070773743,-0.10855385711962812
9.777411074440776,0.004711201022607438
9.81078107810781,0.13380633092452493
9.844151081774843,0.28057168147034195
9.877521085441877,0.4204300604902518
9.91089108910891,0.5128768525710985
9.944261092775944,0.5249214772836257
9.977631096442977,0.4539282877120527
10.011001100110011,0.33578069802523985
10.044371103777044,0.2320676879940165
10.077741107444076,0.20174163814732723
10.11111111111111,0.2717109433665539
10.144481114778143,0.42189262204752487
10.177851118445178,0.5926982971604692
10.21122112211221,0.7110742687475862
10.244591125779245,0.7217868343892833
10.277961129446277,0.608758365974681
10.311331133113312,0.39748195980877155
10.344701136780344,0.13981379522660664
10.378071140447377,-0.10919605024249296
10.411441144114411,-0.3105504146734316
10.444811147781444,-0.44893207542200786
10.478181151448478,-0.5283068155856349
10.51155115511551,-0.5610604848959253
10.544921158782545,-0.5579979976825155
10.578291162449577,-0.5241072344492023
10.611661166116612,-0.4605902992540552
10.645031169783644,-0.3700168665141946
10.678401173450677,-0.2602772356123899
10.711771177117711,-0.1444295114011041
10.745141180784744,-0.03639521019944961
10.778511184451778,0.05488757228226374
10.81188118811881,0.12915671893567826
10.845251191785845,0.19368825113289678
10.878621195452878,0.25729381827223424
10.911991199119912,0.3223332531418033
10.945361202786945,0.3791761846323932
10.978731206453979,0.40669813473278604
11.012101210121012,0.37942209468283644
11.045471213788044,0.2784293698212577
11.078841217455079,0.1011884367841538
11.112211221122111,-0.13392363722781775
11.145581224789145,-0.39000309437430664
11.178951228456178,-0.6196369282944785
11.212321232123212,-0.7757506650741303
11.245691235790245,-0.8225417786048802
11.27906123945728,-0.7444944126910246
11.312431243124312,-0.551856009921569
11.345801246791344,-0.2808539135761131
11.379171250458379,0.012812309619010441
11.412541254125411,0.26712112277103617
11.445911257792446,0.4306792796528035
11.479281261459478,0.47803508981722287
11.512651265126513,0.4173512862133306
11.546021268793545,0.286838063409091
11.57939127246058,0.1408646201933545
11.612761276127612,0.031034969813369433
11.646131279794645,-0.010520778129728315
11.67950128346168,0.02032314394209033
11.712871287128712,0.10166948177036622
11.746241290795746,0.1963542487014937
11.779611294462779,0.2669275120739645
11.812981298129813,0.28949431376257756
11.846351301796846,0.26201552044688603
11.87972130546388,0.20468486606725528
11.913091309130913,0.1523420007624454
11.946461312797945,0.14109942815352897
11.97983131646498,0.19321746911534232
12.013201320132012,0.30542515901541967
12.046571323799046,0.4456929557407057
12.079941327466079,0.5612070571681023
12.113311331133113,0.5960716415808507
12.146681334800146,0.5126226724201309
12.18005133846718,0.3076673024262294
12.213421342134213,0.016301972192207803
12.246791345801245,-0.299025411679141
12.28016134946828,-0.5701687566715439
12.313531353135312,-0.7469101437818684
12.346901356802347,-0.8129381369192127
12.38027136046938,-0.7878521380001142
12.413641364136414,-0.7148777520293939
12.447011367803446,-0.6400905505987163
12.48038137147048,-0.5924629981334231
12.513751375137513,-0.573389782953859
12.547121378804546,-0.5598300284796
12.58049138247158,-0.5189245997511874
12.613861386138613,-0.42675990146996995
12.647231389805647,-0.28216774786017856
12.68060139347268,-0.10886661255824136
12.713971397139714,0.05519210277170608
12.747341400806746,0.17622240913992737
12.78071140447378,0.2417986494667146
12.814081408140813,0.26822127011061786
12.847451411807846,0.29389222171201906
12.88082141547488,0.3610611359057751
12.914191419141913,0.4938523150592614
12.947561422808947,0.6825488268089331
12.98093142647598,0.8817867987932073
13.014301430143014,1.024571026752901
13.047671433810047,1.0472377976741123
13.081041437477081,0.9155055189125539
13.114411441144114,0.6407728788877021
13.147781444811146,0.27945861487452106
13.18115144847818,-0.08495888075684145
13.214521452145213,-0.3703582834552472
13.247891455812248,-0.5236516926600459
13.28126145947928,-0.5369098716717031
13.314631463146315,-0.44600952569602803
13.348001466813347,-0.3130594095921628
13.381371470480381,-0.2002928450801479
13.414741474147414,-0.14623624687369122
13.448111477814447,-0.15366990408740744
13.481481481481481,-0.19380613972498004
13.514851485148514,-0.2242372354182637
13.548221488815548,-0.21226344290817453
13.58159149248258,-0.15270744729372845
13.614961496149615,-0.07159035750080933
13.648331499816647,-0.013477118528903853
13.681701503483682,-0.01823602165689357
13.715071507150714,-0.09861264749920569
13.748441510817747,-0.2302780807927141
13.781811514484781,-0.36024125241809213
13.815181518151814,-0.43027146537859484
13.848551521818848,-0.40396431031952346
13.88192152548588,-0.28373008762515095
13.915291529152915,-0.10889585661115535
13.948661532819948,0.06407850183219715
13.982031536486982,0.18882242179875192
14.015401540154015,0.24943682596227915
14.048771543821047,0.26372534014283766
14.082141547488082,0.26848366771011656
14.115511551155114,0.29574057281654026
14.148881554822148,0.35332173992183274
14.182251558489181,0.42011156558176427
14.215621562156215,0.4579063017029385
14.248991565823248,0.43269050286124133
14.282361569490282,0.33347181082930905
14.315731573157315,0.17876006772230635
14.349101576824348,0.007921984581336933
14.382471580491382,-0.1371963147286839
14.415841584158414,-0.23027598057779797
14.449211587825449,-0.2690881967806942
14.482581591492481,-0.2713042979846858
14.515951595159516,-0.2612376922098133
14.549321598826548,-0.2555528710079115
14.582691602493583,-0.2556037580484715
14.616061606160615,-0.2496393834535796
14.649431609827648,-0.22243522942287852
14.682801613494682,-0.16617171620176388
14.716171617161715,-0.086399989269791
14.749541620828749,-0.00026185673011934154
14.782911624495782,0.07145716155156526
14.816281628162816,0.11387815703106546
14.849651631829849,0.12438802772778412
14.883021635496883,0.11315261744371276
14.916391639163916,0.09813884241999708
14.94976164283095,0.0973226894277509
14.983131646497982,0.12153352595986065
15.016501650165015,0.1706141824028207
15.04987165383205,0.2338833189710963
15.083241657499082,0.29412965191596413
15.116611661166116,0.3332587330385823
15.149981664833149,0.3375335610460734
15.183351668500183,0.3009066652975964
15.216721672167216,0.22580489206326457
15.25009167583425,0.12154895637538317
15.283461679501283,0.0012077052354119472
15.316831683168315,-0.12196412207912948
15.35020168683535,-0.237326785671576
15.383571690502382,-0.33801184476794605
15.416941694169417,-0.4201125965107926
15.45031169783645,-0.4803541160827104
15.483681701503484,-0.5135474712291587
15.517051705170516,-0.5117276298634752
15.55042170883755,-0.4665780356866596
15.583791712504583,-0.3751299852382416
15.617161716171616,-0.24626646439294897
15.65053171983865,-0.10376575281140668
15.683901723505683,0.017858463502737842
15.717271727172717,0.08518279060839284
15.75064173083975,0.0812282530329923
15.784011734506784,0.016957959875728984
15.817381738173816,-0.06807111311493202
15.85075174184085,-0.1184608176497813
15.884121745507883,-0.08516968696440019
15.917491749174916,0.05207999146034331
15.95086175284195,0.2725644902462874
15.984231756508983,0.5190009111359648
16.017601760176017,0.7179072317032581
16.05097176384305,0.8077558390607841
16.084341767510082,0.7628492714239076
16.117711771177117,0.6023969092954494
16.15108177484415,0.3808766657165512
16.184451778511182,0.16442168203193278
16.217821782178216,0.0044122265871288134
16.25119178584525,-0.07964783222737058
16.284561789512285,-0.10101570658310677
16.317931793179316,-0.0918238381977581
16.35130179684635,-0.08313975097453981
16.384671800513384,-0.08997807982703966
16.41804180418042,-0.10854013513688698
16.45141180784745,-0.12543121960136483
16.484781811514484,-0.13162200118731712
16.51815181518152,-0.13152712273433476
16.55152181884855,-0.14116382617835568
16.584891822515583,-0.1767116560206437
16.618261826182618,-0.2413082275832148
16.651631829849652,-0.3193759201899072
16.685001833516683,-0.3830974994277947
16.718371837183717,-0.4077355745159861
16.75174184085075,-0.3864440856611206
16.785111844517782,-0.335080303219233
16.818481848184817,-0.2835183832034162
16.85185185185185,-0.25830272289742173
16.885221855518886,-0.26684614227118103
16.918591859185916,-0.2924160224414015
16.95196186285295,-0.3025941844992191
16.985331866519985,-0.265986636717529
17.01870187018702,-0.16761754299309847
17.05207187385405,-0.015089842078520077
17.085441877521085,0.16627512174139683
17.11881188118812,0.3447268137759087
17.15218188485515,0.49259761052030576
17.185551888522184,0.5911647891264288
17.21892189218922,0.6300511537095151
17.252291895856253,0.605265511464735
17.285661899523284,0.5199701488639056
