Frequency (Hz),Amplitude
0.0,5.542784929779453
0.01993355481727575,5.540139604588803
0.0398671096345515,5.5322064828094915
0.059800664451827246,5.518994125622658
0.079734219269103,5.500516801061368
0.09966777408637874,5.476794483297029
0.11960132890365449,5.447852852026009
0.13953488372093023,5.4137232923571865
0.159468438538206,5.374442895737799
0.17940199335548174,5.330054462610101
0.19933554817275748,5.280606507670459
0.21926910299003324,5.226153268812865
0.23920265780730898,5.166754721089517
0.25913621262458475,5.102476597322867
0.27906976744186046,5.033390417371083
0.29900332225913623,4.959573528499601
0.318936877076412,4.881109159869726
0.3388704318936877,4.798086494850881
0.3588039867109635,4.710600765736638
0.37873754152823924,4.6187533765489395
0.39867109634551495,4.522652061020232
0.4186046511627907,4.422411084644149
0.4385382059800665,4.31815150200892
0.4584717607973422,4.210001483646773
0.47840531561461797,4.098096730584108
0.49833887043189373,3.9825809999871082
0.5182724252491695,3.863606772220235
0.5382059800664452,3.7413360989058084
0.5581395348837209,3.6159416840902736
0.5780730897009968,3.487608267664113
0.5980066445182725,3.3565344035814078
0.6179401993355482,3.2229347578274985
0.637873754152824,3.0870430963360795
0.6578073089700996,2.9491161967747503
0.6777408637873754,2.8094390085138294
0.6976744186046512,2.6683315141637483
0.717607973421927,2.5261579311757747
0.7375415282392027,2.3833391577736736
0.7574750830564785,2.240369747325252
0.7774086378737541,2.097841230257089
0.7973421926910299,1.9564743313359845
0.8172757475083057,1.817163552277835
0.8372093023255814,1.6810385613986405
0.8571428571428572,1.549547297885751
0.877076411960133,1.4245640735835567
0.8970099667774087,1.3085184212235903
0.9169435215946844,1.2045193719281302
0.9368770764119602,1.1164047347894406
0.9568106312292359,1.0485760814143403
0.9767441860465116,1.0054402672533866
0.9966777408637875,0.9904097795330348
1.0166112956810631,1.004809516234362
1.036544850498339,1.0473761681531981
1.0564784053156147,1.114737368010118
1.0764119601328903,1.2024990801922886
1.0963455149501662,1.3062532249936094
1.1162790697674418,1.4221470160236325
1.1362126245847177,1.5470552679305862
1.1561461794019936,1.6785343609086407
1.176079734219269,1.8146987731045734
1.196013289036545,1.954091998804216
1.2159468438538206,2.0955779133566024
1.2358803986710964,2.238257140928911
1.255813953488372,2.3814052345990184
1.275747508305648,2.5244277696425157
1.2956810631229239,2.6668278906234795
1.3156146179401993,2.8081828207555297
1.3355481727574752,2.948126767260918
1.3554817275747508,3.086338389601637
1.3754152823920267,3.222531536348674
1.3953488372093024,3.356448339279505
1.4152823920265782,3.487854021218409
1.435215946843854,3.6165329607527563
1.4551495016611296,3.7422856870746224
1.4750830564784054,3.8649265693159762
1.495016611295681,3.9842820289625465
1.514950166112957,4.100189149531593
1.5348837209302328,4.212494590344211
1.5548172757475083,4.321053734791966
1.5747508305647842,4.425730020660639
1.5946843853820598,4.526394412677617
1.6146179401993357,4.622924986782707
1.6345514950166113,4.715206602590044
1.6544850498338872,4.803130645752504
1.6744186046511629,4.886594825915082
1.6943521594684385,4.965503018981952
1.7142857142857144,5.039765144758434
1.73421926910299,5.109297072840789
1.754152823920266,5.174020551039445
1.7740863787375416,5.233863151731858
1.7940199335548175,5.288758232419138
1.8139534883720931,5.3386449074598685
1.8338870431893688,5.383468028515506
1.8538205980066447,5.423178171694538
1.8737541528239203,5.4577316297521925
1.893687707641196,5.487090408005058
1.9136212624584719,5.511222222872139
1.9335548172757475,5.53010050216467
1.9534883720930232,5.543704386427228
1.9734219269102993,5.552018730787871
1.993355481727575,5.555034106912439
2.0132890365448506,5.552746804781944
2.0332225913621262,5.54515883412617
2.0531561461794023,5.532277925456778
2.073089700996678,5.51411753074971
2.0930232558139537,5.4906968239366005
2.1129568106312293,5.4620407014789665
2.132890365448505,5.428179783422448
2.1528239202657806,5.389150415464993
2.1727574750830567,5.344994672727713
2.1926910299003324,5.2957603660959585
2.212624584717608,5.24150105220845
2.2325581395348837,5.182276048421962
2.25249169435216,5.118150454380703
2.2724252491694354,5.049195182185748
2.292358803986711,4.975486997609876
2.312292358803987,4.897108575359983
2.332225913621263,4.814148572082688
2.352159468438538,4.726701721680339
2.3720930232558137,4.63486895860553
2.39202657807309,4.5387575762034436
2.4119601328903655,4.43848142896673
2.431893687707641,4.33416118988431
2.4518272425249172,4.225924677074634
2.471760797342193,4.113907267832826
2.4916943521594686,3.99825242341393
2.511627906976744,3.879112354773679
2.5315614617940203,3.756648868727804
2.551495016611296,3.631034446464701
2.5714285714285716,3.502453623328871
2.5913621262458477,3.371104762110288
2.611295681063123,3.237202344365462
2.6312292358803986,3.1009799493965295
2.6511627906976742,2.9626941540231324
2.6710963455149503,2.8226296764003322
2.691029900332226,2.681106215844537
2.7109634551495017,2.538487625301792
2.7308970099667778,2.395194318410909
2.7508305647840534,2.251720192682118
2.770764119601329,2.108655885765313
2.7906976744186047,1.966720913055747
2.810631229235881,1.8268081649007188
2.8305647840531565,1.6900452338900032
2.850498338870432,1.5578775569817753
2.870431893687708,1.4321768378656277
2.8903654485049834,1.3153708852096024
2.910299003322259,1.210570252222908
2.9302325581395348,1.121622183178766
2.950166112956811,1.0529528282949354
2.9700996677740865,1.0090157206023231
2.990033222591362,0.9932908277993525
3.0099667774086383,1.0071741895043302
3.029900332225914,1.0494508944101513
3.0498338870431896,1.1167588875453527
3.0697674418604657,1.2046822477568633
3.089700996677741,1.3087756839938949
3.1096345514950166,1.425148014008126
3.129568106312292,1.5506413505592165
3.1495016611295683,1.6827866433209486
3.169435215946844,1.819679388777533
3.1893687707641196,1.9598490921055625
3.2093023255813957,2.1021492750995643
3.2292358803986714,2.2456727850238196
3.249169435215947,2.3896892070867417
3.2691029900332227,2.533599418964628
3.289036544850499,2.676902764353613
3.3089700996677744,2.8191733037667235
3.32890365448505,2.960042540174542
3.3488372093023258,3.099186761424099
3.3687707641196014,3.2363176882766655
3.388704318936877,3.371175505222437
3.4086378737541527,3.5035236228496704
3.428571428571429,3.6331447096336613
3.4485049833887045,3.759837662779657
3.46843853820598,3.883415279983201
3.4883720930232562,4.003702458940209
3.508305647840532,4.120534797552904
3.5282392026578075,4.233757500777119
3.548172757475083,4.343224523872157
3.5681063122923593,4.448797899150439
3.588039867109635,4.550347206050941
3.60797342192691,4.647749153781646
3.6279069767441863,4.7408872528078865
3.647840531561462,4.82965155675332
3.6677740863787376,4.913938460289994
3.6877076411960132,4.993650541657046
3.7076411960132893,5.0686964408034205
3.727574750830565,5.138990765975515
3.7475083056478407,5.204454022994918
3.7674418604651168,5.265012562589383
3.787375415282392,5.3205985420252135
3.807308970099668,5.3711498979931855
3.8272425249169437,5.416610328264592
3.8471760797342194,5.456929280090969
3.867109634551495,5.492061943691286
3.887043189368771,5.521969249476661
3.9069767441860463,5.546617867914998
3.9269102990033224,5.5659802111507535
3.9468438538205985,5.58003443567594
3.9667774086378738,5.5887644455043874
3.98671096345515,5.59215989543966
4.0066445182724255,5.590216194150938
4.026578073089701,5.582934506886495
4.046511627906977,5.570321757764089
4.0664451827242525,5.552390631685074
4.086378737541528,5.529159576029155
4.106312292358805,5.500652802400683
4.1262458471760795,5.46690028882145
4.146179401993356,5.4279377829016155
4.166112956810632,5.383806806675323
4.186046511627907,5.334554663966825
4.205980066445183,5.28023445136297
4.225913621262459,5.220905074118086
4.245847176079734,5.156631268618733
4.26578073089701,5.087483633402502
4.2857142857142865,5.013538671174685
4.305647840531561,4.934878844824018
4.325581395348838,4.851592651131944
4.345514950166113,4.763774716741805
4.365448504983389,4.671525922054955
4.385382059800665,4.5749535601228555
4.40531561461794,4.474171539399086
4.425249169435216,4.369300641532763
4.445182724252492,4.26046884839406
4.465116279069767,4.1478117564627395
4.485049833887043,4.031473101904303
4.50498338870432,3.911605426560681
4.524916943521594,3.7883709243254895
4.544850498338871,3.6619425198559314
4.5647840531561465,3.532505248568687
4.584717607973422,3.4002580302075525
4.604651162790698,3.265415960602312
4.624584717607974,3.12821329140977
4.644518272425249,2.988907331265516
4.664451827242526,2.847783592124977
4.6843853820598005,2.7051626337053523
4.704318936877076,2.5614092443952736
4.724252491694353,2.416944863780536
4.7441860465116275,2.2722645342718466
4.764119601328904,2.127960210066773
4.78405315614618,1.9847529931575556
4.803986710963455,1.8435378158379745
4.823920265780731,1.7054451192391151
4.8438538205980075,1.5719246624429015
4.863787375415282,1.4448552012250513
4.883720930232559,1.3266766307121987
4.9036544850498345,1.2205206005814797
4.92358803986711,1.1302704880099246
4.943521594684386,1.0604104229545444
4.963455149501661,1.0154760025441452
4.983388704318937,0.9990416532621982
5.003322259136213,1.0125811552279298
5.023255813953488,1.0549100016254227
5.043189368770764,1.122641841148876
5.063122923588041,1.21130088460871
5.083056478405315,1.3163724804284662
5.102990033222592,1.4339034902422658
5.122923588039868,1.560687285269284
5.142857142857143,1.6942187523996401
5.162790697674419,1.8325673255925943
5.182724252491695,1.9742436852851677
5.20265780730897,2.1180875705134974
5.222591362126246,2.2631815098353796
5.242524916943522,2.4087871481704926
5.262458471760797,2.554299066786286
5.282392026578074,2.6992114612826317
5.3023255813953485,2.8430940565180127
5.322259136212625,2.98557460268119
5.342192691029901,3.1263260591761304
5.362126245847176,3.2650571319846975
5.382059800664452,3.4015052263916443
5.4019933554817285,3.5354311537110403
5.421926910299003,3.666615123084881
5.44186046511628,3.7948536833838
5.4617940199335555,3.9199573739170455
5.48172757475083,4.041748908595302
5.501661129568107,4.160061764956098
5.5215946843853825,4.274739082906882
5.541528239202658,4.385632802164165
5.561461794019934,4.492602984918
5.5813953488372094,4.595517283129154
5.601328903654485,4.694250519395607
5.621262458471762,4.788684357434695
5.641196013289036,4.878707043572846
5.661129568106313,4.96421320468699
5.681063122923589,5.045103691134503
5.700996677740864,5.1212854555880725
5.72093023255814,5.192671460534164
5.740863787375416,5.259180608631163
5.760797342192691,5.320737691251312
5.780730897009967,5.377273351423302
5.800664451827243,5.428724058102035
5.820598006644518,5.475032089261735
5.840531561461795,5.516145521768236
5.8604651162790695,5.552018226360779
5.880398671096346,5.582609866380917
5.900332225913622,5.607885899141061
5.920265780730897,5.627817579039626
5.940199335548173,5.64238196171106
5.960132890365449,5.651561908657319
5.980066445182724,5.655346091945015
6.0,5.653728998678721
6.0199335548172765,5.646710935075358
6.039867109634551,5.634298030076261
6.059800664451828,5.61650223854049
6.0797342192691035,5.593341344174102
6.099667774086379,5.5648389624643535
6.119601328903655,5.531024544012566
6.139534883720931,5.491933378796197
6.159468438538206,5.447606602046622
6.179401993355482,5.398091202608576
6.1993355481727574,5.343440034858081
6.219269102990033,5.28371183550679
6.23920265780731,5.2189712469228695
6.259136212624584,5.149288848966515
6.279069767441861,5.074741201789348
6.299003322259137,4.995410902605752
6.318936877076412,4.911386660140221
6.338870431893688,4.822763391329199
6.3588039867109645,4.729642345960516
6.378737541528239,4.6321312663400604
6.398671096345516,4.53034459087738
6.418604651162791,4.4244037128073535
6.438538205980066,4.3144373082867
6.458471760797343,4.200581752060172
6.4784053156146175,4.0829816441074165
6.498338870431894,3.9617904776155206
6.51827242524917,3.837171487910383
6.538205980066445,3.7092987345270543
6.558139534883721,3.5783584856898853
6.578073089700998,3.4445509979560986
6.598006644518272,3.3080928163224637
6.617940199335549,3.1692197655968948
6.6378737541528245,3.0281908679906477
6.6578073089701,2.885293513059115
6.677740863787376,2.7408503365836636
6.6976744186046515,2.595228452639888
6.717607973421927,2.4488519535681386
6.737541528239203,2.3022189811985885
6.7574750830564785,2.1559252243376936
6.777408637873754,2.0106964580866613
6.797342192691031,1.8674337237678065
6.8172757475083055,1.7272758362795022
6.837209302325582,1.591684587149188
6.857142857142858,1.462556760621215
6.877076411960133,1.3423600957944384
6.897009966777409,1.2342697250267314
6.9169435215946855,1.1422356868763346
6.93687707641196,1.070838119236121
6.956810631229236,1.0247344270200154
6.9767441860465125,1.0076225023343162
6.996677740863787,1.021058219808147
7.016611295681064,1.0638631796518692
7.036544850498339,1.1325844714282558
7.056478405315615,1.2226423234016779
7.076411960132891,1.3294170395968983
7.096345514950166,1.4488685667557208
7.116279069767442,1.577725341612456
7.136212624584719,1.7134359560382866
7.156146179401993,1.8540372638591531
7.17607973421927,1.9980168330738635
7.196013289036546,2.1441976585844205
7.21594684385382,2.291649783528935
7.235880398671097,2.4396252303071804
7.2558139534883725,2.587510904127563
7.275747508305648,2.7347946674177686
7.295681063122924,2.8810408537176966
7.3156146179402,3.0258724941879005
7.335548172757475,3.168958317996945
7.355481727574752,3.3100031631869746
7.3754152823920265,3.4487408411524236
7.395348837209303,3.584928781144692
7.415282392026579,3.718343977801995
7.435215946843854,3.84877990133472
7.45514950166113,3.9760441254131935
7.475083056478406,4.099956494886989
7.495016611295681,4.220347702995718
7.514950166112956,4.337058181693343
7.5348837209302335,4.44993723318488
7.554817275747508,4.558842348570139
7.574750830564784,4.663638672538598
7.5946843853820605,4.764198582710609
7.614617940199336,4.860401359416166
7.634551495016611,4.952132927111956
7.6544850498338874,5.039285652734422
7.674418604651163,5.121758189414273
7.694352159468439,5.199455356381754
7.714285714285715,5.272288047753859
7.73421926910299,5.3401731643457735
7.754152823920266,5.403033563788523
7.774086378737542,5.460798025135054
7.794019933554818,5.513401224854018
7.813953488372093,5.5607837216845155
7.83388704318937,5.602891948289435
7.853820598006645,5.6396782080219285
7.8737541528239205,5.671100675429977
7.893687707641197,5.697123399380889
7.913621262458472,5.71771630790328
7.9335548172757475,5.732855214027462
7.953488372093024,5.742521822063893
7.9734219269103,5.746703733898888
7.9933554817275745,5.745394455012768
8.013289036544851,5.738593400042343
8.033222591362128,5.7263058978203025
8.053156146179402,5.708543195933496
8.073089700996679,5.68532246495245
8.093023255813954,5.656666802600475
8.11295681063123,5.622605238255489
8.132890365448505,5.583172738315855
8.152823920265782,5.538410213117983
8.172757475083056,5.4883645262741725
8.192691029900331,5.433088507511219
8.21262458471761,5.372640970342739
8.232558139534884,5.30708673621248
8.252491694352159,5.236496667115595
8.272425249169435,5.160947709159303
8.292358803986712,5.0805229500860545
8.312292358803987,4.995311694483527
8.332225913621263,4.905409561285154
8.352159468438538,4.810918609277637
8.372093023255815,4.71194749774801
8.392026578073091,4.608611691218149
8.411960132890366,4.501033719557348
8.43189368770764,4.389343507809653
8.451827242524917,4.273678794060875
8.471760797342194,4.154185658931891
8.491694352159469,4.031019197282195
8.511627906976745,3.9043443720855278
8.53156146179402,3.7743371031151587
8.551495016611296,3.6411856603543407
8.571428571428573,3.50509245580543
8.591362126245848,3.3662763603289734
8.611295681063122,3.224975718269466
8.6312292358804,3.0814522977386556
8.651162790697676,2.9359965070991847
8.67109634551495,2.7889343410403735
8.691029900332227,2.6406367111374593
8.710963455149502,2.4915320925644577
8.730897009966778,2.3421238177527735
8.750830564784053,2.193013917078115
8.77076411960133,2.044936197063443
8.790697674418604,1.8988022801344067
8.81063122923588,1.7557655011766562
8.830564784053157,1.617308367305041
8.850498338870432,1.4853582107242302
8.870431893687707,1.3624288193593213
8.890365448504983,1.2517649989460728
8.91029900332226,1.1574195861114311
8.930232558139535,1.084114160611236
8.950166112956811,1.0366755631907665
8.970099667774086,1.01895932329567
8.990033222591363,1.0326066177947049
9.00996677740864,1.076412914665084
9.029900332225914,1.1468054982153908
9.049833887043189,1.2390470096568902
9.069767441860467,1.3483710287255781
9.089700996677742,1.4706227344297997
9.109634551495017,1.6024484725915444
9.129568106312293,1.7412403010016673
9.14950166112957,1.884996347168691
9.169435215946844,2.032177242920522
9.189368770764121,2.1815867127975253
9.209302325581396,2.332280512779684
9.22923588039867,2.483499648970963
9.249169435215949,2.634622189907439
9.269102990033224,2.785128640363203
9.289036544850498,2.9345769999979807
9.308970099667773,3.0825846898691323
9.328903654485051,3.2288153522386756
9.348837209302326,3.3729691254397363
9.368770764119601,3.514775414957258
9.388704318936878,3.6539874730780793
9.408637873754152,3.790378300986041
9.428571428571429,3.923737526922478
9.448504983388705,4.053869011440157
9.46843853820598,4.180588999153166
9.488372093023255,4.303724684766605
9.508305647840533,4.423113095699
9.528239202657808,4.5386002184717
9.548172757475083,4.650040314097553
9.56810631229236,4.757295380933819
9.588039867109636,4.860234733242859
9.60797342192691,4.958734670991844
9.627906976744187,5.052678221896855
9.647840531561462,5.141954940861865
9.667774086378738,5.226460755124981
9.687707641196015,5.306097845854204
9.70764119601329,5.380774558815825
9.727574750830565,5.450405338204447
9.747508305647841,5.51491067887377
9.767441860465118,5.574217093116579
9.787375415282392,5.628257088865173
9.807308970099669,5.676969156763513
9.827242524916944,5.720297764029474
9.84717607973422,5.7581933534068845
9.867109634551497,5.79061234581927
9.887043189368772,5.817517145596285
9.906976744186046,5.838876147361334
9.926910299003321,5.854663743853766
9.9468438538206,5.86486033411859
9.966777408637874,5.869452331637736
9.986710963455149,5.868432172103419
10.006644518272426,5.861798320651974
10.026578073089702,5.849555278487891
10.046511627906977,5.831713588938233
10.066445182724253,5.808289843088231
10.086378737541528,5.779306685266642
10.106312292358805,5.744792818774244
10.126245847176081,5.704783012388589
10.146179401993356,5.6593181083358814
10.16611295681063,5.608445032602437
10.186046511627907,5.552216808672598
10.205980066445184,5.490692576034178
10.225913621262459,5.42393761509914
10.245847176079735,5.352023380560735
10.26578073089701,5.275027545666032
10.285714285714286,5.193034060450489
10.305647840531563,5.106133227687982
10.325581395348838,5.014421801198749
10.345514950166113,4.918003112280768
10.36544850498339,4.816987231461749
10.385382059800666,4.711491174603486
10.40531561461794,4.601639164760346
10.425249169435217,4.487562964275493
10.445182724252492,4.369402295636828
10.465116279069768,4.24730537494551
10.485049833887045,4.121429588944112
10.50498338870432,3.991942356067102
10.524916943521594,3.8590222248496477
10.544850498338871,3.7228602805955253
10.564784053156147,3.5836619553854776
10.584717607973422,3.441649370095487
10.604651162790697,3.2970643841730363
10.624584717607974,3.1501725954973465
10.64451827242525,3.001268627601649
10.664451827242525,2.850683177990981
10.684385382059801,2.6987924985796523
10.704318936877076,2.5460312654809534
10.724252491694353,2.392910210062383
10.74418604651163,2.2400404783815193
10.764119601328904,2.0881675198655087
10.784053156146179,1.93821841168299
10.803986710963457,1.7913678131105213
10.823920265780732,1.6491287317428187
10.843853820598007,1.5134734297491619
10.863787375415283,1.3869830861263874
