Frequency (Hz),Amplitude
0.0,0.7027082846304125
0.019867549668874173,0.7023881465665297
0.039735099337748346,0.7014281196322114
0.059602649006622516,0.6998293659174599
0.07947019867549669,0.6975938233119655
0.09933774834437085,0.694724207159936
0.11920529801324503,0.6912240126689823
0.13907284768211922,0.6870975181682738
0.15894039735099338,0.6823497893435154
0.17880794701986755,0.6769866846119719
0.1986754966887417,0.67101486184211
0.2185430463576159,0.6644417866699661
0.23841059602649006,0.6572757427200924
0.2582781456953642,0.6495258441055364
0.27814569536423844,0.6412020506602946
0.2980132450331126,0.632315186453388
0.31788079470198677,0.6228769622496199
0.33774834437086093,0.6129000027233684
0.3576158940397351,0.602397879405031
0.3774834437086093,0.5913851505532919
0.3973509933774834,0.5798774094103676
0.4172185430463576,0.5678913426252006
0.4370860927152318,0.555444801038422
0.45695364238410596,0.5425568855338392
0.4768211920529801,0.5292480513022589
0.49668874172185434,0.5155402346693565
0.5165562913907285,0.5014570076537754
0.5364238410596026,0.4870237667009072
0.5562913907284769,0.4722679636483026
0.5761589403973509,0.4572193890036717
0.5960264900662252,0.4419105201490887
0.6158940397350993,0.42637695022677247
0.6357615894039735,0.410657917304918
0.6556291390728477,0.3947969580155578
0.6754966887417219,0.3788427151395162
0.695364238410596,0.36284993428229795
0.7152317880794702,0.3468806900548034
0.7350993377483444,0.3310058853515459
0.7549668874172186,0.3153070650875544
0.7748344370860927,0.29987857201427964
0.7947019867549668,0.2848300364296196
0.8145695364238411,0.27028911668890326
0.8344370860927152,0.2564042685238601
0.8543046357615894,0.24334708785832312
0.8741721854304636,0.23131342091062002
0.8940397350993378,0.22052198566354747
0.9139072847682119,0.21120882741298377
0.9337748344370861,0.2036158551528967
0.9536423841059603,0.19797248638133488
0.9735099337748344,0.1944715115186453
0.9933774834437087,0.19324342687045556
1.0132450331125828,0.19433615435611512
1.033112582781457,0.19770699099390093
1.0529801324503312,0.2032297979139049
1.0728476821192052,0.21071473359997717
1.0927152317880795,0.2199338127628664
1.1125827814569538,0.23064528083363767
1.1324503311258278,0.2426123648652123
1.1523178807947019,0.25561512693192256
1.1721854304635762,0.26945630884095406
1.1920529801324504,0.2839629048543462
1.2119205298013245,0.2989851578755717
1.2317880794701985,0.31439426248367613
1.2516556291390728,0.330079605165756
1.271523178807947,0.34594601422933174
1.2913907284768211,0.36191125213149034
1.3112582781456954,0.3779038393974008
1.3311258278145695,0.39386122141258206
1.3509933774834437,0.40972825182326417
1.370860927152318,0.4254559515919776
1.390728476821192,0.4410005000534566
1.410596026490066,0.45632241729031214
1.4304635761589404,0.47138590235402045
1.4503311258278146,0.4861582975302814
1.4701986754966887,0.5006096541651692
1.4900662251655628,0.5147123802054525
1.5099337748344372,0.5284409534929809
1.5298013245033113,0.5417716880332502
1.5496688741721854,0.5546825430239645
1.5695364238410596,0.5671529664812133
1.5894039735099337,0.5791637669333959
1.609271523178808,0.5906970079495194
1.6291390728476822,0.6017359212968846
1.6490066225165563,0.6122648353398982
1.6688741721854303,0.6222691159414143
1.6887417218543048,0.6317351176456598
1.7086092715231789,0.6406501433360164
1.728476821192053,0.6490024108928694
1.7483443708609272,0.6567810256441038
1.7682119205298013,0.6639759576168822
1.7880794701986755,0.6705780227747246
1.8079470198675496,0.6765788675668449
1.8278145695364238,0.6819709562338411
1.847682119205298,0.6867475604105409
1.8675496688741722,0.6909027506466098
1.8874172185430464,0.6944313895327279
1.9072847682119205,0.6973291261761443
1.9271523178807946,0.6995923918177306
1.9470198675496688,0.7012183964235252
1.9668874172185429,0.7022051261203174
1.9867549668874174,0.7025513413764203
2.0066225165562916,0.7022565758583778
2.0264900662251657,0.7013211359210725
2.0463576158940397,0.6997461007147622
2.066225165562914,0.6975333229178627
2.086092715231788,0.6946854301299985
2.1059602649006623,0.691205826986665
2.1258278145695364,0.6870986980850078
2.1456953642384105,0.682369011842282
2.165562913907285,0.6770225254428213
2.185430463576159,0.6710657910699865
2.205298013245033,0.6645061636654878
2.2251655629139075,0.6573518105131649
2.2450331125827816,0.6496117230085178
2.2649006622516556,0.6412957310526985
2.2847682119205297,0.6324145206023581
2.3046357615894038,0.622979655020145
2.324503311258278,0.6130036010079479
2.3443708609271523,0.6024997600747007
2.364238410596027,0.591482506698745
2.384105960264901,0.5799672346038552
2.403973509933775,0.5679704128889932
2.423841059602649,0.5555096541543699
2.443708609271523,0.5426037972691631
2.463576158940397,0.5292730080600618
2.4834437086092715,0.5155389019980215
2.5033112582781456,0.5014246939698237
2.52317880794702,0.48695538149817824
2.543046357615894,0.4721579693910144
2.562913907284768,0.45706174584464493
2.5827814569536423,0.44169862260169
2.6026490066225163,0.42610355498938096
2.622516556291391,0.4103150616554152
2.642384105960265,0.39437586866726704
2.662251655629139,0.37833370834843033
2.6821192052980134,0.36224230958511955
2.7019867549668874,0.3461626227066142
2.7218543046357615,0.33016432693075487
2.741721854304636,0.31432766870942097
2.76158940397351,0.29874566928054264
2.781456953642384,0.28352670891582615
2.801324503311258,0.2687974263393526
2.821192052980132,0.254705738011114
2.8410596026490067,0.24142354857833295
2.8609271523178808,0.22914835860185656
2.8807947019867552,0.21810248304511776
2.9006622516556293,0.20852808644145224
2.9205298013245033,0.20067603906573225
2.9403973509933774,0.19478727119872885
2.9602649006622515,0.19106742675064928
2.9801324503311255,0.1896590804463684
3.0,0.19061900656704306
3.0198675496688745,0.1939083162109187
3.0397350993377485,0.19939926156146284
3.0596026490066226,0.20689606166242464
3.0794701986754967,0.21616236807929995
3.0993377483443707,0.22694751820364664
3.119205298013245,0.23900660651875635
3.1390728476821192,0.25211299310540003
3.1589403973509933,0.2660642923458246
3.1788079470198674,0.2806837973775466
3.198675496688742,0.295819210417002
3.218543046357616,0.31134006698621847
3.23841059602649,0.32713473303094853
3.2582781456953644,0.3431074621409941
3.2781456953642385,0.3591757436876304
3.2980132450331126,0.3752680228446938
3.3178807947019866,0.39132179449123866
3.3377483443708607,0.4072820365202449
3.3576158940397347,0.42309993508147503
3.3774834437086096,0.4387318532203843
3.3973509933774837,0.45413849870047585
3.4172185430463577,0.46928425303551907
3.437086092715232,0.4841366301883238
3.456953642384106,0.4986658392494085
3.47682119205298,0.5128444304249863
3.4966887417218544,0.5266470078125717
3.5165562913907285,0.5400499958042425
3.5364238410596025,0.5530314486473618
3.556291390728477,0.5655708948296312
3.576158940397351,0.5776492096455521
3.596026490066225,0.5892485106373323
3.615894039735099,0.6003520716583017
3.6357615894039736,0.6109442521416519
3.6556291390728477,0.6210104388186057
3.6754966887417218,0.6305369976562395
3.695364238410596,0.6395112342038982
3.7152317880794703,0.6479213608728629
3.7350993377483444,0.6557564699429042
3.754966887417219,0.6630065113067841
3.774834437086093,0.669662274139289
3.794701986754967,0.6757153718209182
3.814569536423841,0.681158229563058
3.834437086092715,0.6859840742778183
3.854304635761589,0.6901869263154988
3.8741721854304636,0.6937615927588817
3.8940397350993377,0.6967036620195028
3.9139072847682117,0.6990094995283361
3.9337748344370858,0.7006762443540744
3.9536423841059607,0.7017018066176297
3.9735099337748347,0.7020848656029347
3.993377483443709,0.7018248684924344
4.013245033112583,0.7009220296821305
4.033112582781457,0.6993773306558285
4.052980132450331,0.6971925204229702
4.072847682119205,0.6943701165486804
4.0927152317880795,0.6909134068305338
4.112582781456953,0.6868264517035333
4.132450331125828,0.682114087484686
4.152317880794702,0.6767819306017725
4.172185430463576,0.6708363829888034
4.19205298013245,0.6642846388746879
4.211920529801325,0.6571346932431097
4.231788079470199,0.6493953523026472
4.251655629139073,0.6410762463796874
4.271523178807947,0.6321878457349627
4.291390728476821,0.6227414799121541
4.311258278145695,0.612749361358678
4.33112582781457,0.6022246142207074
4.3509933774834435,0.5911813094147645
4.370860927152318,0.5796345073271797
4.390728476821192,0.5676003098036347
4.410596026490066,0.5550959234806782
4.43046357615894,0.5421397370020086
4.450331125827815,0.5287514152827645
4.470198675496689,0.5149520147721054
4.490066225165563,0.500764124665697
4.509933774834438,0.48621204029713144
4.529801324503311,0.4713219765693672
4.549668874172186,0.4561223313732685
4.569536423841059,0.4406440116038875
4.589403973509934,0.4249208377736709
4.6092715231788075,0.4089900475022872
4.629139072847682,0.39289292350349597
4.649006622516556,0.37667557821263714
4.66887417218543,0.360389934884102
4.688741721854305,0.3440949534699641
4.708609271523179,0.3278581577717952
4.728476821192054,0.311757525691635
4.748344370860927,0.2958838016393893
4.768211920529802,0.2803432692266641
4.788079470198675,0.2652609653161616
4.80794701986755,0.25078419364115256
4.827814569536423,0.2370859641098844
4.847682119205298,0.2243675919557359
4.867549668874172,0.21285911252721124
4.887417218543046,0.20281548044019465
4.9072847682119205,0.19450604750530512
4.927152317880794,0.18819523689974094
4.947019867549669,0.18411452366988038
4.966887417218543,0.18243001657939667
4.986754966887418,0.18321444031147127
5.006622516556291,0.18643358393639228
5.026490066225166,0.1919527715022046
5.04635761589404,0.199560649790864
5.066225165562914,0.20900119491224986
5.086092715231788,0.2200040995693077
5.105960264900662,0.23230747349491124
5.125827814569536,0.24567141157374042
5.14569536423841,0.2598839546477907
5.1655629139072845,0.27476194501860735
5.185430463576159,0.29014903390300123
5.205298013245033,0.30591243364855725
5.225165562913908,0.32193937101386216
5.245033112582782,0.3381337376700493
5.264900662251656,0.35441314919855454
5.28476821192053,0.37070646678738844
5.304635761589404,0.3869517588826357
5.324503311258278,0.403094648537029
5.344370860927152,0.41908698429837427
5.364238410596027,0.4348857756609262
5.3841059602649,0.4504523416478048
5.403973509933775,0.4657516296484881
5.4238410596026485,0.48075166968260785
5.443708609271523,0.49542313622464246
5.463576158940397,0.5097389954876058
5.483443708609272,0.5236742207133892
5.503311258278146,0.5372055617123097
5.52317880794702,0.5503113578043857
5.543046357615895,0.5629713855965902
5.562913907284768,0.5751667348154179
5.582781456953643,0.5868797068110695
5.602649006622516,0.5980937314435664
5.622516556291391,0.6087932989205668
5.642384105960264,0.6189639038326641
5.662251655629139,0.6285919991667394
5.682119205298013,0.637664958501409
5.701986754966887,0.6461710449259945
5.7218543046357615,0.6540993854942176
5.741721854304636,0.661439950240277
5.7615894039735105,0.6681835349597276
5.781456953642384,0.6743217470991756
5.801324503311259,0.6798469942143442
5.821192052980132,0.6847524745505312
5.841059602649007,0.6890321693776148
5.860927152317881,0.6926808367765851
5.880794701986755,0.6956940066288115
5.900662251655629,0.6980679766052402
5.920529801324503,0.6997998089918911
5.940397350993377,0.7008873282222597
5.960264900662251,0.7013291190170123
5.980132450331126,0.7011245250586412
6.0,0.7002736481534251
6.0198675496688745,0.6987773478566095
6.039735099337749,0.6966372415595588
6.059602649006623,0.6938557050604072
6.079470198675497,0.6904358736633953
6.099337748344371,0.6863816438771163
6.119205298013245,0.6816976758090847
6.139072847682119,0.6763893963846296
6.158940397350993,0.6704630035525911
6.178807947019867,0.6639254716805387
6.198675496688741,0.6567845583892072
6.218543046357616,0.6490488131318515
6.23841059602649,0.6407275878911786
6.258278145695365,0.6318310504479094
6.2781456953642385,0.6223702007737673
6.298013245033113,0.6123568912233597
6.317880794701987,0.601803851349245
6.337748344370861,0.5907247183507667
6.357615894039735,0.5791340743997193
6.377483443708609,0.567047492377517
6.397350993377484,0.5544815919265018
6.417218543046357,0.5414541081839817
6.437086092715232,0.5279839761611324
6.456953642384105,0.5140914344875558
6.47682119205298,0.49979815321682436
6.496688741721854,0.48512739164453994
6.516556291390729,0.4701041937152339
6.5364238410596025,0.4547556307018182
6.556291390728477,0.43911110357805094
6.5761589403973515,0.42320272105963863
6.596026490066225,0.4070657738964073
6.6158940397351,0.390739331935119
6.635761589403973,0.3742669980406721
6.655629139072848,0.35769786242805346
6.675496688741721,0.34108771239953223
6.695364238410596,0.32450056548465533
6.715231788079469,0.30801060698060395
6.735099337748344,0.2917046219225967
6.754966887417219,0.2756850078907765
6.774834437086093,0.2600734213872771
6.794701986754967,0.24501501458002606
6.814569536423841,0.23068300667603886
6.8344370860927155,0.2172829258990709
6.854304635761589,0.2050551698579505
6.874172185430464,0.19427355645600927
6.894039735099337,0.1852365380494486
6.913907284768212,0.1782475464903351
6.933774834437086,0.17358294654943013
6.95364238410596,0.17145138679510988
6.973509933774834,0.17195548563310178
6.993377483443709,0.1750705068989893
7.013245033112583,0.18064964829315458
7.033112582781457,0.18845346715501335
7.052980132450331,0.1981907648235373
7.072847682119205,0.20955686384249264
7.0927152317880795,0.222261016342879
7.112582781456954,0.23604156033582085
7.132450331125828,0.2506714715701416
7.152317880794702,0.26595794024101715
7.172185430463576,0.2817389529740643
7.19205298013245,0.29787880984103116
7.211920529801324,0.31426362952688797
7.231788079470198,0.3307973221876881
7.251655629139073,0.34739818642059844
7.271523178807947,0.36399612673708615
7.291390728476822,0.38053042078006183
7.311258278145695,0.39694794614350193
7.33112582781457,0.41320177932245616
7.3509933774834435,0.42925009056743874
7.370860927152318,0.44505527171962694
7.390728476821192,0.46058324661419464
7.410596026490066,0.4758029243405026
7.430463576158941,0.4906857643656561
7.450331125827814,0.5052054294393902
7.470198675496689,0.5193375075934983
7.490066225165562,0.5330592887243705
7.509933774834438,0.5463495844654431
7.52980132450331,0.5591885825334981
7.549668874172186,0.5715577286404595
7.569536423841059,0.5834396305351592
7.589403973509934,0.5948179798789698
7.6092715231788075,0.6056774885446254
7.629139072847682,0.6160038366180279
7.649006622516557,0.6257836299234724
7.66887417218543,0.6350043653183041
7.6887417218543055,0.6436544023392435
7.708609271523178,0.6517229400497883
7.728476821192054,0.65919999815129
7.748344370860927,0.6660764015913694
7.768211920529802,0.6723437680412232
7.788079470198675,0.6779944977252904
7.80794701986755,0.6830217651779469
7.827814569536423,0.6874195125767787
7.847682119205298,0.6911824443639157
7.8675496688741715,0.6943060229184631
7.887417218543046,0.6967864650865642
7.907284768211921,0.6986207394123751
7.927152317880795,0.6998065639452817
7.9470198675496695,0.70034240452632
7.966887417218543,0.7002274734818591
7.986754966887418,0.6994617286751275
8.006622516556291,0.6980458728875935
8.026490066225167,0.6959813535225627
8.046357615894038,0.6932703626438184
8.066225165562914,0.689915837382795
8.086092715231787,0.6859214607699281
8.105960264900663,0.6812916630694485
8.125827814569536,0.6760316237233966
8.14569536423841,0.6701472740406927
8.165562913907285,0.6636453008016675
8.185430463576159,0.6565331509892455
8.205298013245034,0.6488190379063873
8.225165562913906,0.6405119489974191
8.245033112582782,0.6316216557614717
8.264900662251655,0.6221587262324235
8.28476821192053,0.612134540605774
8.304635761589404,0.601561310724525
8.324503311258278,0.5904521043001688
8.344370860927151,0.5788208749505975
8.364238410596027,0.5666824993968388
8.3841059602649,0.5540528234898423
8.403973509933774,0.5409487191598626
8.42384105960265,0.5273881549207483
8.443708609271523,0.513390283259217
8.463576158940398,0.4989755491438004
8.483443708609272,0.48416582506952793
8.503311258278146,0.468984579603338
8.52317880794702,0.45345708843736204
8.543046357615895,0.4376106996607078
8.562913907284768,0.42147516855271927
8.582781456953642,0.4050830819852196
8.602649006622515,0.38847039889895435
8.62251655629139,0.3716771418027194
8.642384105960264,0.35474828545935555
8.66225165562914,0.3377349035624367
8.682119205298013,0.3206956528616983
8.701986754966887,0.30369869692438967
8.721854304635762,0.28682419705211404
8.741721854304636,0.27016752065081
8.76158940397351,0.25384332435040496
8.781456953642383,0.2379906308112484
8.801324503311259,0.22277887444379957
8.821192052980132,0.20841453271286092
8.841059602649008,0.195147216046032
8.86092715231788,0.18327277432599215
8.880794701986755,0.1731291052623998
8.90066225165563,0.16507866799054483
8.920529801324504,0.1594723862194977
8.940397350993377,0.1565958459300455
8.960264900662251,0.1566109425053802
8.980132450331126,0.15951678957460597
9.0,0.165149943302735
9.019867549668875,0.1732238187598306
9.039735099337747,0.18338710702007072
9.059602649006623,0.19527743677580953
9.079470198675496,0.20855726573990532
9.099337748344372,0.22293119686445764
9.119205298013245,0.2381500653191244
9.139072847682119,0.2540077823664596
9.158940397350994,0.2703352300705905
9.178807947019868,0.28699363194965133
9.198675496688743,0.3038685161754094
9.218543046357615,0.3208646492929344
9.23841059602649,0.33790196288011426
9.258278145695364,0.35491235340874083
9.27814569536424,0.371837197920007
9.298013245033111,0.38862543540384403
9.317880794701987,0.40523208662481597
9.33774834437086,0.42161711046021105
9.357615894039736,0.43774451750646093
9.37748344370861,0.4535816803209975
9.397350993377483,0.46909879426722134
9.417218543046358,0.4842684541140845
9.437086092715232,0.4990653200004379
9.456953642384107,0.5134658527324278
9.47682119205298,0.5274481031531734
9.496688741721854,0.5409915439049874
9.516556291390728,0.5540769346002539
9.536423841059603,0.5666862134530124
9.556291390728477,0.5788024099678948
9.57615894039735,0.5904095744608107
9.596026490066224,0.6014927210879544
9.6158940397351,0.6120377817551814
9.635761589403973,0.6220315688183258
9.655629139072847,0.6314617449044702
9.675496688741722,0.6403167985130844
9.695364238410596,0.6485860243145266
9.715231788079471,0.6562595072685736
9.735099337748345,0.6633281098488981
9.754966887417218,0.6697834617901902
9.774834437086092,0.6756179518799381
9.794701986754967,0.6808247214024795
9.814569536423841,0.6853976589123442
9.834437086092716,0.6893313960714702
9.854304635761588,0.692621304331977
9.874172185430464,0.6952634922860439
9.894039735099337,0.6972548035378064
9.913907284768213,0.6985928149807178
9.933774834437086,0.6992758353887104
9.95364238410596,0.6993029042516108
9.973509933774835,0.6986737908045283
9.993377483443709,0.6973889932200369
10.013245033112582,0.6954497379486079
10.033112582781456,0.692857979210379
10.052980132450331,0.6896163986582782
10.072847682119205,0.6857284052507393
10.09271523178808,0.6811981353912683
10.112582781456952,0.6760304534138095
10.132450331125828,0.67023095251642
10.152317880794701,0.6638059562738455
10.172185430463577,0.6567625208916442
10.192052980132452,0.6491084384031587
10.211920529801324,0.640852241056752
10.2317880794702,0.6320032071968619
10.251655629139073,0.6225713690110914
10.271523178807948,0.6125675226006082
10.29139072847682,0.6020032409364201
10.311258278145695,0.5908908903967238
10.331125827814569,0.5792436517469393
10.350993377483444,0.567075546636014
10.370860927152318,0.5544014709528086
10.390728476821192,0.5412372367343545
10.410596026490065,0.5275996247675147
10.43046357615894,0.5135064506124315
10.450331125827816,0.4989766475452861
10.470198675496688,0.4840303709345208
10.490066225165563,0.46868912991683354
10.509933774834437,0.45297595405103974
10.529801324503312,0.4369156050724453
10.549668874172186,0.4205348471914738
10.56953642384106,0.40386279392251395
10.589403973509933,0.38693135567810993
