Frequency (Hz),Amplitude
0.0,1.6592170516865252
0.019867549668874173,1.6603741419185842
0.039735099337748346,1.663836048914889
0.059602649006622516,1.6695748932287762
0.07947019867549669,1.6775449028535585
0.09933774834437085,1.6876834138204286
0.11920529801324503,1.69991219512186
0.13907284768211922,1.7141390309761393
0.15894039735099338,1.7302594855451803
0.17880794701986755,1.7481587734328383
0.1986754966887417,1.7677136630199013
0.2185430463576159,1.7887943477962556
0.23841059602649006,1.811266231907596
0.2582781456953642,1.8349915886782446
0.27814569536423844,1.8598310635942525
0.2980132450331126,1.885645005100887
0.31788079470198677,1.912294616886354
0.33774834437086093,1.939642933712094
0.3576158940397351,1.96755562920313
0.3774834437086093,1.9959016684289836
0.3973509933774834,2.0245538208144573
0.4172185430463576,2.05338905021916
0.4370860927152318,2.0822887992274213
0.45695364238410596,2.1111391840964613
0.4768211920529801,2.1398311156808827
0.49668874172185434,2.168260360200946
0.5165562913907285,2.1963275521186794
0.5364238410596026,2.2239381697528406
0.5562913907284769,2.2510024826872375
0.5761589403973509,2.277435478560744
0.5960264900662252,2.303156775504133
0.6158940397350993,2.3280905253201256
0.6357615894039735,2.352165311492342
0.6556291390728477,2.37531404524733
0.6754966887417219,2.3974738621712786
0.695364238410596,2.4185860212846944
0.7152317880794702,2.4385958079893713
0.7350993377483444,2.4574524419071113
0.7549668874172186,2.475108990315549
0.7748344370860927,2.4915222876403114
0.7947019867549668,2.506652861272006
0.8145695364238411,2.5204648638337472
0.8344370860927152,2.5329260119192316
0.8543046357615894,2.5440075312470514
0.8741721854304636,2.5536841081273978
0.8940397350993378,2.5619338471083104
0.9139072847682119,2.568738234654461
0.9337748344370861,2.5740821087106966
0.9536423841059603,2.5779536340113487
0.9735099337748344,2.5803442830120686
0.9933774834437087,2.581248822342713
1.0132450331125828,2.5806653047060393
1.033112582781457,2.5785950661745822
1.0529801324503312,2.575042728869251
1.0728476821192052,2.5700162090330183
1.0927152317880795,2.563526730543806
1.1125827814569538,2.5555888439394234
1.1324503311258278,2.5462204510533573
1.1523178807947019,2.5354428353825784
1.1721854304635762,2.523280698325757
1.1920529801324504,2.509762201439332
1.2119205298013245,2.494919014859563
1.2317880794701985,2.4787863720268213
1.2516556291390728,2.4614031308208033
1.271523178807947,2.4428118411690467
1.2913907284768211,2.4230588191196705
1.3112582781456954,2.4021942272683616
1.3311258278145695,2.3802721612912974
1.3509933774834437,2.3573507421516187
1.370860927152318,2.3334922133082903
1.390728476821192,2.308763041950872
1.410596026490066,2.283234022899848
1.4304635761589404,2.2569803833352395
1.4503311258278146,2.2300818859323024
1.4701986754966887,2.2026229272766202
1.4900662251655628,2.17469262758725
1.5099337748344372,2.1463849067844194
1.5298013245033113,2.117798540789693
1.5496688741721854,2.089037190641252
1.5695364238410596,2.060209395557353
1.5894039735099337,2.031428519515399
1.609271523178808,2.0028126392832744
1.6291390728476822,1.9744843602259394
1.6490066225165563,1.946570544731055
1.6688741721854303,1.9192019369147262
1.6887417218543048,1.8925126665914098
1.7086092715231789,1.8666396155755947
1.728476821192053,1.8417216305224013
1.7483443708609272,1.8178985690221068
1.7682119205298013,1.7953101698429959
1.7880794701986755,1.7740947443074515
1.8079470198675496,1.7543876939078404
1.8278145695364238,1.7363198693459134
1.847682119205298,1.7200157978751116
1.8675496688741722,1.7055918184820762
1.8874172185430464,1.693154177076921
1.9072847682119205,1.6827971451922124
1.9271523178807946,1.6746012342684038
1.9470198675496688,1.6686315819871789
1.9668874172185429,1.664936586116075
1.9867549668874174,1.6635468542605358
2.0066225165562916,1.6644745248012291
2.0264900662251657,1.6677129959482508
2.0463576158940397,1.6732370778526422
2.066225165562914,1.6810035592180192
2.086092715231788,1.6909521572286441
2.1059602649006623,1.703006800093292
2.1258278145695364,1.7170771768542423
2.1456953642384105,1.7330604803669791
2.165562913907285,1.7508432667493388
2.185430463576159,1.7703033576157545
2.205298013245033,1.7913117189767005
2.2251655629139075,1.8137342613991907
2.2450331125827816,1.8374335184236115
2.2649006622516556,1.8622701729771904
2.2847682119205297,1.8881044135444298
2.3046357615894038,1.914797112404414
2.324503311258278,1.9422108269049732
2.3443708609271523,1.970210631374685
2.364238410596027,1.998664791948417
2.384105960264901,2.0274452995161294
2.403973509933775,2.056428277486261
2.423841059602649,2.085494281398973
2.443708609271523,2.1145285069320536
2.463576158940397,2.143420921779075
2.4834437086092715,2.1720663354692817
2.5033112582781456,2.200364419612535
2.52317880794702,2.228219689422755
2.543046357615894,2.2555414557877183
2.562913907284768,2.282243755672343
2.5827814569536423,2.3082452672996094
2.6026490066225163,2.333469215364134
2.622516556291391,2.3578432705017374
2.642384105960265,2.381299446356798
2.662251655629139,2.4037739968482374
2.6821192052980134,2.4252073156201432
2.7019867549668874,2.4455438391592748
2.7218543046357615,2.464731954654327
2.741721854304636,2.4827239133470687
2.76158940397351,2.49947574986954
2.781456953642384,2.5149472078639032
2.801324503311258,2.5291016720319
2.821192052980132,2.541906106649916
2.8410596026490067,2.5533310005072827
2.8609271523178808,2.5633503181724726
2.8807947019867552,2.571941457459589
2.9006622516556293,2.5790852129517137
2.9205298013245033,2.584765745434989
2.9403973509933774,2.588970557104256
2.9602649006622515,2.591690472416379
2.9801324503311255,2.592919624488152
3.0,2.592655446960675
3.0198675496688745,2.590898671280461
3.0397350993377485,2.5876533293771335
3.0596026490066226,2.5829267617482317
3.0794701986754967,2.5767296309918324
3.0993377483443707,2.5690759408564765
3.119205298013245,2.559983060904491
3.1390728476821192,2.549471756907095
3.1589403973509933,2.537566227107316
3.1788079470198674,2.524294144496982
3.198675496688742,2.509686705255195
3.218543046357616,2.4937786834849054
3.23841059602649,2.4766084923587686
3.2582781456953644,2.4582182517400906
3.2781456953642385,2.438653862276679
3.2980132450331126,2.417965085866756
3.3178807947019866,2.3962056322618417
3.3377483443708607,2.3734332513921492
3.3576158940397347,2.349709830766853
3.3774834437086096,2.325101497003322
3.3973509933774837,2.2996787201636337
3.4172185430463577,2.2735164191100923
3.437086092715232,2.2466940655187693
3.456953642384106,2.219295783496914
3.47682119205298,2.1914104409219295
3.4966887417218544,2.163131727643245
3.5165562913907285,2.134558214557737
3.5364238410596025,2.105793386281227
3.556291390728477,2.076945638705234
3.576158940397351,2.048128231174945
3.596026490066225,2.019459181400202
3.615894039735099,1.9910610895939977
3.6357615894039736,1.9630608768354825
3.6556291390728477,1.9355894214336848
3.6754966887417218,1.9087810763263153
3.695364238410596,1.8827730505353402
3.7152317880794703,1.8577046387065745
3.7350993377483444,1.8337162850954885
3.754966887417219,1.8109484723303209
3.774834437086093,1.7895404311340128
3.794701986754967,1.7696286750557857
3.814569536423841,1.7513453741013962
3.834437086092715,1.7348165926556862
3.854304635761589,1.7201604296485202
3.8741721854304636,1.707485111581664
3.8940397350993377,1.6968871005692903
3.9139072847682117,1.6884492885173772
3.9337748344370858,1.6822393535314366
3.9536423841059607,1.6783083543719826
3.9735099337748347,1.6766896325136162
3.993377483443709,1.6773980790295326
4.013245033112583,1.680429805833783
4.033112582781457,1.6857622392527876
4.052980132450331,1.6933546305371923
4.072847682119205,1.7031489551171464
4.0927152317880795,1.7150711524136772
4.112582781456953,1.729032642673831
4.132450331125828,1.744932047736021
4.152317880794702,1.7626570391937235
4.172185430463576,1.7820862396936288
4.19205298013245,1.8030911100745868
4.211920529801325,1.825537765367488
4.231788079470199,1.8492886748720754
4.251655629139073,1.8742042142467683
4.271523178807947,1.900144049683596
4.291390728476821,1.9269683450031587
4.311258278145695,1.954538791431538
4.33112582781457,1.9827194667356849
4.3509933774834435,2.0113775353410497
4.370860927152318,2.040383804231462
4.390728476821192,2.06961315111603
4.410596026490066,2.098944841851314
4.43046357615894,2.128262753733135
4.450331125827815,2.157455520291456
4.470198675496689,2.186416611861833
4.490066225165563,2.2150443646484343
4.509933774834438,2.243241969371314
4.529801324503311,2.2709174290008014
4.549668874172186,2.297983493587374
4.569536423841059,2.3243575788338524
4.589403973509934,2.349961673846363
4.6092715231788075,2.3747222424464156
4.629139072847682,2.3985701215233584
4.649006622516556,2.4214404191454877
4.66887417218543,2.443272414513976
4.688741721854305,2.4640094613242463
4.708609271523179,2.4835988956769115
4.728476821192054,2.501991949343324
4.748344370860927,2.5191436689240754
4.768211920529802,2.535012841232369
4.788079470198675,2.5495619250763304
4.80794701986755,2.5627569894979367
4.827814569536423,2.574567658441951
4.847682119205298,2.584967061771527
4.867549668874172,2.59393179251118
4.887417218543046,2.601441870179354
4.9072847682119205,2.607480710067799
4.927152317880794,2.612035098330319
4.947019867549669,2.615095172757267
4.966887417218543,2.616654409131632
4.986754966887418,2.6167096130873655
5.006622516556291,2.6152609174174746
5.026490066225166,2.6123117848093322
5.04635761589404,2.6078690160144298
5.066225165562914,2.6019427634900443
5.086092715231788,2.5945465505790195
5.105960264900662,2.585697296320151
5.125827814569536,2.575415346004376
5.14569536423841,2.5637245076095376
5.1655629139072845,2.5506520942572495
5.185430463576159,2.536228972836649
5.205298013245033,2.5204896189300183
5.225165562913908,2.5034721781502354
5.245033112582782,2.4852185339560573
5.264900662251656,2.465774381944307
5.28476821192053,2.445189310521573
5.304635761589404,2.423516887725705
5.324503311258278,2.4008147537914026
5.344370860927152,2.377144718824463
5.364238410596027,2.352572864655832
5.3841059602649,2.327169649576749
5.403973509933775,2.301010014196459
5.4238410596026485,2.27417348610016
5.443708609271523,2.246744280301725
5.463576158940397,2.218811391669007
5.483443708609272,2.1904686745371866
5.503311258278146,2.161814903608875
5.52317880794702,2.132953808967238
5.543046357615895,2.1039940766104506
5.562913907284768,2.075049304375411
5.582781456953643,2.0462379015048855
5.602649006622516,2.017682918496818
5.622516556291391,1.9895117923696066
5.642384105960264,1.961855991232423
5.662251655629139,1.9348505412628012
5.682119205298013,1.9086334191096619
5.701986754966887,1.883344793640708
5.7218543046357615,1.859126103148173
5.741721854304636,1.8361189579183361
5.7615894039735105,1.814463863712159
5.781456953642384,1.7942987693448091
5.801324503311259,1.7757574511625325
5.821192052980132,1.7589677585229961
5.841059602649007,1.7440497568154303
5.860927152317881,1.7311138172057612
5.880794701986755,1.7202587139595085
5.900662251655629,1.7115697994753751
5.920529801324503,1.7051173326154216
5.940397350993377,1.7009550362918664
5.960264900662251,1.6991189547515624
5.980132450331126,1.6996266694227122
6.0,1.702476915170689
6.0198675496688745,1.707649617733669
6.039735099337749,1.7151063499702066
6.059602649006623,1.7247911816615142
6.079470198675497,1.7366318772465263
6.099337748344371,1.750541379908774
6.119205298013245,1.7664195101081541
6.139072847682119,1.7841548023988036
6.158940397350993,1.8036264058810716
6.178807947019867,1.82470597997323
6.198675496688741,1.8472595270478833
6.218543046357616,1.8711491154139297
6.23841059602649,1.8962344587669162
6.258278145695365,1.9223743304408136
6.2781456953642385,1.949427801741195
6.298013245033113,1.9772553028183157
6.317880794701987,2.005719511733283
6.337748344370861,2.0346860825963535
6.357615894039735,2.064024227086983
6.377483443708609,2.0936071655685367
6.397350993377484,2.123312464690629
6.417218543046357,2.1530222781329824
6.437086092715232,2.1826235062595907
6.456953642384105,2.2120078891553194
6.47682119205298,2.2410720459948252
6.496688741721854,2.269717472086181
6.516556291390729,2.2978505033426138
6.5364238410596025,2.3253822564299025
6.556291390728477,2.3522285514590924
6.5761589403973515,2.378309822861622
6.596026490066225,2.4035510230086077
6.6158940397351,2.4278815222088523
6.635761589403973,2.451235007938239
6.655629139072848,2.473549385498691
6.675496688741721,2.4947666817667504
6.695364238410596,2.514832953253594
6.715231788079469,2.5336981993468224
6.735099337748344,2.5513162813255272
6.754966887417219,2.5676448475233036
6.774834437086093,2.5826452648473808
6.794701986754967,2.596282556738275
6.814569536423841,2.608525347563885
6.8344370860927155,2.6193458133804968
6.854304635761589,2.628719638952658
6.874172185430464,2.6366259809029398
6.894039735099337,2.6430474368534873
6.913907284768212,2.647970020426315
6.933774834437086,2.6513831419794736
6.95364238410596,2.653279594976063
6.973509933774834,2.65365554790535
6.993377483443709,2.652510541702559
7.013245033112583,2.6498474926419227
7.033112582781457,2.6456727007080953
7.052980132450331,2.6399958634797582
7.072847682119205,2.6328300955885817
7.0927152317880795,2.6241919538418776
7.112582781456954,2.614101468120713
7.132450331125828,2.60258217818166
7.152317880794702,2.5896611765019073
7.172185430463576,2.5753691573080015
7.19205298013245,2.5597404719189236
7.211920529801324,2.5428131905090834
7.231788079470198,2.524629170353183
7.251655629139073,2.5052341305480472
7.271523178807947,2.4846777331105767
7.291390728476822,2.4630136702194685
7.311258278145695,2.4402997571934013
7.33112582781457,2.4165980305700887
7.3509933774834435,2.391974850359733
7.370860927152318,2.3665010051789355
7.390728476821192,2.3402518185157484
7.410596026490066,2.3133072538173822
7.430463576158941,2.2857520154155657
7.450331125827814,2.2576756414953802
7.470198675496689,2.2291725843610473
7.490066225165562,2.2003422721456722
7.509933774834438,2.17128914485313
7.52980132450331,2.142122656214355
7.549668874172186,2.112957231314948
7.569536423841059,2.083912168347946
7.589403973509934,2.0551114712398943
7.6092715231788075,2.0266835983945906
7.629139072847682,1.9987611115460835
7.649006622516557,1.9714802079022702
7.66887417218543,1.9449801186308027
7.6887417218543055,1.9194023575698977
7.708609271523178,1.8948898061390502
7.728476821192054,1.8715856240796813
7.748344370860927,1.8496319811294095
7.768211920529802,1.8291686121791941
7.788079470198675,1.8103312078679465
7.80794701986755,1.7932496636853212
7.827814569536423,1.778046222935877
7.847682119205298,1.7648335615034334
7.8675496688741715,1.7537128740802388
7.887417218543046,1.7447720310166146
7.907284768211921,1.7380838807789811
7.927152317880795,1.7337047739138798
7.9470198675496695,1.731673379550172
7.966887417218543,1.732009854593627
7.986754966887418,1.7347154094073383
8.006622516556291,1.7397722932120174
8.026490066225167,1.747144199597027
8.046357615894038,1.7567770696653702
8.066225165562914,1.7686002497122204
8.086092715231787,1.7825279438694248
8.105960264900663,1.7984608911424134
8.125827814569536,1.8162881912521402
8.14569536423841,1.8358892044548536
8.165562913907285,1.857135456202889
8.185430463576159,1.8798924868749103
8.205298013245034,1.9040215984279758
8.225165562913906,1.9293814623331766
8.245033112582782,1.9558295653913493
8.264900662251655,1.983223481116142
8.28476821192053,2.0114219637757507
8.304635761589404,2.040285869644289
8.324503311258278,2.0696789155140025
8.344370860927151,2.0994682882097124
8.364238410596027,2.1295251209778048
8.3841059602649,2.1597248534925075
8.403973509933774,2.189947492130773
8.42384105960265,2.220077786392655
8.443708609271523,2.250005336121746
8.463576158940398,2.279624642704694
8.483443708609272,2.308835115844655
8.503311258278146,2.337541045920379
8.52317880794702,2.3656515504307483
8.543046357615895,2.3930805016316308
8.562913907284768,2.4197464412203935
8.582781456953642,2.4455724868246103
8.602649006622515,2.4704862341025455
8.62251655629139,2.4944196574575352
8.642384105960264,2.517309011693119
8.66225165562914,2.539094736377776
8.682119205298013,2.559721364232613
8.701986754966887,2.5791374344880444
8.721854304635762,2.5972954118635307
8.741721854304636,2.6141516115955308
8.76158940397351,2.6296661307632037
8.781456953642383,2.6438027860283104
8.801324503311259,2.6565290578093985
8.821192052980132,2.6678160408422533
8.841059602649008,2.6776384010339376
8.86092715231788,2.6859743384922807
8.880794701986755,2.6928055566016065
8.90066225165563,2.6981172370161235
8.920529801324504,2.701898020452488
8.940397350993377,2.7041399931798433
8.960264900662251,2.704838679127076
8.980132450331126,2.703993037553612
9.0,2.701605466256539
9.019867549668875,2.6976818103171922
9.039735099337747,2.692231376418132
9.059602649006623,2.685266952790278
9.079470198675496,2.67680483487484
9.099337748344372,2.6668648568070017
9.119205298013245,2.6554704288450166
9.139072847682119,2.6426485808783235
9.158940397350994,2.6284300121488857
9.178807947019868,2.612849147309445
9.198675496688743,2.5959441989162313
9.218543046357615,2.5777572364091497
9.23841059602649,2.5583342615646614
9.258278145695364,2.537725290309615
9.27814569536424,2.515984440651384
9.298013245033111,2.493170026303705
9.317880794701987,2.469344655358605
9.33774834437086,2.444575333062585
9.357615894039736,2.418933567387869
9.37748344370861,2.3924954756339214
9.397350993377483,2.3653418897359706
9.417218543046358,2.337558457283064
9.437086092715232,2.3092357344416907
9.456953642384107,2.2804692660334784
9.47682119205298,2.251359646915867
9.496688741721854,2.222012557563871
9.516556291390728,2.1925387653570017
9.536423841059603,2.1630540815614383
9.556291390728477,2.1336792624098297
9.57615894039735,2.1045398410887275
9.596026490066224,2.0757658759530497
9.6158940397351,2.0474915990418823
9.635761589403973,2.019854948158989
9.655629139072847,1.9929969656390796
9.675496688741722,1.9670610477181731
9.695364238410596,1.9421920304626745
9.715231788079471,1.9185351017805359
9.735099337748345,1.8962345343928504
9.754966887417218,1.8754322419423755
9.774834437086092,1.8562661696508849
9.794701986754967,1.838868541877169
9.814569536423841,1.8233640010539374
9.834437086092716,1.8098676849623136
9.854304635761588,1.7984833010105288
9.874172185430464,1.7893012657796505
9.894039735099337,1.7823969841802707
9.913907284768213,1.7778293438736554
9.933774834437086,1.7756394962696833
9.95364238410596,1.775849985140079
9.973509933774835,1.7784642681274136
9.993377483443709,1.783466656391598
10.013245033112582,1.7908226751440735
10.033112582781456,1.800479825076186
10.052980132450331,1.812368703931547
10.072847682119205,1.826404430632873
10.09271523178808,1.842488302805327
10.112582781456952,1.8605096128524634
10.132450331125828,1.8803475478074676
10.152317880794701,1.9018731032375247
10.172185430463577,1.9249509503335203
10.192052980132452,1.9494412065866509
10.211920529801324,1.9752010727787352
10.2317880794702,2.0020863112149643
10.251655629139073,2.029952551315268
10.271523178807948,2.0586564182683404
10.29139072847682,2.088056488150064
10.311258278145695,2.118014078667378
10.331125827814569,2.148393888631286
10.350993377483444,2.1790645016245773
10.370860927152318,2.209898770396594
10.390728476821192,2.240774098585356
10.410596026490065,2.2715726357133574
10.43046357615894,2.302181400268275
10.450331125827816,2.3324923442602272
10.470198675496688,2.362402371095705
10.490066225165563,2.3918133170377867
10.509933774834437,2.4206319050100737
10.529801324503312,2.4487696780973547
10.549668874172186,2.4761429188279562
10.56953642384106,2.502672559202656
10.589403973509933,2.5282840854637705
10.609271523178808,2.552907440770183
10.629139072847682,2.5764769282464286
10.649006622516556,2.5989311162963076
10.66887417218543,2.6202127475969177
10.688741721854305,2.640268652805339
10.70860927152318,2.6590496697036037
10.728476821192054,2.6765105682662824
10.748344370860927,2.692609981947967
