Frequency (Hz),Amplitude
0.0,1.2900258220552692
0.019801980198019802,1.2912574113513227
0.039603960396039604,1.2949402936198324
0.0594059405940594,1.30103916703275
0.07920792079207921,1.3094963526786747
0.09900990099009901,1.320233443304795
0.1188118811881188,1.3331534482622935
0.13861386138613863,1.3481432961366724
0.15841584158415842,1.3650765469597455
0.1782178217821782,1.3838161709543835
0.19801980198019803,1.4042172675618334
0.21782178217821782,1.426129623022961
0.2376237623762376,1.449400032808658
0.25742574257425743,1.4738743430357484
0.27722772277227725,1.4993991899475887
0.297029702970297,1.5258234369647607
0.31683168316831684,1.5529993240981534
0.33663366336633666,1.580783354797578
0.3564356435643564,1.609036951209579
0.37623762376237624,1.637626911197401
0.39603960396039606,1.6664257002502956
0.4158415841584158,1.695311609417581
0.43564356435643564,1.7241688073516341
0.45544554455445546,1.752887310977787
0.4752475247524752,1.7813628956218142
0.495049504950495,1.8094969618802992
0.5148514851485149,1.8371963732725256
0.5346534653465347,1.8643732758460478
0.5544554455445545,1.8909449084476997
0.5742574257425742,1.9168334103074236
0.594059405940594,1.9419656308861322
0.613861386138614,1.966272945567244
0.6336633663366337,1.9896910796825191
0.6534653465346534,2.0121599425106456
0.6732673267326733,2.0336234722323536
0.6930693069306931,2.054029492330475
0.7128712871287128,2.07332957955888
0.7326732673267327,2.091478943339957
0.7524752475247525,2.1084363162693744
0.7722772277227723,2.1241638552862465
0.7920792079207921,2.1386270529960694
0.8118811881188118,2.151794658598227
0.8316831683168316,2.1636386078637946
0.8514851485148516,2.1741339616212114
0.8712871287128713,2.183258852236592
0.891089108910891,2.1909944376136252
0.9108910891089109,2.1973248622848747
0.9306930693069307,2.202237225217454
0.9504950495049505,2.2057215540120905
0.9702970297029703,2.2077707852309683
0.99009900990099,2.2083807506496553
1.00990099009901,2.2075501692877695
1.0297029702970297,2.2052806451332883
1.0495049504950495,2.201576670536365
1.0693069306930694,2.1964456353087014
1.0891089108910892,2.18989784162583
1.108910891089109,2.18194652488924
1.1287128712871286,2.1726078807660545
1.1485148514851484,2.161901098682559
1.1683168316831685,2.1498484021057447
1.188118811881188,2.136475096002315
1.2079207920792079,2.1218096219161433
1.227722772277228,2.1058836211515444
1.2475247524752475,2.0887320065880814
1.2673267326732673,2.070393043679761
1.2871287128712872,2.050908441203325
1.3069306930693068,2.0303234523105895
1.3267326732673268,2.0086869864019565
1.3465346534653466,1.986051732261427
1.3663366336633662,1.9624742927678442
1.3861386138613863,1.9380153313053046
1.405940594059406,1.9127397297199566
1.4257425742574257,1.886716757290167
1.4455445544554455,1.8600202496600928
1.4653465346534653,1.8327287960053906
1.4851485148514851,1.8049259318144486
1.504950495049505,1.7767003335369003
1.5247524752475248,1.7481460099294681
1.5445544554455446,1.7193624831720211
1.5643564356435644,1.6904549506926014
1.5841584158415842,1.661534416100776
1.6039603960396038,1.6327177746786479
1.6237623762376237,1.6041278355475557
1.6435643564356437,1.5758932590088104
1.6633663366336633,1.5481483838163324
1.683168316831683,1.521032915562475
1.7029702970297032,1.494691444360244
1.7227722772277227,1.46927275816232
1.7425742574257426,1.4449289181044787
1.7623762376237624,1.421814065067249
1.782178217821782,1.4000829331466216
1.801980198019802,1.379889056768879
1.8217821782178218,1.3613826743618487
1.8415841584158414,1.344708352855879
1.8613861386138615,1.3300023830767904
1.881188118811881,1.317390024515286
1.900990099009901,1.3069827061035568
1.920792079207921,1.298875313644073
1.9405940594059405,1.2931437101029535
1.9603960396039604,1.2898426381174597
1.98019801980198,1.2890041420727374
2.0,1.290636619437913
2.01980198019802,1.2947245698361474
2.0396039603960396,1.3012290602275582
2.0594059405940595,1.3100888720559107
2.0792079207920793,1.3212222481936642
2.099009900990099,1.3345291200391645
2.118811881188119,1.3498936721214976
2.1386138613861387,1.3671870943432456
2.1584158415841586,1.3862703792652173
2.1782178217821784,1.4069970404189462
2.1980198019801978,1.4292156533408191
2.217821782178218,1.4527721496106896
2.237623762376238,1.4775118220459573
2.257425742574257,1.503281023774028
2.2772277227722775,1.5299285637221711
2.297029702970297,1.5573068156408008
2.3168316831683167,1.5852725673577142
2.336633663366337,1.613687642238791
2.3564356435643563,1.6424193267030374
2.376237623762376,1.6713406370286865
2.3960396039603964,1.7003304564265396
2.4158415841584158,1.7292735701332445
2.4356435643564356,1.758060622617045
2.455445544554456,1.7865880172644657
2.4752475247524752,1.814757775372683
2.495049504950495,1.8424773680538244
2.514851485148515,1.8696595318323959
2.5346534653465347,1.8962220763044575
2.5544554455445545,1.9220876902129427
2.5742574257425743,1.9471837506430747
2.594059405940594,1.9714421387144416
2.6138613861386135,1.9947990640943718
2.633663366336634,2.0171948998383984
2.6534653465346536,2.038574028435781
2.673267326732673,2.0588846994670087
2.6930693069306932,2.0780788989330192
2.712871287128713,2.0961122300687687
2.7326732673267324,2.112943805283861
2.7524752475247527,2.1285361487630783
2.7722772277227725,2.1428551091961756
2.792079207920792,2.155869782077838
2.811881188118812,2.1675524410162232
2.8316831683168315,2.177878477505349
2.8514851485148514,2.1868263486480695
2.8712871287128716,2.1943775323571364
2.891089108910891,2.2005164896104494
2.910891089108911,2.2052306333894878
2.9306930693069306,2.2085103039866127
2.9504950495049505,2.2103487504251706
2.9702970297029703,2.2107421177963698
2.99009900990099,2.2096894403775478
3.00990099009901,2.2071926404576003
3.0297029702970297,2.2032565328567637
3.0495049504950495,2.1978888351897274
3.0693069306930694,2.1911001839824347
3.089108910891089,2.1829041568146903
3.108910891089109,2.1733173007218856
3.128712871287129,2.1623591671491993
3.148514851485148,2.150052353811362
3.1683168316831685,2.136422553867228
3.1881188118811883,2.1214986128721582
3.2079207920792077,2.10531259401882
3.227722772277228,2.0878998522170122
3.2475247524752473,2.0692991175918265
3.267326732673267,2.0495525889921997
3.2871287128712874,2.0287060380930253
3.3069306930693068,2.0068089246356067
3.3267326732673266,1.9839145232736437
3.346534653465347,1.9600800623627244
3.366336633663366,1.9353668748342434
3.386138613861386,1.9098405610112332
3.4059405940594063,1.8835711628290268
3.4257425742574257,1.8566333483898456
3.4455445544554455,1.8291066050728984
3.4653465346534653,1.8010754385014207
3.485148514851485,1.7726295734908855
3.504950495049505,1.743864151621394
3.5247524752475248,1.7148799182440133
3.5445544554455446,1.6857833895034067
3.564356435643564,1.656686987306522
3.5841584158415842,1.6277091270844557
3.603960396039604,1.598974239715667
3.6237623762376234,1.57061270520042
3.6435643564356437,1.5427606717827016
3.6633663366336635,1.5155597305076625
3.683168316831683,1.4891564121274796
3.702970297029703,1.4637014714396155
3.722772277227723,1.4393489243421722
3.7425742574257423,1.4162548060429772
3.762376237623762,1.3945756259408693
3.7821782178217824,1.3744665065983401
3.801980198019802,1.3560790115236476
3.8217821782178216,1.3395586891711244
3.841584158415842,1.3250423877619173
3.8613861386138613,1.312655425225144
3.881188118811881,1.3025087275855343
3.9009900990099013,1.2946960733427646
3.9207920792079207,1.2892915962561198
3.9405940594059405,1.2863477003858046
3.96039603960396,1.2858935266464793
3.98019801980198,1.287934079276904
4.0,1.2924500761327906
4.01980198019802,1.2993985338021745
4.03960396039604,1.3087140441673302
4.0594059405940595,1.3203106504387017
4.079207920792079,1.3340841939239925
4.099009900990099,1.349914981588824
4.118811881188119,1.3676706196990935
4.138613861386139,1.387208868763636
4.158415841584159,1.4083803960080772
4.178217821782178,1.4310313292309012
4.198019801980198,1.4550055457410815
4.217821782178218,1.4801466585524221
4.237623762376238,1.5062996866427487
4.257425742574258,1.5333124155655669
4.2772277227722775,1.5610364687050444
4.297029702970297,1.5893281183718027
4.316831683168317,1.6180488705422853
4.336633663366336,1.6470658583113
4.356435643564357,1.6762520780124603
4.376237623762377,1.7054864993079264
4.3960396039603955,1.7346540770387087
4.415841584158416,1.7636456887711307
4.435643564356436,1.7923580181296528
4.455445544554455,1.8206934003979085
4.475247524752476,1.8485596436268745
4.4950495049504955,1.875869835667677
4.514851485148514,1.902542145155177
4.534653465346535,1.9284996224846667
4.554455445544555,1.9536700052099485
4.574257425742574,1.9779855309991308
4.594059405940594,2.0013827602683425
4.613861386138614,2.0238024098264566
4.633663366336633,2.045189198265686
4.653465346534653,2.065491703386333
4.673267326732674,2.084662231619624
4.693069306930693,2.102656699183155
4.712871287128713,2.119434524549674
4.732673267326733,2.1349585317128374
4.752475247524752,2.1491948636810805
4.772277227722772,2.1621129056109476
4.792079207920793,2.1736852169962546
4.811881188118812,2.183887472352327
4.8316831683168315,2.192698409870833
4.851485148514852,2.2000997875657147
4.871287128712871,2.206076346482762
4.891089108910891,2.210615780601096
4.910891089108912,2.213708713113982
4.930693069306931,2.215348678836882
4.9504950495049505,2.215532112552759
4.97029702970297,2.2142583431668754
4.99009900990099,2.2115295936067576
5.00990099009901,2.2073509864656793
5.02970297029703,2.2017305554522264
5.0495049504950495,2.194679262771437
5.069306930693069,2.1862110226273637
5.089108910891089,2.1763427310997554
5.108910891089109,2.1650943027113274
5.128712871287129,2.152488714063147
5.148514851485149,2.1385520549764685
5.1683168316831685,2.1233135876352685
5.188118811881188,2.106805814275874
5.207920792079208,2.089064554013509
5.227722772277227,2.0701290294286787
5.247524752475248,2.0500419635529665
5.267326732673268,2.0288496878892803
5.2871287128712865,2.006602262066597
5.306930693069307,1.9833536056546164
5.326732673267327,1.959161642536004
5.346534653465346,1.9340884580362703
5.366336633663367,1.9082004687241283
5.3861386138613865,1.881568604392362
5.405940594059405,1.854268501180634
5.425742574257426,1.8263807040713667
5.445544554455446,1.7979908760346135
5.465346534653465,1.7691900098715783
5.485148514851486,1.7400746372564744
5.504950495049505,1.7107470275515468
5.524752475247524,1.6813153666224914
5.544554455445545,1.651893903076475
5.564356435643565,1.622603046074046
5.584158415841584,1.5935693951629577
5.603960396039604,1.56492567854744
5.623762376237624,1.5368105720356435
5.643564356435643,1.5093683669239624
5.663366336633663,1.4827484517624359
5.683168316831684,1.457104570964314
5.702970297029703,1.4325938234290756
5.7227722772277225,1.4093753677436023
5.742574257425743,1.3876088081787572
5.762376237623762,1.3674522485722722
5.782178217821782,1.3490600199013187
5.801980198019803,1.332580111862117
5.821782178217822,1.3181513680712007
5.841584158415841,1.3059005363339868
5.861386138613861,1.295939296256823
5.881188118811881,1.2883614117461075
5.900990099009901,1.2832401707007433
5.920792079207921,1.2806262741191161
5.9405940594059405,1.2805463193010969
5.96039603960396,1.2830019869115064
5.98019801980198,1.2879699925944779
6.0,1.2954028065918475
6.01980198019802,1.3052300871220393
6.03960396039604,1.3173607229114865
6.0594059405940595,1.331685343504761
6.079207920792079,1.348079136370539
6.099009900990099,1.3664048077996387
6.118811881188119,1.3865155378167267
6.138613861386139,1.4082578036012217
6.158415841584159,1.43147397630984
6.178217821782178,1.456004628073649
6.198019801980198,1.481690515636089
6.217821782178218,1.5083742322099551
6.237623762376237,1.535901538512511
6.257425742574258,1.5641223974532965
6.2772277227722775,1.5928917451583142
6.297029702970296,1.6220700348518864
6.316831683168317,1.6515235906479095
6.336633663366337,1.6811248065391333
6.356435643564356,1.7107522226881036
6.376237623762377,1.7402905072016754
6.396039603960396,1.7696303674148386
6.415841584158415,1.7986684106573876
6.435643564356436,1.8273069707380352
6.455445544554456,1.855453913064144
6.475247524752475,1.8830224284619168
6.495049504950495,1.9099308233672505
6.514851485148515,1.936102312089332
6.534653465346534,1.9614648152607705
6.554455445544554,1.985950767328474
6.574257425742575,2.009496934956723
6.594059405940594,2.032044247460117
6.6138613861386135,2.0535376398170397
6.633663366336634,2.0739259083961072
6.653465346534653,2.093161579228799
6.673267326732673,2.1112007884546853
6.693069306930694,2.12800317443029
6.712871287128713,2.1435317809124648
6.732673267326732,2.1577529706881906
6.752475247524753,2.1706363490147176
6.772277227722772,2.182154696248882
6.792079207920792,2.192283909075423
6.811881188118813,2.20100294978764
6.8316831683168315,2.2082938031242083
6.851485148514851,2.2141414402233766
6.871287128712871,2.218533789315603
6.891089108910891,2.221461712838528
6.910891089108911,2.2229189907222646
6.930693069306931,2.2229023096578526
6.9504950495049505,2.221411258227121
6.97029702970297,2.2184483278380793
6.99009900990099,2.2140189194759134
7.00990099009901,2.2081313563461427
7.02970297029703,2.2007969025531895
7.0495049504950495,2.1920297880244397
7.069306930693069,2.1818472399572104
7.089108910891089,2.1702695211328518
7.108910891089109,2.157319975508626
7.128712871287128,2.1430250815628917
7.148514851485149,2.1274145139312544
7.1683168316831685,2.110521213929094
7.188118811881187,2.092381469606313
7.207920792079208,2.073035006020537
7.227722772277228,2.052525086439531
7.247524752475247,2.030898625187363
7.267326732673268,2.008206312822324
7.287128712871287,1.984502754268417
7.306930693069306,1.9598466204016018
7.326732673267327,1.9343008134006412
7.346534653465347,1.9079326458876362
7.366336633663366,1.880814033479177
7.3861386138613865,1.8530216998120386
7.405940594059406,1.824637392358221
7.425742574257425,1.795748106357313
7.445544554455446,1.7664463129163315
7.465346534653466,1.736830185701573
7.485148514851485,1.7070038186140064
7.504950495049505,1.6770774243434776
7.524752475247524,1.6471675006949114
7.544554455445544,1.6173969480546313
7.564356435643565,1.58789511734568
7.584158415841584,1.5587977634080132
7.603960396039604,1.5302468741362758
7.623762376237624,1.5023903412602908
7.643564356435643,1.4753814348850236
7.663366336633663,1.4493780415496882
7.683168316831684,1.424541625567164
7.702970297029703,1.4010358768914084
7.7227722772277225,1.3790250169398883
7.742574257425743,1.3586717477722832
7.762376237623762,1.3401348505136985
7.782178217821782,1.32356646588514
7.801980198019803,1.3091091220216513
7.821782178217822,1.2968926098641733
7.841584158415841,1.2870308402768873
7.861386138613862,1.2796188444805212
7.881188118811881,1.27473009481808
7.900990099009901,1.2724143214555643
7.92079207920792,1.2726959796092001
7.9405940594059405,1.2755734816740192
7.96039603960396,1.2810192531817135
7.980198019801979,1.2889806079191393
8.0,1.2993813746120706
8.01980198019802,1.3121241539959154
8.03960396039604,1.3270930475398797
8.05940594059406,1.3441566810120855
8.07920792079208,1.3631713473476628
8.099009900990099,1.3839841107689528
8.118811881188119,1.406435742789742
8.138613861386139,1.4303633950284165
8.158415841584159,1.455602948612047
8.178217821782178,1.4819910115607389
8.198019801980198,1.5093665615669092
8.217821782178218,1.5375722510706031
8.237623762376238,1.5664554045879646
8.257425742574258,1.5958687456678717
8.277227722772277,1.625670893761985
8.297029702970297,1.6557266708978904
8.316831683168317,1.6859072554458552
8.336633663366337,1.7160902163806708
8.356435643564357,1.7461594569604995
8.376237623762377,1.7760050921688197
8.396039603960396,1.8055232799150192
8.415841584158416,1.8346160220504575
8.435643564356436,1.8631909478179332
8.455445544554456,1.891161089433744
8.475247524752476,1.9184446570823568
8.495049504950495,1.9449648186380137
8.514851485148515,1.9706494878594536
8.534653465346535,1.9954311235743756
8.554455445544555,2.019246541422226
8.574257425742575,2.042036739006495
8.594059405940595,2.0637467347752794
8.613861386138613,2.0843254205642348
8.633663366336634,2.1037254274661037
8.653465346534654,2.121903004511022
8.673267326732672,2.1388179095297852
8.693069306930694,2.1544333115121392
8.712871287128714,2.1687157037507823
8.732673267326732,2.181634827068352
8.752475247524753,2.1931636024523997
8.772277227722773,2.203278072465064
8.792079207920791,2.2119573508464634
8.811881188118813,2.219183579789763
8.831683168316832,2.224941894428993
8.85148514851485,2.229220394147116
8.871287128712872,2.2320101203793876
8.891089108910892,2.233305040655678
8.91089108910891,2.233102038694504
8.930693069306932,2.23140091043093
8.950495049504951,2.2282043659300124
8.97029702970297,2.223518037207481
8.990099009900991,2.2173504920495257
9.00990099009901,2.209713253994516
9.029702970297029,2.200620828711179
9.04950495049505,2.1900907370793017
9.06930693069307,2.1781435553523236
9.089108910891088,2.16480296285319
9.10891089108911,2.1500957977270163
9.12871287128713,2.1340521213442964
9.148514851485148,2.116705292015089
9.16831683168317,2.0980920487353036
9.188118811881187,2.078252605737712
9.207920792079207,2.0572307586579863
9.227722772277229,2.035074003143055
9.247524752475247,2.0118336667176915
9.267326732673267,1.987565054674481
9.287128712871288,1.9623276106474266
9.306930693069306,1.9361850923526032
9.326732673267326,1.9092057627077685
9.346534653465348,1.8814625961468823
9.366336633663366,1.8530334993901987
9.386138613861386,1.8240015451725626
9.405940594059407,1.794455216420163
9.425742574257425,1.7644886570404608
9.445544554455445,1.7342019237844368
9.465346534653467,1.703701231485364
9.485148514851485,1.6730991813046132
9.504950495049505,1.6425149583660994
9.524752475247526,1.6120744813046697
9.544554455445544,1.5819104818059269
9.564356435643564,1.5521624872678983
9.584158415841586,1.5229766744754392
9.603960396039604,1.4945055570118175
9.623762376237623,1.466907464609684
9.643564356435645,1.4403457695826818
9.663366336633663,1.4149878149546256
9.683168316831683,1.3910035022207963
9.702970297029704,1.3685635052600977
9.722772277227723,1.3478370921010574
9.742574257425742,1.3289895589424756
9.762376237623764,1.312179311104122
9.782178217821782,1.2975546621826801
9.801980198019802,1.2852504626817984
9.821782178217823,1.2753847080673268
9.841584158415841,1.2680553074569085
9.861386138613861,1.2633372113952024
9.881188118811881,1.261280094731712
9.900990099009901,1.2619067653825946
9.92079207920792,1.2652124224248087
9.94059405940594,1.271164822542817
9.96039603960396,1.27970534095391
9.98019801980198,1.2907508420792455
10.0,1.304196216449949
10.01980198019802,1.319917401035497
10.03960396039604,1.3377746837321516
10.05940594059406,1.357616098283992
10.07920792079208,1.3792807391616229
10.099009900990099,1.4026018606974087
10.118811881188119,1.4274096645285124
10.138613861386139,1.4535337184840618
10.158415841584159,1.4808049844335205
10.178217821782178,1.5090574600310915
10.198019801980198,1.5381294590471786
10.217821782178218,1.5678645675114697
10.237623762376238,1.5981123193183342
10.257425742574258,1.6287286366598974
10.277227722772277,1.6595760790486647
10.297029702970297,1.6905239409921435
10.316831683168317,1.7214482335618855
10.336633663366337,1.7522315798765158
10.356435643564357,1.7827630493793718
10.376237623762377,1.8129379510365204
10.396039603960396,1.8426576013668163
10.415841584158416,1.871829079603901
10.435643564356436,1.9003649792738855
10.455445544554454,1.9281831630100519
10.475247524752476,1.955206525454533
10.495049504950495,1.9813627675467136
10.514851485148514,2.006584184300491
10.534653465346535,2.030807467264516
10.554455445544555,2.0539735221838384
10.574257425742573,2.076027301891396
10.594059405940595,2.0969176541122185
10.613861386138614,2.116597183630111
10.633663366336632,2.135022128118738
10.653465346534654,2.152152246856252
10.673267326732674,2.1679507215071583
10.693069306930692,2.1823840681556015
10.712871287128714,2.195422059799566
