Frequency (Hz),Amplitude
0.0,6.9752223081656215
0.01978021978021978,6.9767128430182845
0.03956043956043956,6.98117672797123
0.05934065934065934,6.988590876109334
0.07912087912087912,6.9989170473750875
0.0989010989010989,7.012102200467787
0.11868131868131868,7.028078975118009
0.13846153846153844,7.046766294851311
0.15824175824175823,7.0680700782075
0.17802197802197803,7.091884044683072
0.1978021978021978,7.11809060045578
0.21758241758241756,7.146561788246674
0.23736263736263735,7.177160285464316
0.2571428571428572,7.209740435024691
0.2769230769230769,7.244149293896964
0.2967032967032967,7.280227685422877
0.31648351648351647,7.317811242724225
0.3362637362637363,7.356731431971289
0.35604395604395606,7.396816545862055
0.3758241758241758,7.4378926592874475
0.3956043956043956,7.4797845407723065
0.4153846153846154,7.522316514834049
0.4351648351648351,7.56531327185159
0.45494505494505494,7.608600623356758
0.4747252747252747,7.652006201830915
0.4945054945054945,7.695360105100023
0.5142857142857143,7.738495486271603
0.5340659340659341,7.781249090848903
0.5538461538461538,7.8234617432021984
0.5736263736263736,7.864978784985253
0.5934065934065934,7.905650468371733
0.6131868131868132,7.945332307166829
0.6329670329670329,7.983885388938963
0.6527472527472528,8.021176651331308
0.6725274725274726,8.057079125665416
0.6923076923076923,8.091472150854356
0.7120879120879121,8.12424156051069
0.7318681318681318,8.155279845975423
0.7516483516483516,8.184486297817328
0.7714285714285715,8.211767128163192
0.7912087912087912,8.23703557602568
0.810989010989011,8.260211997600464
0.8307692307692308,8.281223943311497
0.8505494505494506,8.300006223195577
0.8703296703296702,8.316500962035803
0.8901098901098901,8.330657645480251
0.9098901098901099,8.342433158215814
0.9296703296703297,8.351791815109882
0.9494505494505494,8.358705386081956
0.9692307692307692,8.363153115324117
0.989010989010989,8.365121735351865
1.0087912087912088,8.364605476234237
1.0285714285714287,8.36160607022346
1.0483516483516484,8.356132751877643
1.0681318681318681,8.348202253644793
1.087912087912088,8.337838796750106
1.1076923076923075,8.325074077101046
1.1274725274725275,8.309947245793769
1.1472527472527472,8.292504883668895
1.1670329670329669,8.272800969224052
1.1868131868131868,8.250896839042763
1.2065934065934065,8.22686113974442
1.2263736263736265,8.200769770297141
1.2461538461538462,8.1727058133639
1.2659340659340659,8.142759454173248
1.2857142857142858,8.111027885219288
1.3054945054945055,8.077615194902917
1.3252747252747252,8.042632238029878
1.3450549450549452,8.006196485883397
1.3648351648351649,7.96843185339489
1.3846153846153846,7.9294685007493255
1.4043956043956045,7.889442606589909
1.4241758241758242,7.848496109837108
1.443956043956044,7.806776417018692
1.4637362637362636,7.764436071931929
1.4835164835164834,7.7216323844384664
1.5032967032967033,7.67852701524007
1.523076923076923,7.635285513615018
1.542857142857143,7.592076805325519
1.5626373626373626,7.5490726282520395
1.5824175824175823,7.5064469137865055
1.6021978021978023,7.464375112635989
1.621978021978022,7.423033464463374
1.6417582417582417,7.382598211728345
1.6615384615384616,7.343244759191904
1.6813186813186813,7.3051467818057
1.7010989010989013,7.268475285108656
1.720879120879121,7.233397623774776
1.7406593406593405,7.200076485561982
1.7604395604395604,7.168668849557676
1.7802197802197801,7.139324929245392
1.7999999999999998,7.112187112463014
1.8197802197802198,7.0873889117137
1.8395604395604395,7.06505393944886
1.8593406593406594,7.0452949237923805
1.879120879120879,7.0282127806447505
1.8989010989010988,7.0138957581358135
1.9186813186813187,7.002418668939515
1.9384615384615385,6.993842225001415
1.9582417582417584,6.988212487759704
1.978021978021978,6.985560444992171
1.9978021978021978,6.985901723049495
2.0175824175824175,6.989236440520009
2.0373626373626372,6.995549206414639
2.0571428571428574,7.004809262879401
2.076923076923077,7.016970769362127
2.096703296703297,7.0319732222044715
2.1164835164835165,7.049742000916708
2.1362637362637362,7.070189030022901
2.1560439560439564,7.093213543417477
2.175824175824176,7.118702936706578
2.195604395604396,7.146533692046204
2.215384615384615,7.1765723595351485
2.2351648351648348,7.2086765792508745
2.254945054945055,7.242696128485386
2.2747252747252746,7.2784739795867575
2.2945054945054943,7.315847354967769
2.314285714285714,7.354648767230926
2.3340659340659338,7.394707033901798
2.353846153846154,7.435848257887276
2.3736263736263736,7.4778967664171345
2.3934065934065933,7.520676002829194
2.413186813186813,7.564009367075578
2.4329670329670328,7.6077210022252695
2.452747252747253,7.651636525492642
2.4725274725274726,7.695583703418754
2.4923076923076923,7.739393071766643
2.512087912087912,7.7828985014647385
2.5318681318681318,7.825937712550953
2.5516483516483515,7.868352738545046
2.5714285714285716,7.909990344022094
2.5912087912087913,7.95070239839036
2.610989010989011,7.990346209008717
2.6307692307692307,8.028784816827132
2.6505494505494505,8.065887257713912
2.6703296703296706,8.101528792558618
2.6901098901098903,8.135591109122677
2.70989010989011,8.167962498460966
2.7296703296703297,8.198538008566961
2.7494505494505495,8.227219577708539
2.769230769230769,8.253916149728205
2.7890109890109893,8.278543773385024
2.808791208791209,8.301025687620145
2.8285714285714287,8.321292394436052
2.8483516483516484,8.339281720894233
2.8681318681318677,8.354938871557229
2.887912087912088,8.368216472530815
2.9076923076923076,8.37907460809942
2.9274725274725273,8.387480850793574
2.947252747252747,8.393410285580655
2.9670329670329667,8.396845528729846
2.986813186813187,8.397776741766345
3.0065934065934066,8.396201640799244
3.0263736263736263,8.392125501379017
3.046153846153846,8.385561158913935
3.0659340659340657,8.376529004548427
3.085714285714286,8.365056976278444
3.1054945054945056,8.351180544948493
3.1252747252747253,8.334942694640542
3.145054945054945,8.316393896825081
3.1648351648351647,8.295592077498297
3.184615384615385,8.272602576375801
3.2043956043956046,8.247498097051079
3.2241758241758243,8.220358646856573
3.243956043956044,8.191271464985888
3.2637362637362637,8.160330937248093
3.2835164835164834,8.127638495630144
3.3032967032967036,8.09330250064299
3.3230769230769233,8.057438104222866
3.342857142857143,8.020167090756217
3.3626373626373627,7.9816176935974745
3.3824175824175824,7.941924384261537
3.4021978021978025,7.901227631302247
3.4219780219780223,7.859673625745177
3.441758241758242,7.817413969836595
3.4615384615384617,7.774605325813256
3.481318681318681,7.731409021402734
3.501098901098901,7.687990608846946
3.520879120879121,7.6445193744167526
3.5406593406593405,7.601167795671652
3.5604395604395602,7.558110944129565
3.58021978021978,7.515525831564883
3.5999999999999996,7.473590698860191
3.61978021978022,7.432484247209091
3.6395604395604395,7.392384812508294
3.659340659340659,7.353469484986492
3.679120879120879,7.315913177484332
3.6989010989010986,7.279887647305992
3.718681318681319,7.245560478178738
3.7384615384615385,7.2130940305401525
3.758241758241758,7.182644370072029
3.7780219780219784,7.154360186051422
3.7978021978021976,7.1283817126204525
3.8175824175824173,7.104839667409995
3.8373626373626375,7.08385422300721
3.8571428571428568,7.065534027456206
3.876923076923077,7.049975290255032
3.896703296703296,7.037260950106273
3.916483516483517,7.027459939955304
3.936263736263736,7.020626563599065
3.956043956043956,7.016799996382736
3.9758241758241755,7.016003920265755
3.9956043956043956,7.018246300903165
4.015384615384615,7.023519311448257
4.035164835164835,7.031799404652653
4.054945054945055,7.043047531646986
4.0747252747252745,7.057209502659938
4.094505494505494,7.07421648200184
4.114285714285715,7.093985607015219
4.134065934065934,7.116420718473021
4.153846153846154,7.141413188155099
4.173626373626373,7.168842828097854
4.193406593406594,7.198578865303345
4.213186813186813,7.230480965500683
4.232967032967033,7.264400289836341
4.252747252747253,7.300180569076057
4.2725274725274724,7.3376591809590765
4.292307692307692,7.376668217678848
4.312087912087913,7.4170355319922665
4.331868131868132,7.458585752105237
4.351648351648352,7.5011412571733445
4.371428571428571,7.544523106930639
4.391208791208792,7.588551920564568
4.410989010989011,7.633048701450521
4.43076923076923,7.677835605715999
4.450549450549451,7.722736653803062
4.4703296703296695,7.767578385229777
4.49010989010989,7.812190457615035
4.50989010989011,7.8564061917317485
4.52967032967033,7.900063064900744
4.549450549450549,7.943003155444876
4.569230769230769,7.985073541205482
4.589010989010989,8.026126655297105
4.608791208791209,8.066020602358053
4.628571428571428,8.104619438559626
4.648351648351649,8.141793418580088
4.6681318681318675,8.177419212644482
4.687912087912088,8.211380096589705
4.707692307692308,8.243566117746127
4.7274725274725276,8.27387423924144
4.747252747252747,8.302208465135825
4.767032967032967,8.328479948596721
4.786813186813187,8.352607085119686
4.806593406593407,8.374515592603823
4.826373626373626,8.39413857989718
4.846153846153847,8.411416605242213
4.8659340659340655,8.426297725873651
4.885714285714286,8.438737539852259
4.905494505494506,8.448699221057135
4.9252747252747255,8.456153548106768
4.945054945054945,8.461078927832872
4.964835164835165,8.46346141379208
4.984615384615385,8.463294720165496
5.004395604395604,8.46058023126531
5.024175824175824,8.455327006738822
5.043956043956045,8.447551782432067
5.0637362637362635,8.437278966746494
5.083516483516483,8.424540632190878
5.103296703296703,8.409376501695975
5.123076923076923,8.39183392911934
5.142857142857143,8.371967873221502
5.162637362637362,8.349840864240537
5.182417582417583,8.325522962030137
5.2021978021978015,8.299091704553998
5.221978021978022,8.270632045348888
5.241758241758242,8.240236278377838
5.2615384615384615,8.208003948495382
5.281318681318681,8.174041745540254
5.301098901098901,8.138463379857944
5.320879120879121,8.101389436840886
5.340659340659341,8.062947207860313
5.36043956043956,8.023270494757432
5.380219780219781,7.9824993848682055
5.3999999999999995,7.940779993385348
5.41978021978022,7.898264169721286
5.43956043956044,7.855109164440386
5.4593406593406595,7.811477253289475
5.479120879120879,7.767535314888679
5.498901098901099,7.72345435876522
5.518681318681319,7.679409000639479
5.538461538461538,7.635576882221671
5.558241758241758,7.592138033266979
5.578021978021979,7.549274174282177
5.5978021978021975,7.50716795909083
5.617582417582418,7.466002157454817
5.637362637362637,7.425958779121173
5.6571428571428575,7.387218142008832
5.676923076923077,7.3499578887561965
5.696703296703297,7.31435195749227
5.716483516483517,7.280569514434204
5.736263736263735,7.248773857703591
5.756043956043956,7.219121303530932
5.775824175824176,7.191760067710411
5.795604395604395,7.166829156695679
5.815384615384615,7.144457284005941
5.835164835164835,7.124761828556372
5.854945054945055,7.107847852058093
5.874725274725275,7.093807192683318
5.894505494505494,7.08271765171115
5.914285714285715,7.074642288832669
5.934065934065933,7.069628840201068
5.953846153846154,7.067709271195404
5.973626373626374,7.068899473285832
5.993406593406593,7.073199111433857
6.013186813186813,7.080591625246262
6.032967032967033,7.091044383755236
6.052747252747253,7.104508990359034
6.072527472527473,7.1209217312641275
6.092307692307692,7.14020415785019
6.112087912087913,7.162263790843365
6.131868131868131,7.186994932117904
6.151648351648352,7.214279568408892
6.171428571428572,7.243988350237294
6.191208791208791,7.275981628920677
6.210989010989011,7.31011053463933
6.230769230769231,7.346218079096887
6.2505494505494505,7.3841402672872185
6.270329670329671,7.423707204176841
6.29010989010989,7.464744183648562
6.309890109890111,7.5070727487440045
6.329670329670329,7.550511714011097
6.349450549450549,7.594878142536047
6.36923076923077,7.639988271959732
6.3890109890109885,7.685658385395764
6.408791208791209,7.73170562464913
6.428571428571428,7.777948744453414
6.4483516483516485,7.8242088075910985
6.468131868131868,7.870309821728511
6.487912087912088,7.916079319589704
6.507692307692308,7.961348884720483
6.527472527472527,8.005954625567082
6.547252747252747,8.049737600930964
6.567032967032967,8.092544200077347
6.5868131868131865,8.134226480888627
6.606593406593407,8.174642469481876
6.626373626373626,8.213656424667668
6.6461538461538465,8.251139070530394
6.665934065934065,8.28696780027137
6.685714285714286,8.321026854286561
6.705494505494506,8.353207475259774
6.725274725274725,8.383408042849117
6.745054945054945,8.411534190334097
6.764835164835165,8.437498905379986
6.7846153846153845,8.461222616866872
6.804395604395605,8.482633269528407
6.824175824175824,8.501666387948946
6.8439560439560445,8.518265131280858
6.863736263736263,8.532380339865972
6.883516483516484,8.543970574776097
6.903296703296704,8.553002151127227
6.923076923076923,8.559449165870308
6.942857142857143,8.563293520615968
6.962637362637362,8.56452493991112
6.9824175824175825,8.563140985250625
7.002197802197802,8.559147064974718
7.021978021978022,8.552556440072372
7.041758241758242,8.543390225779957
7.061538461538461,8.53167738873111
7.081318681318681,8.517454739278502
7.101098901098901,8.50076691846603
7.1208791208791204,8.481666378983
7.140659340659341,8.460213359276164
7.16043956043956,8.436475849831218
7.1802197802197805,8.410529550461096
7.199999999999999,8.382457817253764
7.21978021978022,8.352351597636424
7.23956043956044,8.320309351807333
7.259340659340659,8.286436958570436
7.279120879120879,8.25084760338452
7.298901098901099,8.213661646209108
7.318681318681318,8.175006466498262
7.338461538461539,8.135016282465013
7.358241758241758,8.093831941520213
7.3780219780219785,8.051600678587137
7.397802197802197,8.008475838817981
7.417582417582418,7.964616561100917
7.437362637362638,7.920187418660412
7.457142857142857,7.875358013034462
7.476923076923077,7.830302517776694
7.496703296703297,7.785199168397887
7.516483516483516,7.740229695348728
7.536263736263736,7.695578697273229
7.556043956043957,7.651432952348805
7.575824175824176,7.607980666289603
7.595604395604395,7.565410656538295
7.615384615384615,7.523911473313724
7.635164835164835,7.483670459518733
7.654945054945055,7.4448727530336605
7.674725274725275,7.4077002366069244
7.694505494505494,7.372330442371148
7.7142857142857135,7.33893541991611
7.734065934065935,7.307680578777413
7.753846153846154,7.278723518081
7.7736263736263735,7.25221285783379
7.793406593406592,7.2282870878802985
7.813186813186814,7.207073451759895
7.832967032967034,7.188686883509569
7.852747252747252,7.173229015780705
7.872527472527472,7.160787277411878
7.892307692307693,7.151434097779824
7.912087912087912,7.145226233824763
7.931868131868132,7.142204233631208
7.951648351648351,7.142392047894389
7.971428571428572,7.145796797597913
7.991208791208791,7.152408702884525
8.010989010989011,7.162201174552095
8.03076923076923,7.175131066000359
8.05054945054945,7.191139079941631
8.07032967032967,7.210150320917157
8.09010989010989,7.232074981758105
8.10989010989011,7.256809149703518
8.129670329670331,7.284235716011432
8.149450549450549,7.314225371617582
8.169230769230769,7.34663767071782
8.189010989010988,7.381322144054509
8.20879120879121,7.418119444125196
8.22857142857143,7.456862505435061
8.248351648351647,7.497377704198498
8.268131868131867,7.5394860034699285
8.287912087912087,7.583004071455123
8.307692307692308,7.627745362634978
8.327472527472528,7.6735211532428815
8.347252747252746,7.720141524505435
8.367032967032966,7.7674162888287865
8.386813186813187,7.8151558557466085
8.406593406593407,7.863172035910932
8.426373626373627,7.9112787826870505
8.446153846153845,7.959292872000935
8.465934065934066,8.007034521984133
8.485714285714286,8.0543279546752
8.505494505494505,8.10100190258189
8.525274725274725,8.146890063300695
8.545054945054945,8.191831505649104
8.564835164835165,8.235671030908962
8.584615384615384,8.278259492826479
8.604395604395604,8.319454079982668
8.624175824175826,8.359118564053906
8.643956043956043,8.397123517340368
8.663736263736263,8.433346502763417
8.683516483516483,8.467672239331772
8.703296703296704,8.499992745860274
8.723076923076924,8.530207465501192
8.742857142857142,8.558223373422203
8.762637362637362,8.583955069742007
8.782417582417583,8.607324859617101
8.802197802197803,8.628262822164128
8.821978021978023,8.646706869702193
8.84175824175824,8.662602798609944
8.86153846153846,8.675904332912872
8.881318681318682,8.686573161546688
8.901098901098901,8.694578970082066
8.920879120879121,8.699899467543876
8.940659340659339,8.702520408812212
8.96043956043956,8.702435612952469
8.98021978021978,8.699646977685012
9.0,8.69416449007069
9.01978021978022,8.686006233354336
9.03956043956044,8.675198389773058
9.05934065934066,8.661775238997263
9.079120879120879,8.645779151729203
9.098901098901099,8.62726057783358
9.11868131868132,8.606278028216712
9.138461538461538,8.582898049503035
9.158241758241758,8.557195190379154
9.178021978021977,8.52925195828587
9.197802197802199,8.499158764935478
9.217582417582419,8.467013858917326
9.237362637362637,8.432923243427297
9.257142857142856,8.397000576919016
9.276923076923078,8.35936705422841
9.296703296703297,8.320151265470363
9.316483516483517,8.279489029753073
9.336263736263735,8.23752320050625
9.356043956043957,8.19440343898243
9.375824175824176,8.150285952274638
9.395604395604396,8.105333192010812
9.415384615384616,8.059713509748391
9.435164835164835,8.013600765017756
9.454945054945055,7.967173881967629
9.474725274725275,7.920616350669823
9.494505494505495,7.874115669364268
9.514285714285714,7.827862724291342
9.534065934065934,7.782051104287078
9.553846153846154,7.736876348028728
9.573626373626373,7.692535122729805
9.593406593406593,7.649224334206975
9.613186813186815,7.607140169581454
9.632967032967032,7.566477075430425
9.652747252747252,7.527426675953999
9.672527472527472,7.4901766376423025
9.692307692307693,7.454909488971409
9.712087912087913,7.421801405767999
9.731868131868131,7.391020974986479
9.75164835164835,7.3627279516522375
9.771428571428572,7.337072025541845
9.791208791208792,7.314191615692738
9.810989010989012,7.294212711956168
9.83076923076923,7.277247783432042
9.850549450549451,7.263394773669368
9.87032967032967,7.252736201922848
9.89010989010989,7.245338388492511
9.90989010989011,7.241250820244539
9.92967032967033,7.240505669858308
9.94945054945055,7.243117479245869
9.96923076923077,7.2490830140604166
9.989010989010989,7.258381292390217
10.008791208791209,7.27097378678542
10.028571428571428,7.2868047948579955
10.048351648351648,7.305801969994815
10.068131868131868,7.327877000384768
10.08791208791209,7.352926421710482
10.107692307692307,7.380832546590788
10.127472527472527,7.411464492241793
10.147252747252747,7.444679286875602
10.167032967032966,7.480323035061628
10.186813186813188,7.518232122592091
10.206593406593406,7.558234442247767
10.226373626373626,7.600150623163881
10.246153846153845,7.643795248147715
10.265934065934067,7.688978045195787
10.285714285714286,7.735505041498457
10.305494505494504,7.783179670311201
10.325274725274724,7.83180382313434
10.345054945054946,7.881178841610835
10.364835164835165,7.9311064453743345
10.384615384615385,7.981389593720778
10.404395604395603,8.03183328041571
10.424175824175824,8.082245262174945
10.443956043956044,8.132436722370546
10.463736263736264,8.182222872323795
10.483516483516484,8.23142349316788
10.503296703296703,8.279863421712294
10.523076923076923,8.327372984039492
10.542857142857143,8.373788380733224
10.562637362637362,8.418952027698294
10.582417582417584,8.462712856502833
10.602197802197802,8.504926578075928
10.621978021978022,8.54545591344039
10.641758241758241,8.584170794969342
10.661538461538463,8.620948541435688
10.681318681318682,8.655674009888559
10.7010989010989,8.688239727145643
10.72087912087912,8.718546003445118
10.740659340659342,8.74650103055688
10.760439560439561,8.772020966417047
10.780219780219781,8.795030008122467
10.799999999999999,8.815460454905708
10.819780219780219,8.83325276250706
10.83956043956044,8.848355590166895
10.85934065934066,8.860725841280837
