Frequency (Hz),Amplitude
0.0,2.8909439923433533
0.019867549668874173,2.8900618782687437
0.039735099337748346,2.887417436935463
0.059602649006622516,2.8830163744372768
0.07947019867549669,2.8768682123639646
0.09933774834437085,2.868986305043197
0.11920529801324503,2.8593878638608996
0.13907284768211922,2.848093988837578
0.15894039735099338,2.8351297076830813
0.17880794701986755,2.82052402259119
0.1986754966887417,2.804309965067858
0.2185430463576159,2.786524659109301
0.23841059602649006,2.7672093930556048
0.2582781456953642,2.7464097004384422
0.27814569536423844,2.724175450112328
0.2980132450331126,2.7005609459023012
0.31788079470198677,2.675625035907666
0.33774834437086093,2.649431231464203
0.3576158940397351,2.622047835572661
0.3774834437086093,2.5935480803365043
0.3973509933774834,2.5640102726005556
0.4172185430463576,2.533517946524136
0.4370860927152318,2.5021600212373145
0.45695364238410596,2.4700309609902096
0.4768211920529801,2.4372309342877596
0.49668874172185434,2.403865967378244
0.5165562913907285,2.3700480861044677
0.5364238410596026,2.3358954385121606
0.5562913907284769,2.301532388722067
0.5761589403973509,2.267089570414056
0.5960264900662252,2.232703885861892
0.6158940397350993,2.198518433854214
0.6357615894039735,2.164682347139159
0.6556291390728477,2.1313505174003784
0.6754966887417219,2.098683183443723
0.695364238410596,2.0668453565702984
0.7152317880794702,2.036006056445144
0.7350993377483444,2.006337331641387
0.7549668874172186,1.9780130420070745
0.7748344370860927,1.9512073856358971
0.7947019867549668,1.9260931620212214
0.8145695364238411,1.9028397752466526
0.8344370860927152,1.8816109968005337
0.8543046357615894,1.862562526310626
0.8741721854304636,1.845839409101414
0.8940397350993378,1.8315733902655316
0.9139072847682119,1.819880303627089
0.9337748344370861,1.810857607921727
0.9536423841059603,1.804582189113009
0.9735099337748344,1.8011085449007482
0.9933774834437087,1.8004674540560621
1.0132450331125828,1.8026652095398936
1.033112582781457,1.8076834622717315
1.0529801324503312,1.8154796851381165
1.0728476821192052,1.8259882284765117
1.0927152317880795,1.8391219031433048
1.1125827814569538,1.8547739991115557
1.1324503311258278,1.8728206289150957
1.1523178807947019,1.8931232772219289
1.1721854304635762,1.9155314399388097
1.1920529801324504,1.939885246852679
1.2119205298013245,1.9660179784790353
1.2317880794701985,1.99375840783215
1.2516556291390728,2.022932918763719
1.271523178807947,2.0533673723222843
1.2913907284768211,2.084888709873323
1.3112582781456954,2.1173262957241747
1.3311258278145695,2.150513012487851
1.3509933774834437,2.184286129564128
1.370860927152318,2.2184879693345914
1.390728476821192,2.252966397507943
1.410596026490066,2.287575164083819
1.4304635761589404,2.322174120161419
1.4503311258278146,2.3566293337602944
1.4701986754966887,2.390813125311645
1.4900662251655628,2.4246040407951153
1.5099337748344372,2.457886777835254
1.5298013245033113,2.490552077561425
1.5496688741721854,2.5224965927509837
1.5695364238410596,2.553622740756256
1.5894039735099337,2.5838385479690764
1.609271523178808,2.6130574910956246
1.6291390728476822,2.641198339278413
1.6490066225165563,2.6681850000867597
1.6688741721854303,2.6939463715743464
1.6887417218543048,2.718416201944898
1.7086092715231789,2.741532957849605
1.728476821192053,2.763239701938362
1.7483443708609272,2.7834839799815603
1.7682119205298013,2.802217717651961
1.7880794701986755,2.8193971268918436
1.8079470198675496,2.83498262167691
1.8278145695364238,2.8489387429151147
1.847682119205298,2.8612340921761006
1.8675496688741722,2.8718412739304164
1.8874172185430464,2.880736845978814
1.9072847682119205,2.8879012777689277
1.9271523178807946,2.8933189163245796
1.9470198675496688,2.896977959548734
1.9668874172185429,2.8988704367041795
1.9867549668874174,2.8989921959225184
2.0066225165562916,2.8973428986425773
2.0264900662251657,2.8939260209310977
2.0463576158940397,2.8887488616920156
2.066225165562914,2.881822557823517
2.086092715231788,2.8731621064346577
2.1059602649006623,2.8627863942838276
2.1258278145695364,2.850718234648894
2.1456953642384105,2.8369844118823333
2.165562913907285,2.821615733941693
2.185430463576159,2.804647093214724
2.205298013245033,2.78611753597651
2.2251655629139075,2.766070340818849
2.2450331125827816,2.7445531063767006
2.2649006622516556,2.721617848635608
2.2847682119205297,2.6973211080319555
2.3046357615894038,2.6717240664453223
2.324503311258278,2.6448926740186205
2.3443708609271523,2.6168977855147824
2.364238410596027,2.5878153056123923
2.384105960264901,2.5577263421394822
2.403973509933775,2.526717365723282
2.423841059602649,2.494880373670424
2.443708609271523,2.462313055059899
2.463576158940397,2.429118953002785
2.4834437086092715,2.395407618768646
2.5033112582781456,2.361294750973038
2.52317880794702,2.326902311242437
2.543046357615894,2.292358605712494
2.562913907284768,2.2577983193815414
2.5827814569536423,2.223362487769437
2.6026490066225163,2.189198387598867
2.622516556291391,2.1554593254513783
2.642384105960265,2.1223043007522104
2.662251655629139,2.089897517288491
2.6821192052980134,2.0584077161386887
2.7019867549668874,2.0280073028564605
2.7218543046357615,1.9988712435575329
2.741721854304636,1.971175708794824
2.76158940397351,1.9450964513403972
2.781456953642384,1.9208069146634557
2.801324503311258,1.8984760831830378
2.821192052980132,1.8782661030557195
2.8410596026490067,1.8603297225535211
2.8609271523178808,1.844807622570611
2.8807947019867552,1.831825728400741
2.9006622516556293,1.8214926110811969
2.9205298013245033,1.813897097540746
2.9403973509933774,1.8091062110151703
2.9602649006622515,1.8071635549830694
2.9801324503311255,1.8080882347714429
3.0,1.8118743820843592
3.0198675496688745,1.8184913116749903
3.0397350993377485,1.8278843000711817
3.0596026490066226,1.8399759381105512
3.0794701986754967,1.85466797627035
3.0993377483443707,1.8718435576888983
3.119205298013245,1.89136972023967
3.1390728476821192,1.9131000463108787
3.1589403973509933,1.9368773459015438
3.1788079470198674,1.9625362730814466
3.198675496688742,1.989905795080807
3.218543046357616,2.0188114545700295
3.23841059602649,2.0490773867270824
3.2582781456953644,2.080528071729336
3.2781456953642385,2.1129898192659944
3.2980132450331126,2.1462919940697147
3.3178807947019866,2.180268000313202
3.3377483443708607,2.214756048341011
3.3576158940397347,2.249599730125033
3.3774834437086096,2.284648430631696
3.3973509933774837,2.3197576015420345
3.4172185430463577,2.3547889219818683
3.437086092715232,2.3896103685167955
3.456953642384106,2.4240962139714086
3.47682119205298,2.458126971879775
3.4966887417218544,2.4915893007260106
3.5165562913907285,2.5243758796900244
3.5364238410596025,2.5563852654275494
3.556291390728477,2.5875217375070556
3.576158940397351,2.6176951384965816
3.596026490066225,2.646820713325275
3.615894039735099,2.6748189514137297
3.6357615894039736,2.701615434145913
3.6556291390728477,2.727140689515364
3.6754966887417218,2.751330055192548
3.695364238410596,2.7741235508029334
3.7152317880794703,2.795465759854932
3.7350993377483444,2.815305721493624
3.754966887417219,2.833596832063403
3.774834437086093,2.85029675632697
3.794701986754967,2.8653673480972643
3.814569536423841,2.8787745799838613
3.834437086092715,2.8904884819284304
3.854304635761589,2.900483088198525
3.8741721854304636,2.9087363925202645
3.8940397350993377,2.9152303110550744
3.9139072847682117,2.919950652959434
3.9337748344370858,2.9228870983079895
3.9536423841059607,2.9240331832069244
3.9735099337748347,2.9233862919749716
3.993377483443709,2.9209476563223524
4.013245033112583,2.9167223615124698
4.033112582781457,2.9107193595463667
4.052980132450331,2.902951489464755
4.072847682119205,2.893435504916203
4.0927152317880795,2.882192109191611
4.112582781456953,2.869245997973121
4.132450331125828,2.854625910088742
4.152317880794702,2.838364686600188
4.172185430463576,2.820499338578071
4.19205298013245,2.8010711239331125
4.211920529801325,2.7801256336691464
4.231788079470199,2.7577128879001593
4.251655629139073,2.7338874419212305
4.271523178807947,2.7087085025353015
4.291390728476821,2.682240054704057
4.311258278145695,2.6545509983996696
4.33112582781457,2.625715295270971
4.3509933774834435,2.59581212438466
4.370860927152318,2.5649260458400804
4.390728476821192,2.533147170460787
4.410596026490066,2.500571333011711
4.43046357615894,2.4673002654478684
4.450331125827815,2.433441765539228
4.470198675496689,2.39910985480609
4.490066225165563,2.364424918014221
4.509933774834438,2.329513814499596
4.529801324503311,2.2945099493151657
4.549668874172186,2.2595532896346215
4.569536423841059,2.224790309064093
4.589403973509934,2.1903738396017975
4.6092715231788075,2.156462808113521
4.629139072847682,2.1232218316007696
4.649006622516556,2.0908206435681773
4.66887417218543,2.0594333228847153
4.688741721854305,2.0292372972169326
4.708609271523179,2.0004120959989655
4.728476821192054,1.973137833621184
4.748344370860927,1.9475934126272263
4.768211920529802,1.9239544495755636
4.788079470198675,1.9023909428711467
4.80794701986755,1.8830647218213035
4.827814569536423,1.866126738292025
4.847682119205298,1.8517142848043606
4.867549668874172,1.8399482432468945
4.887417218543046,1.8309304837147593
4.9072847682119205,1.8247415404476146
4.927152317880794,1.8214386890947618
4.947019867549669,1.8210545353476737
4.966887417218543,1.82359619964393
4.986754966887418,1.8290451481619308
5.006622516556291,1.8373576802109695
5.026490066225166,1.8484660408752656
5.04635761589404,1.862280090089413
5.066225165562914,1.8786894292724579
5.086092715231788,1.8975658669909656
5.105960264900662,1.918766096956775
5.125827814569536,1.9421344644425476
5.14569536423841,1.9675057090405013
5.1655629139072845,1.9947075899180549
5.185430463576159,2.023563321413867
5.205298013245033,2.0538937692766766
5.225165562913908,2.0855193789324127
5.245033112582782,2.1182618254180934
5.264900662251656,2.151945389269717
5.28476821192053,2.18639807349881
5.304635761589404,2.2214524840597867
5.324503311258278,2.2569465003811415
5.344370860927152,2.2927237642110336
5.364238410596027,2.32863401483469
5.3841059602649,2.3645332972274926
5.403973509933775,2.40028406739882
5.4238410596026485,2.435755216440215
5.443708609271523,2.4708220319041363
5.463576158940397,2.5053661123053006
5.483443708609272,2.539275247884179
5.503311258278146,2.572443278375934
5.52317880794702,2.604769936420807
5.543046357615895,2.6361606834397477
5.562913907284768,2.6665265432698217
5.582781456953643,2.695783937584081
5.602649006622516,2.72385452608213
5.622516556291391,2.750665053600232
5.642384105960264,2.7761472056244063
5.662251655629139,2.8002374731682473
5.682119205298013,2.8228770275761903
5.701986754966887,2.844011605508751
5.7218543046357615,2.8635914041429675
5.741721854304636,2.881570986461131
5.7615894039735105,2.897909196392315
5.781456953642384,2.912569083502714
5.801324503311259,2.925517836894328
5.821192052980132,2.93672672795933
5.841059602649007,2.946171061644658
5.860927152317881,2.9538301359029275
5.880794701986755,2.9596872090386865
5.900662251655629,2.963729474699848
5.920529801324503,2.965948044311539
5.940397350993377,2.966337936801487
5.960264900662251,2.964898075520463
5.980132450331126,2.96163129231887
6.0,2.956544338798118
6.0198675496688745,2.9496479048140576
6.039735099337749,2.9409566443675255
6.059602649006623,2.930489209073312
6.079470198675497,2.9182682894527936
6.099337748344371,2.904320664345046
6.119205298013245,2.888677258775725
6.139072847682119,2.8713732106594367
6.158940397350993,2.8524479467368864
6.178807947019867,2.8319452681600046
6.198675496688741,2.80991344613091
6.218543046357616,2.7864053279689327
6.23841059602649,2.7614784539163715
6.258278145695365,2.735195184889133
6.2781456953642385,2.707622841222191
6.298013245033113,2.6788338522372888
6.317880794701987,2.6489059161565494
6.337748344370861,2.6179221694791557
6.357615894039735,2.585971364407856
6.377483443708609,2.5531480522298864
6.397350993377484,2.519552769693802
6.417218543046357,2.485292224347549
6.437086092715232,2.450479473479806
6.456953642384105,2.415234089704535
6.47682119205298,2.379682304320013
6.496688741721854,2.3439571173417857
6.516556291390729,2.3081983605552123
6.5364238410596025,2.2725526970884635
6.556291390728477,2.2371735379426365
6.5761589403973515,2.2022208527639338
6.596026490066225,2.167860849109799
6.6158940397351,2.134265491847362
6.635761589403973,2.101611832537454
6.655629139072848,2.0700811182199197
6.675496688741721,2.0398576505478454
6.695364238410596,2.011127370400681
6.715231788079469,1.9840761506124658
6.735099337748344,1.9588877908300824
6.754966887417219,1.9357417240435788
6.774834437086093,1.9148104638266186
6.794701986754967,1.8962568439862764
6.814569536423841,1.880231126590841
6.8344370860927155,1.8668680778996551
6.854304635761589,1.8562841316233725
6.874172185430464,1.8485747719878933
6.894039735099337,1.843812272312725
6.913907284768212,1.8420439161730324
6.933774834437086,1.8432908070851513
6.95364238410596,1.847547340249117
6.973509933774834,1.8547813692419455
6.993377483443709,1.864935056150023
7.013245033112583,1.877926350597451
7.033112582781457,1.8936510063583432
7.052980132450331,1.9119850175134991
7.072847682119205,1.9327873415131216
7.0927152317880795,1.955902774252813
7.112582781456954,1.9811648509127675
7.132450331125828,2.0083986632445074
7.152317880794702,2.037423506065871
7.172185430463576,2.068055289840321
7.19205298013245,2.1001086797408797
7.211920529801324,2.1333989426199347
7.231788079470198,2.167743500680948
7.251655629139073,2.202963203924586
7.271523178807947,2.238883342702209
7.291390728476822,2.2753344273898195
7.311258278145695,2.312152764919992
7.33112582781457,2.349180862361015
7.3509933774834435,2.3862676865610553
7.370860927152318,2.4232688066468966
7.390728476821192,2.460046443338382
7.410596026490066,2.4964694459600167
7.430463576158941,2.5324132149468404
7.450331125827814,2.5677595847167844
7.470198675496689,2.602396679114616
7.490066225165562,2.6362187492712095
7.509933774834438,2.6691260016808487
7.52980132450331,2.7010244225702156
7.549668874172186,2.7318256031922523
7.569536423841059,2.7614465694975774
7.589403973509934,2.7898096186817547
7.6092715231788075,2.8168421643466837
7.629139072847682,2.842476591417871
7.649006622516557,2.8666501214984663
7.66887417218543,2.8893046889916127
7.6887417218543055,2.910386828063963
7.708609271523178,2.929847570337015
7.728476821192054,2.9476423530651075
7.748344370860927,2.96373093747667
7.768211920529802,2.9780773369092546
7.788079470198675,2.9906497543507404
7.80794701986755,3.0014205290025755
7.827814569536423,3.0103660915008463
7.847682119205298,3.0174669274636927
7.8675496688741715,3.022707549075413
7.887417218543046,3.0260764744669677
7.907284768211921,3.027566214706345
7.927152317880795,3.0271732682707686
7.9470198675496695,3.0248981229327305
7.966887417218543,3.02074526505427
7.986754966887418,3.0147231963466474
8.006622516556291,3.006844458215674
8.026490066225167,2.9971256638749284
8.046357615894038,2.9855875384696797
8.066225165562914,2.972254967511777
8.086092715231787,2.9571570539788947
8.105960264900663,2.940327184478611
8.125827814569536,2.921803104915838
8.14569536423841,2.901627006128673
8.165562913907285,2.8798456199679285
8.185430463576159,2.856510326284871
8.205298013245034,2.8316772712529867
8.225165562913906,2.8054074973746044
8.245033112582782,2.777767085401608
8.264900662251655,2.7488273082184342
8.28476821192053,2.7186647964787762
8.304635761589404,2.6873617154369502
8.324503311258278,2.6550059519465288
8.344370860927151,2.6216913099875048
8.364238410596027,2.5875177122971453
8.3841059602649,2.552591404685257
8.403973509933774,2.5170251583748495
8.42384105960265,2.4809384641859786
8.443708609271523,2.444457710538072
8.463576158940398,2.4077163350560755
8.483443708609272,2.370854937011345
8.503311258278146,2.3340213349194334
8.52317880794702,2.2973705503965474
8.543046357615895,2.2610646959424345
8.562913907284768,2.225272740838048
8.582781456953642,2.1901701260832778
8.602649006622515,2.155938196626123
8.62251655629139,2.1227634175497867
8.642384105960264,2.0908363410127633
8.66225165562914,2.0603502933089044
8.682119205298013,2.031499757205994
8.701986754966887,2.0044784344611686
8.721854304635762,1.9794769876297351
8.741721854304636,1.9566804791274421
8.76158940397351,1.9362655485286075
8.781456953642383,1.9183973950583002
8.801324503311259,1.9032266590603881
8.821192052980132,1.8908863209602988
8.841059602649008,1.8814887553940287
8.86092715231788,1.8751230881732925
8.880794701986755,1.8718530016286956
8.90066225165563,1.871715117960516
8.920529801324504,1.874718060763914
8.940397350993377,1.8808422542498295
8.960264900662251,1.8900404721424513
8.980132450331126,1.9022390993247262
9.0,1.9173400247998558
9.019867549668875,1.9352230494029088
9.039735099337747,1.9557486692390311
9.059602649006623,1.9787610872585404
9.079470198675496,2.0040913098708684
9.099337748344372,2.0315602006110183
9.119205298013245,2.060981385239949
9.139072847682119,2.0921639286969724
9.158940397350994,2.1249147308070526
9.178807947019868,2.159040612081807
9.198675496688743,2.1943500817225927
9.218543046357615,2.2306547962477987
9.23841059602649,2.2677707289195914
9.258278145695364,2.305519077706915
9.27814569536424,2.343726943539693
9.298013245033111,2.3822278118433267
9.317880794701987,2.4208618695445923
9.33774834437086,2.4594761875809446
9.357615894039736,2.4979247959778133
9.37748344370861,2.5360686752106307
9.397350993377483,2.5737756841486066
9.417218543046358,2.610920441593897
9.437086092715232,2.647384175411488
9.456953642384107,2.6830545505576184
9.47682119205298,2.7178254849833445
9.496688741721854,2.751596960409137
9.516556291390728,2.784274833314216
9.536423841059603,2.8157706501282123
9.556291390728477,2.846001469515799
9.57615894039735,2.8748896937712467
9.596026490066224,2.9023629106533275
9.6158940397351,2.928353746460858
9.635761589403973,2.9527997307468317
9.655629139072847,2.975643172770512
9.675496688741722,2.996831049571866
9.695364238410596,3.016314905403764
9.715231788079471,3.034050762161311
9.735099337748345,3.049999040391985
9.754966887417218,3.0641244904469542
9.774834437086092,3.076396133334636
9.794701986754967,3.0867872108572896
9.814569536423841,3.0952751446451794
9.834437086092716,3.101841503747189
9.854304635761588,3.106471980489107
9.874172185430464,3.1091563743689887
9.894039735099337,3.109888583821241
9.913907284768213,3.1086666057465937
9.933774834437086,3.10549254277245
9.95364238410596,3.100372618277036
9.973509933774835,3.0933171992795963
9.993377483443709,3.084340827368522
10.013245033112582,3.0734622579071096
10.033112582781456,3.060704507822947
10.052980132450331,3.0460949123503007
10.072847682119205,3.029665191153152
10.09271523178808,3.011451524308087
10.112582781456952,2.9914946386685686
10.132450331125828,2.969839905160527
10.152317880794701,2.946537447570535
10.172185430463577,2.921642263374531
10.192052980132452,2.8952143571102935
10.211920529801324,2.867318886711109
10.2317880794702,2.838026323078279
10.251655629139073,2.80741262296179
10.271523178807948,2.7755594149235288
10.29139072847682,2.7425541977522196
10.311258278145695,2.7084905501585417
10.331125827814569,2.673468349870214
10.350993377483444,2.6375939993345856
10.370860927152318,2.600980654080301
10.390728476821192,2.563748448346282
10.410596026490065,2.526024710811561
10.43046357615894,2.487944161112751
10.450331125827816,2.4496490752840336
10.470198675496688,2.411289405284311
10.490066225165563,2.3730228344025273
10.509933774834437,2.3350147466169004
10.529801324503312,2.297438084054985
10.549668874172186,2.2604730627770153
10.56953642384106,2.224306713516648
10.589403973509933,2.189132211231622
10.609271523178808,2.155147955959604
10.629139072847682,2.1225563683083246
10.649006622516556,2.091562366803628
10.66887417218543,2.0623715021787317
10.688741721854305,2.035187736304178
10.70860927152318,2.0102108713321503
10.728476821192054,1.98763365771884
10.748344370860927,1.9676386372813193
10.7682119205298,1.9503948075442927
