Time (s),Filtered Signal
0.0,0.010778443352249258
0.033370165745856356,-0.14854482162797925
0.06674033149171271,-0.2360694771642301
0.10011049723756907,-0.21871896390866982
0.13348066298342542,-0.12009990636079436
0.16685082872928178,-0.0068345179386536305
0.20022099447513814,0.04746073107839539
0.2335911602209945,-0.00010076512009867433
0.26696132596685085,-0.14237729129557364
0.30033149171270723,-0.3296446375404238
0.33370165745856356,-0.49686247375882947
0.3670718232044199,-0.5942635794461468
0.4004419889502763,-0.6055436507501033
0.43381215469613266,-0.5470710276047807
0.467182320441989,-0.45256230102735945
0.5005524861878453,-0.354144408280739
0.5339226519337017,-0.2699831737470066
0.5672928176795581,-0.20264118068939013
0.6006629834254145,-0.1455576703072559
0.6340331491712707,-0.09148949985050904
0.6674033149171271,-0.03763412682641178
0.7007734806629835,0.014191371708197625
0.7341436464088398,0.06044163993299
0.7675138121546962,0.09869614724649578
0.8008839779005525,0.12854161644479772
0.8342541436464089,0.1506755912059227
0.8676243093922653,0.16577663827079325
0.9009944751381216,0.17451476084950915
0.934364640883978,0.17884263363212194
0.9677348066298344,0.18346765932463804
1.0011049723756906,0.19598809144423146
1.0344751381215471,0.22478463511766433
1.0678453038674034,0.2750238065549322
1.1012154696132597,0.3443994137418634
1.1345856353591162,0.4208714870090979
1.1679558011049724,0.48424976916768697
1.201325966850829,0.5120055820537657
1.2346961325966852,0.48767307040950075
1.2680662983425415,0.4085274121620505
1.301436464088398,0.2888714154671827
1.3348066298342542,0.15669911273522055
1.3681767955801105,0.04430719857942609
1.401546961325967,-0.023665026641624037
1.4349171270718233,-0.03974483670799867
1.4682872928176796,-0.016381697631246975
1.501657458563536,0.019563486839208895
1.5350276243093923,0.03845478248952614
1.5683977900552488,0.02064756122415618
1.601767955801105,-0.03530322073489075
1.6351381215469614,-0.11277384626385725
1.6685082872928179,-0.18556331149855665
1.7018784530386741,-0.23082664223158705
1.7352486187845306,-0.24028813026215837
1.768618784530387,-0.22421746534590267
1.8019889502762432,-0.20604006605932396
1.8353591160220997,-0.21006070999332208
1.868729281767956,-0.24836021812348058
1.9020994475138122,-0.3136013786650368
1.9354696132596687,-0.38173868680170947
1.968839779005525,-0.4236832328946629
2.0022099447513813,-0.4202737021234657
2.0355801104972375,-0.37292426357641856
2.0689502762430942,-0.30423886213721196
2.1023204419889505,-0.2478404820161328
2.135690607734807,-0.23213137953246968
2.169060773480663,-0.2658291497100327
2.2024309392265193,-0.33232594515568403
2.235801104972376,-0.3956878104136507
2.2691712707182323,-0.41563400878356105
2.3025414364640886,-0.36474464096902626
2.335911602209945,-0.24023018759887152
2.369281767955801,-0.065124074183382
2.402651933701658,0.12147851590868314
2.436022099447514,0.28061793989709743
2.4693922651933704,0.3887198562255139
2.5027624309392267,0.4450240442566361
2.536132596685083,0.46809767064096
2.5695027624309392,0.48371286511861317
2.602872928176796,0.5107159915085847
2.636243093922652,0.5524898421927941
2.6696132596685085,0.5984601879319282
2.7029834254143648,0.6343182733424358
2.736353591160221,0.6543657704790051
2.7697237569060777,0.6677532633096296
2.803093922651934,0.6936139294025767
2.8364640883977903,0.7466617664330529
2.8698342541436466,0.8211092442903327
2.903204419889503,0.8829985281392175
2.936574585635359,0.8775134067485287
2.969944751381216,0.7500595537681706
3.003314917127072,0.47200843786065566
3.0366850828729284,0.05852271469611507
3.0700552486187846,-0.4309408257193509
3.103425414364641,-0.9105367061679253
3.1367955801104976,-1.296460754172799
3.170165745856354,-1.533213207043823
3.20353591160221,-1.6067002246687592
3.2369060773480665,-1.5400945610432177
3.2702762430939227,-1.3766357491847114
3.3036464088397794,-1.1589942565519857
3.3370165745856357,-0.9150954499175931
3.370386740331492,-0.6557512326539832
3.4037569060773483,-0.3827410624013802
3.4371270718232045,-0.10071618939420865
3.4704972375690613,0.17482483026417484
3.5038674033149175,0.41792443425868236
3.537237569060774,0.5999260510718155
3.57060773480663,0.6995575723132209
3.6039779005524863,0.7098861378674189
3.6373480662983426,0.6395523429399101
3.6707182320441993,0.509329939190037
3.7040883977900556,0.3469525894818101
3.737458563535912,0.18254756189880628
3.770828729281768,0.04510177144494722
3.8041988950276244,-0.04100833461855895
3.837569060773481,-0.06024121733960548
3.8709392265193374,-0.01030182708508233
3.9043093922651937,0.0952857658734446
3.93767955801105,0.22882351081493812
3.9710497237569062,0.35536897544662127
4.0044198895027625,0.44341889202992196
4.037790055248619,0.4752324979456555
4.071160220994475,0.4518198697929838
4.104530386740332,0.38958131607937196
4.1379005524861885,0.30983142175955525
4.171270718232044,0.22668859898234117
4.204640883977901,0.1402672250024188
4.238011049723757,0.03942217440781216
4.271381215469614,-0.08726517363800884
4.30475138121547,-0.23871027472867068
4.338121546961326,-0.3946927785276162
4.371491712707183,-0.5200986315740103
4.404861878453039,-0.5787440127215168
4.438232044198895,-0.5501706182148204
4.471602209944752,-0.44110981999801113
4.504972375690608,-0.2858929376828188
4.538342541436465,-0.13526387895530143
4.5717127071823205,-0.03813346007589277
4.605082872928177,-0.023607949449205995
4.638453038674034,-0.09027520784428644
4.67182320441989,-0.2067238053307478
4.7051933701657465,-0.3229427967530784
4.738563535911602,-0.38823237306397124
4.771933701657459,-0.3689713619097235
4.805303867403316,-0.2598240944676671
4.8386740331491715,-0.08458526794713736
4.872044198895028,0.11319652561864103
4.905414364640884,0.28595546532385907
4.938784530386741,0.3982354460701367
4.972154696132597,0.4374277165877727
5.005524861878453,0.4156181640405863
5.03889502762431,0.36247044078310975
5.072265193370166,0.31237142822355024
5.105635359116023,0.2910669573157068
5.1390055248618784,0.30701090384634167
5.172375690607735,0.3506197324082156
5.205745856353592,0.4012842123926554
5.239116022099448,0.43862163057189985
5.272486187845304,0.45248555161927084
5.30585635359116,0.4466953179451173
5.339226519337017,0.43437284525756065
5.372596685082874,0.427081712452974
5.4059668508287295,0.42365153607645484
5.439337016574586,0.40555067198593076
5.472707182320442,0.34291229775477927
5.506077348066299,0.20972715889187843
5.5394475138121555,0.0010301864247146287
5.572817679558011,-0.25759771616764815
5.606187845303868,-0.5152883196508996
5.639558011049724,-0.7159968297960922
5.672928176795581,-0.8254424210091867
5.706298342541437,-0.8518159609478412
5.739668508287293,-0.8482342598496315
5.77303867403315,-0.8922502950844715
5.806408839779006,-1.048459045389206
5.839779005524862,-1.3295444295029253
5.873149171270718,-1.6743542406389227
5.906519337016575,-1.9564831136260754
5.939889502762432,-2.0247181321623344
5.9732596685082875,-1.7622624223013243
6.006629834254144,-1.141269588344044
6.04,-0.2482750879261523
6.073370165745857,0.7337231987036887
6.1067403314917135,1.5830233576443797
6.140110497237569,2.1156884568242775
6.173480662983426,2.2504726376321416
6.206850828729282,2.0358481157077564
6.240220994475139,1.6279978497658718
6.273591160220995,1.228379569451187
6.306961325966851,1.005412898596317
6.340331491712708,1.0308108669140843
6.373701657458564,1.2550867197548652
6.40707182320442,1.5313174859555982
6.440441988950277,1.6772614131280164
6.473812154696133,1.5507281741874277
6.50718232044199,1.107815018929693
6.5405524861878455,0.42071241068556187
6.573922651933702,-0.35132601706740646
6.607292817679559,-1.0245654419568775
6.640662983425415,-1.4597805034903164
6.674033149171271,-1.608738057826182
6.707403314917127,-1.5202834993478989
6.740773480662984,-1.3066625253718211
6.774143646408841,-1.0880030005638552
6.8075138121546965,-0.9411221870567599
6.840883977900553,-0.8747775279626119
6.874254143646409,-0.8397529839246203
6.907624309392266,-0.7656217214477423
6.9409944751381225,-0.6043302108154147
6.974364640883978,-0.35893163733111566
7.007734806629835,-0.08418488425164498
7.041104972375691,0.13997004212857309
7.074475138121548,0.24777447790317902
7.107845303867403,0.21970480609720122
7.14121546961326,0.09140179990505844
7.174585635359117,-0.0641719243076588
7.207955801104973,-0.17139066668592517
7.241325966850829,-0.1855248801297036
7.274696132596685,-0.10888363422934988
7.308066298342542,0.01692516275667032
7.341436464088399,0.13659379865041313
7.3748066298342545,0.21009870959985635
7.408176795580111,0.23025898934118377
7.441546961325967,0.22131869778958047
7.474917127071824,0.22138772169218895
7.5082872928176805,0.2594194175986936
7.541657458563536,0.33898507598877403
7.575027624309393,0.4363900446682562
7.608397790055249,0.512832010152879
7.641767955801106,0.5335825279509568
7.675138121546962,0.4845979483226716
7.708508287292818,0.37908272652923564
7.741878453038675,0.2516685434442039
7.775248618784531,0.14339758442209638
7.808618784530387,0.08433248574455311
7.841988950276244,0.08121538849333898
7.8753591160221,0.11524816173137868
7.908729281767957,0.15079811794618278
7.9420994475138125,0.15127078271658784
7.975469613259669,0.09532358174402626
8.008839779005525,-0.01361981621366603
8.042209944751383,-0.14870216522250948
8.075580110497238,-0.2711406477242821
8.108950276243094,-0.3466928195294526
8.14232044198895,-0.35973663348218365
8.175690607734808,-0.3188781132592537
8.209060773480664,-0.2519513542185573
8.24243093922652,-0.19300860119191954
8.275801104972377,-0.16728067195119944
8.309171270718233,-0.1807328734163786
8.342541436464089,-0.21860882113083543
8.375911602209946,-0.253295735344965
8.409281767955802,-0.25772428696237015
8.442651933701658,-0.2181110658186341
8.476022099447514,-0.14023841126390224
8.509392265193371,-0.04652003348104284
8.542762430939227,0.0345529533585495
8.576132596685083,0.08142918431359433
8.60950276243094,0.08880712173747544
8.642872928176796,0.0690700658407642
8.676243093922652,0.045572717850339936
8.709613259668508,0.041247969199305914
8.742983425414366,0.06783670514882537
8.776353591160222,0.12039972598375817
8.809723756906077,0.17929198810528796
8.843093922651935,0.2186753207895638
8.87646408839779,0.2180385348066157
8.909834254143647,0.17188071195387591
8.943204419889504,0.09319531767449982
8.97657458563536,0.008758362219094075
9.009944751381216,-0.05217789873123478
9.043314917127072,-0.07085337451668537
9.07668508287293,-0.0474319598512288
9.110055248618785,-0.0005150729100572754
9.143425414364641,0.042358208026798544
9.176795580110499,0.05869852690067613
9.210165745856354,0.04256190235791288
9.24353591160221,0.007679372876119162
9.276906077348068,-0.0195287812125015
9.310276243093924,-0.013780854137243463
9.34364640883978,0.03508805246841441
9.377016574585635,0.11489119337900804
9.410386740331493,0.1944363353675537
9.443756906077349,0.23639864407213326
9.477127071823205,0.21414184798052815
9.510497237569062,0.12480424736992862
9.543867403314918,-0.007681548240804308
9.577237569060774,-0.1416250616524561
9.610607734806631,-0.2351825963727213
9.643977900552487,-0.2648885822440582
9.677348066298343,-0.23660083069656584
9.710718232044199,-0.1833108267883942
9.744088397790057,-0.14994956429948583
9.777458563535912,-0.17135242278625576
9.810828729281768,-0.25324465372984645
9.844198895027626,-0.36555831590741356
9.877569060773482,-0.4523963431668906
9.910939226519337,-0.4554097278894552
9.944309392265193,-0.34065686091009834
9.97767955801105,-0.11659725059030386
10.011049723756907,0.1656506807615194
10.044419889502763,0.43062367611807156
10.07779005524862,0.6075076797061821
10.111160220994476,0.6569107303464695
10.144530386740332,0.5837503943847008
10.17790055248619,0.43133157562541
10.211270718232045,0.26042409818289813
10.244640883977901,0.1235874456459179
10.278011049723757,0.04627448232840907
10.311381215469615,0.022181838559587278
10.34475138121547,0.023183783944401064
10.378121546961326,0.017486233812972155
10.411491712707184,-0.013559637797081133
10.44486187845304,-0.0679397882326852
10.478232044198895,-0.12733181286768303
10.511602209944753,-0.1696139769574242
10.544972375690609,-0.18188739414768365
10.578342541436465,-0.16680072496209647
10.61171270718232,-0.13931567160652344
10.645082872928178,-0.11668422095819735
10.678453038674034,-0.10804726840789923
10.71182320441989,-0.10975360457515405
10.745193370165747,-0.10871752003409223
10.778563535911603,-0.09135050260439063
10.811933701657459,-0.05263696138389897
10.845303867403315,-0.0002524235693817048
10.878674033149172,0.04831087839669721
10.912044198895028,0.07383408252082918
10.945414364640884,0.06444246919631436
10.978784530386742,0.021359371302821884
11.012154696132598,-0.041000500902969264
11.045524861878453,-0.1002727087603894
11.078895027624311,-0.13433567982043293
11.112265193370167,-0.12929987917655397
11.145635359116023,-0.08457657826366291
11.179005524861878,-0.013460461069475986
11.212375690607736,0.060964504667876715
11.245745856353592,0.11347515941800759
11.279116022099448,0.12569429938361873
11.312486187845305,0.09348821064221316
11.345856353591161,0.029879022790478892
11.379226519337017,-0.03833610753430889
11.412596685082875,-0.07991227570397257
11.44596685082873,-0.0714934909715783
11.479337016574586,-0.008159042373748046
11.512707182320442,0.09261785640670826
11.5460773480663,0.19613169886136778
11.579447513812156,0.2634653582385828
11.612817679558011,0.26742941251787994
11.646187845303869,0.2047040331548137
11.679558011049725,0.0986130701107927
11.71292817679558,-0.00929430425799878
11.746298342541436,-0.07589446352920438
11.779668508287294,-0.07467542503635541
11.81303867403315,-0.007739559521693106
11.846408839779006,0.0938531815250708
11.879779005524863,0.1821524172345003
11.91314917127072,0.21218047770548423
11.946519337016575,0.1612519330393045
11.979889502762433,0.0391590437984372
12.013259668508288,-0.11567814540334445
12.046629834254144,-0.25275708858746704
12.08,-0.33141946960316687
12.113370165745858,-0.3380813092477157
12.146740331491714,-0.29066426662906053
12.18011049723757,-0.22808112034736888
12.213480662983427,-0.18979700042867131
12.246850828729283,-0.19540125481552179
12.280220994475139,-0.23429020884947732
12.313591160220996,-0.27073626549819924
12.346961325966852,-0.26205775155097943
12.380331491712708,-0.1810504623023497
12.413701657458564,-0.03164767246708693
12.447071823204421,0.1499123789190785
12.480441988950277,0.3090459905058628
12.513812154696133,0.39534582501187465
12.54718232044199,0.3833414959391864
12.580552486187846,0.282437698319261
12.613922651933702,0.13225710051229997
12.64729281767956,-0.013832517224672197
12.680662983425416,-0.10941627577931239
12.714033149171271,-0.13118880597736032
12.747403314917127,-0.08440727895674688
12.780773480662985,0.003561318721486594
12.81414364640884,0.09771887178115375
12.847513812154697,0.1709546033927694
12.880883977900554,0.2136719411386466
12.91425414364641,0.23367480843268915
12.947624309392266,0.24717780597954966
12.980994475138122,0.26603065442695645
13.01436464088398,0.28803244203731043
13.047734806629835,0.2956599768663759
13.081104972375691,0.264292121536622
13.114475138121549,0.17606356412665844
13.147845303867404,0.03228125863996009
13.18121546961326,-0.14238636955405112
13.214585635359118,-0.30692583286812375
13.247955801104974,-0.41960898448295614
13.28132596685083,-0.4551198669763002
13.314696132596685,-0.4149729884319557
13.348066298342543,-0.3260537970984502
13.381436464088399,-0.2278306810422543
13.414806629834255,-0.15434680293602954
13.448176795580112,-0.1197048549020298
13.481546961325968,-0.11405415936497254
13.514917127071824,-0.11183311270619245
13.548287292817681,-0.08776343467483501
13.581657458563537,-0.03202661241673319
13.615027624309393,0.04357103368405531
13.648397790055249,0.11181301543797567
13.681767955801106,0.14524080617697635
13.715138121546962,0.1318380755112315
13.748508287292818,0.08244751149470313
13.781878453038676,0.025699172034771043
13.815248618784532,-0.006883021793852613
13.848618784530387,0.002417060764040457
13.881988950276245,0.04793313001593253
13.9153591160221,0.103253671340498
13.948729281767957,0.1347380742410939
13.982099447513813,0.1190000913826784
14.01546961325967,0.05550423135608764
14.048839779005526,-0.03202952970949336
14.082209944751382,-0.10607628243283604
14.11558011049724,-0.13244520389348238
14.148950276243095,-0.09583715254248551
14.182320441988951,-0.0066048573354629825
14.215690607734807,0.10403600564978267
14.249060773480664,0.19762446826037736
14.28243093922652,0.2443872921980436
14.315801104972376,0.23446086993483883
14.349171270718234,0.18002151854373344
14.38254143646409,0.10821301718345058
14.415911602209945,0.048622190964882746
14.449281767955803,0.020941219141318343
14.482651933701659,0.0278217000571537
14.516022099447515,0.05529488455137695
14.54939226519337,0.07978828770776546
14.582762430939228,0.07820999655042589
14.616132596685084,0.03684930290867562
14.64950276243094,-0.04396804251329333
14.682872928176797,-0.1503384392665625
14.716243093922653,-0.25929037853658715
14.749613259668509,-0.34539742274236385
14.782983425414367,-0.38762474826855675
14.816353591160222,-0.37497119238820636
14.849723756906078,-0.3097592286274971
14.883093922651934,-0.2075811798533096
14.916464088397792,-0.09332736067949687
14.949834254143648,0.0062368597982958365
14.983204419889503,0.0713258552756367
15.016574585635361,0.09609691908576617
15.049944751381217,0.09040229704584635
15.083314917127073,0.07489062161379319
15.116685082872928,0.0711696704656453
15.150055248618786,0.09149180905180483
15.183425414364642,0.13302072064821235
15.216795580110498,0.17957763731210125
15.250165745856355,0.2099284349426379
15.283535911602211,0.20833175345775048
15.316906077348067,0.17210866892898968
15.350276243093925,0.11281433759377578
15.38364640883978,0.0509425786239427
15.417016574585636,0.007037067029630646
15.450386740331492,-0.0067356123438631465
15.48375690607735,0.00878908857861368
15.517127071823205,0.040454872378003166
15.550497237569061,0.06825945863286172
15.583867403314919,0.07352394792905496
15.617237569060775,0.046781954636897195
15.65060773480663,-0.007588496677533943
15.683977900552488,-0.07200098026460079
15.717348066298344,-0.12177127770077409
15.7507182320442,-0.13477479582238697
15.784088397790056,-0.10107152927353114
15.817458563535913,-0.02855109800426438
15.85082872928177,0.0580780217739588
15.884198895027625,0.12510127534203927
15.917569060773483,0.14180642973502633
15.950939226519338,0.09229727067272615
15.984309392265194,-0.017356347856507408
16.01767955801105,-0.1595004816547932
16.051049723756908,-0.29304816667486366
16.084419889502765,-0.3768835149628285
16.11779005524862,-0.38400675290928715
16.151160220994477,-0.3113583550531338
16.18453038674033,-0.18149850740103085
16.21790055248619,-0.03512225187480483
16.251270718232046,0.08314414527674534
16.2846408839779,0.14046690610701926
16.318011049723758,0.12706623150625304
16.351381215469615,0.058703363546418495
16.38475138121547,-0.030406546238764678
16.418121546961327,-0.10118471966356866
16.451491712707185,-0.12416920592515217
16.48486187845304,-0.08915750139277952
16.518232044198896,-0.00658934041378265
16.551602209944754,0.09910481701816597
16.584972375690608,0.20060153170041886
16.618342541436466,0.2780160737984119
16.651712707182323,0.3240462414139167
16.685082872928177,0.3423113644318779
16.718453038674035,0.34073229337829514
16.751823204419892,0.32418658718180604
16.785193370165747,0.2907469907745599
16.818563535911604,0.23354357341178708
16.851933701657458,0.14696217195906497
16.885303867403316,0.03340000292771844
16.918674033149173,-0.09347116272778837
16.952044198895027,-0.2109945362056588
16.985414364640885,-0.2944555649854402
17.018784530386743,-0.3254815699671126
17.052154696132597,-0.2983019925812951
17.085524861878454,-0.22154162480008716
17.118895027624312,-0.11529072300514402
17.152265193370166,-0.004969777158781365
17.185635359116024,0.08565273136492559
17.21900552486188,0.14007583755477035
