Time (s),Filtered Signal
0.0,0.04344479857842484
0.03337008452774715,-0.1441982051898642
0.0667401690554943,-0.2746664614726484
0.10011025358324147,-0.31671855686955747
0.1334803381109886,-0.2779055324532913
0.16685042263873576,-0.19714063628990403
0.20022050716648293,-0.122606044511122
0.23359059169423008,-0.08803339785414686
0.2669606762219772,-0.10046981658898584
0.30033076074972437,-0.14492731435884917
0.3337008452774715,-0.20060580140152479
0.36707092980521866,-0.2564308984162666
0.40044101433296586,-0.31492722969638237
0.433811098860713,-0.3821238122489879
0.46718118338846015,-0.45146892391285937
0.5005512679162073,-0.49459964157416575
0.5339213524439544,-0.46778620271215143
0.5672914369717016,-0.33250972396746714
0.6006615214994487,-0.0788699859973486
0.6340316060271959,0.2620917581370117
0.667401690554943,0.6248659609799115
0.7007717750826902,0.9316469602210958
0.7341418596104373,1.1186622153219292
0.7675119441381845,1.153968235424662
0.8008820286659317,1.0400991412792755
0.8342521131936789,0.8038307708294602
0.867622197721426,0.4815350661737862
0.9009922822491732,0.10903375185271269
0.9343623667769203,-0.27985374963418513
0.9677324513046675,-0.6483621340558452
1.0011025358324146,-0.9521451268603679
1.0344726203601617,-1.141726327001944
1.0678427048879089,-1.1746224049520346
1.101212789415656,-1.0334835012353953
1.1345828739434032,-0.7415366818283876
1.1679529584711503,-0.3656648836785148
1.2013230429988975,-0.001778533535379812
1.2346931275266446,0.25478214351852624
1.2680632120543918,0.3430995430080631
1.301433296582139,0.26050911586660874
1.334803381109886,0.06528283542461434
1.3681734656376332,-0.1442443066423096
1.4015435501653803,-0.2663037584557112
1.4349136346931275,-0.2334203432281517
1.4682837192208746,-0.03624118125093164
1.5016538037486218,0.2753663505411493
1.535023888276369,0.6131734803398695
1.568393972804116,0.8840019351030722
1.6017640573318634,1.0221856026648046
1.6351341418596106,1.0091493402719574
1.6685042263873577,0.8740513267963327
1.7018743109151049,0.6768763042962779
1.735244395442852,0.48162281508944454
1.7686144799705992,0.33040604340937163
1.8019845644983463,0.22857420927122277
1.8353546490260935,0.14652799517085985
1.8687247335538406,0.037174261992873686
1.9020948180815878,-0.13871819924436934
1.935464902609335,-0.39063108497772947
1.968834987137082,-0.689828398802389
2.002205071664829,-0.9780713849323986
2.0355751561925763,-1.1892239346126439
2.0689452407203235,-1.2736524908547453
2.1023153252480706,-1.2147422402900365
2.1356854097758178,-1.031500393893954
2.169055494303565,-0.7682028923665668
2.202425578831312,-0.4774653791342719
2.235795663359059,-0.20449456683286488
2.2691657478868064,0.02220387666935996
2.3025358324145535,0.192452813088437
2.3359059169423007,0.3103214300520593
2.369276001470048,0.3874330298679588
2.402646085997795,0.43637989710863273
2.436016170525542,0.4661144228257665
2.4693862550532892,0.4803885087949128
2.5027563395810364,0.47936905148288134
2.5361264241087835,0.4632706660633189
2.5694965086365307,0.43568538237347615
2.602866593164278,0.40420308457614923
2.636236677692025,0.37743387351681235
2.669606762219772,0.36000934591440364
2.7029768467475193,0.3489194500188615
2.7363469312752664,0.33418091915483705
2.7697170158030135,0.3042637378131744
2.8030871003307607,0.253458739665334
2.836457184858508,0.1866077964638356
2.869827269386255,0.11767564914029814
2.903197353914002,0.062138265371439634
2.9365674384417493,0.027144512037305554
2.9699375229694964,0.005417432979337236
3.0033076074972436,-0.02263094658664738
3.0366776920249907,-0.07862432149395908
3.070047776552738,-0.17293056520378816
3.103417861080485,-0.2959806439746867
3.136787945608232,-0.4198349478697602
3.1701580301359793,-0.5100362444864774
3.203528114663727,-0.5418461869199451
3.236898199191474,-0.5122941474935888
3.270268283719221,-0.44167253430078374
3.3036383682469683,-0.3637787264683924
3.3370084527747155,-0.30995558745654217
3.3703785373024626,-0.29470794990304444
3.4037486218302098,-0.3093029925776199
3.437118706357957,-0.3255424438394217
3.470488790885704,-0.307285187474954
3.503858875413451,-0.22447683762098583
3.5372289599411983,-0.0643019590640478
3.5705990444689455,0.16391054575328848
3.6039691289966926,0.4305985080660417
3.63733921352444,0.693043292829434
3.670709298052187,0.9050226772472347
3.704079382579934,1.0266564612146694
3.7374494671076812,1.0327339219656826
3.7708195516354284,0.9182746483681348
3.8041896361631755,0.7001523116200783
3.8375597206909227,0.41377300759911856
3.87092980521867,0.10474528589919882
3.904299889746417,-0.18263537101222854
3.937669974274164,-0.41631471138612947
3.9710400588019112,-0.5825323843796556
4.004410143329658,-0.6845634153844734
4.0377802278574055,-0.7352796364237927
4.071150312385153,-0.747858623411105
4.1045203969129,-0.7296802173678527
4.137890481440647,-0.682142664397159
4.171260565968394,-0.6053250209077098
4.204630650496141,-0.503622334884923
4.238000735023888,-0.38837172203096704
4.2713708195516356,-0.27582764927420034
4.304740904079383,-0.18180948231520225
4.33811098860713,-0.11596519093109055
4.371481073134877,-0.07814843088516972
4.404851157662624,-0.05774139535923295
4.438221242190371,-0.035404951377925695
4.471591326718118,0.013405928874158516
4.504961411245866,0.11317575600497586
4.538331495773613,0.28112410057509496
4.57170158030136,0.5189711705095525
4.605071664829107,0.8065162321700461
4.638441749356854,1.1010405081043548
4.671811833884601,1.3453791208776034
4.7051819184123485,1.4838196904836838
4.738552002940096,1.4804594935842024
4.771922087467843,1.332008837876635
4.80529217199559,1.0683630722144701
4.838662256523337,0.7395898689807815
4.872032341051084,0.3948798301098636
4.905402425578831,0.0637498707066524
4.9387725101065785,-0.25065066393280144
4.972142594634326,-0.562298434451062
5.005512679162073,-0.8820396160889503
5.03888276368982,-1.1979212480821828
5.072252848217567,-1.4682400793782366
5.105622932745314,-1.6330399801512379
5.138993017273061,-1.6397639503327894
5.1723631018008085,-1.4706802431321242
5.205733186328556,-1.1580612288339596
5.239103270856303,-0.7787025484074421
5.27247335538405,-0.42908132017656814
5.305843439911797,-0.19126311065766416
5.339213524439544,-0.10356144129393872
5.372583608967291,-0.14770078952207447
5.4059536934950385,-0.25739412034419257
5.439323778022786,-0.3448766706140415
5.472693862550533,-0.3351234893735278
5.50606394707828,-0.19446313001784452
5.539434031606027,0.05782403586581019
5.572804116133774,0.35987413922400807
5.606174200661521,0.6354844439799601
5.6395442851892685,0.8280429229358562
5.672914369717016,0.9246468830268317
5.706284454244763,0.9586482110494996
5.73965453877251,0.9886503861966793
5.773024623300257,1.063552280342225
5.806394707828004,1.1908790252538164
5.839764792355751,1.3251271644688773
5.873134876883499,1.383797828801627
5.906504961411246,1.2851835016145143
5.939875045938993,0.9904572671889625
5.97324513046674,0.5292757596286523
6.006615214994487,-0.004782393384879661
6.039985299522234,-0.4881935035375057
6.073355384049981,-0.8156518452407202
6.106725468577729,-0.940237193804186
6.140095553105476,-0.8875841022175353
6.173465637633223,-0.738928377376065
6.20683572216097,-0.5925628094560278
6.240205806688717,-0.5223118772982385
6.273575891216464,-0.5512471565964548
6.3069459757442115,-0.650163249784584
6.340316060271959,-0.7582964404049336
6.373686144799706,-0.8143177739782351
6.407056229327454,-0.7827503403697754
6.440426313855201,-0.6651178478263831
6.473796398382948,-0.4935258750680453
6.507166482910695,-0.31259659854751376
6.540536567438442,-0.159889252570686
6.5739066519661895,-0.053647862514899454
6.607276736493937,0.008639334745416193
6.640646821021684,0.04336729216574685
6.674016905549431,0.07136429169577824
6.707386990077178,0.11081633835033529
6.740757074604925,0.17413126824511518
6.774127159132672,0.2671756023963569
6.8074972436604195,0.3885762677431089
6.840867328188167,0.5284301501467706
6.874237412715914,0.6679500992711394
6.907607497243661,0.7821955100396868
6.940977581771408,0.8463988400086434
6.974347666299155,0.843719556392132
7.007717750826902,0.7706784164781646
7.0410878353546495,0.637441047792849
7.074457919882397,0.46304926896199994
7.107828004410144,0.26859571181620084
7.141198088937891,0.07213733987377226
7.174568173465638,-0.11264440738813439
7.207938257993385,-0.27495941970938254
7.241308342521132,-0.40537477139180506
7.27467842704888,-0.4964942394834339
7.308048511576627,-0.5457919656267101
7.341418596104374,-0.558259845567906
7.374788680632121,-0.5460395046085563
7.408158765159868,-0.523943080937141
7.441528849687615,-0.5025930006780436
7.4748989342153624,-0.48293221770033434
7.50826901874311,-0.4556491900012996
7.541639103270857,-0.40657227414565256
7.575009187798604,-0.3256733521594009
7.608379272326351,-0.2149638939291873
7.641749356854098,-0.0907313876662789
7.675119441381845,0.021693214816638714
7.7084895259095925,0.098576771089648
7.74185961043734,0.12890859205330946
7.775229694965087,0.12073954334181161
7.808599779492834,0.09967022374438399
7.841969864020581,0.09987222898847746
7.875339948548328,0.15106435431947876
7.908710033076075,0.2663871621144337
7.9420801176038225,0.4358098051556266
7.97545020213157,0.6277804276488448
8.008820286659317,0.7988454308549554
8.042190371187063,0.9078309735256269
8.075560455714811,0.929133815007359
8.108930540242557,0.8597913821129459
8.142300624770305,0.717535968970906
8.175670709298052,0.5310213980497744
8.2090407938258,0.32700824889922486
8.242410878353546,0.12069453277187117
8.275780962881294,-0.0862578380514369
8.30915104740904,-0.29946519002256067
8.342521131936788,-0.5212057133107141
8.375891216464534,-0.7417354051014765
8.409261300992283,-0.9378084386083688
8.442631385520029,-1.079681471879318
8.476001470047777,-1.1431350033162073
8.509371554575523,-1.1202221624720832
8.542741639103271,-1.0230929333273036
8.57611172363102,-0.8788934910515435
8.609481808158765,-0.7183434834066132
8.642851892686513,-0.5636897508937314
8.67622197721426,-0.4217809011928959
8.709592061742008,-0.28511754595576133
8.742962146269754,-0.13954129410375155
8.776332230797502,0.026010736050967282
8.809702315325248,0.2128518273992375
8.843072399852996,0.4118893714317042
8.876442484380743,0.6081298382290996
8.90981256890849,0.7865700733239852
8.943182653436237,0.9353698293988082
8.976552737963985,1.044687269856027
9.009922822491731,1.103219087500582
9.04329290701948,1.096758888341215
9.076662991547225,1.012146244774169
9.110033076074973,0.8460875951306123
9.14340316060272,0.6139279619752995
9.176773245130468,0.35173381348974725
9.210143329658214,0.10780132372198607
9.243513414185962,-0.07418567982216634
9.276883498713708,-0.1723420779011
9.310253583241456,-0.19465992835941634
9.343623667769203,-0.17294148225560946
9.37699375229695,-0.1455245105358675
9.410363836824697,-0.13841646046324335
9.443733921352445,-0.15553810160919534
9.477104005880191,-0.18336097930413534
9.51047409040794,-0.206465281407361
9.543844174935685,-0.2237740455192714
9.577214259463434,-0.25464247243282107
9.61058434399118,-0.33003483751307044
9.643954428518928,-0.473085765339578
9.677324513046674,-0.6800189262413942
9.710694597574422,-0.912815643128532
9.744064682102168,-1.1090235442415661
9.777434766629916,-1.2050518180339476
9.810804851157663,-1.1620659469787762
9.84417493568541,-0.9819056381674961
9.877545020213157,-0.7051513559733256
9.910915104740905,-0.39221555867802843
9.944285189268651,-0.09676326761425565
9.9776552737964,0.15541650520625955
10.011025358324146,0.3718001428498561
10.044395442851894,0.5806063158545686
10.07776552737964,0.8074069149027256
10.111135611907388,1.0534401817604142
10.144505696435134,1.2871855519081115
10.177875780962882,1.4538665027074846
10.211245865490628,1.4984543056207023
10.244615950018376,1.3911038956547848
10.277986034546123,1.1429071089662435
10.31135611907387,0.8045516796847221
10.344726203601617,0.4483405221640591
10.378096288129365,0.14133815788467285
10.411466372657111,-0.07886709298643635
10.44483645718486,-0.21547494669416184
10.478206541712606,-0.30604600823529643
10.511576626240354,-0.4011768602315958
10.5449467107681,-0.5377888940919707
10.578316795295848,-0.7191800493058046
10.611686879823594,-0.91109282289829
10.645056964351342,-1.0557278256201592
10.678427048879088,-1.0973129039730456
10.711797133406836,-1.0075603626273784
10.745167217934583,-0.7995876037604265
10.77853730246233,-0.524322564008096
10.811907386990077,-0.25130907799136704
10.845277471517825,-0.04251080022907767
10.878647556045571,0.06965778562885519
10.91201764057332,0.09119324860401565
10.945387725101066,0.05947525744386806
10.978757809628814,0.02459598038250927
11.01212789415656,0.028056621888340884
11.045497978684308,0.08821005532510862
11.078868063212054,0.19780573241991364
11.112238147739802,0.33274321080883457
11.145608232267548,0.4658957531595176
11.178978316795297,0.578226574989376
11.212348401323043,0.6619776168760795
11.24571848585079,0.7157891316243945
11.279088570378537,0.736302048911645
11.312458654906285,0.7126234415253943
11.345828739434031,0.6281889872384289
11.37919882396178,0.47012187889069973
11.412568908489526,0.2414779077692254
11.445938993017274,-0.030766954512351792
11.47930907754502,-0.2979938910221875
11.512679162072768,-0.5039120458995235
11.546049246600514,-0.6056290465458628
11.579419331128262,-0.5927078975683152
11.612789415656009,-0.49459177084308786
11.646159500183757,-0.3710859472489426
11.679529584711503,-0.28819922008126186
11.71289966923925,-0.2891546950474213
11.746269753766997,-0.37389185184460816
11.779639838294745,-0.4975410619340696
11.813009922822491,-0.589909968695405
11.84638000735024,-0.5878451744329298
11.879750091877986,-0.46555982003343777
11.913120176405734,-0.24832307600162412
11.94649026093348,-0.002461590561033511
11.979860345461228,0.19411728806051726
12.013230429988974,0.2872243664328248
12.046600514516722,0.2709239251708507
12.079970599044469,0.18978605583191804
12.113340683572217,0.11790211574309498
12.146710768099963,0.12460136866687196
12.180080852627711,0.24278871232971663
12.213450937155457,0.4541482985949514
12.246821021683205,0.697141066124345
12.280191106210951,0.8929889535663132
12.3135611907387,0.9769935969502678
12.346931275266446,0.9212656529111554
12.380301359794194,0.740394415919411
12.41367144432194,0.4804110489749517
12.447041528849688,0.19874419795201034
12.480411613377434,-0.05480117996788609
12.513781697905182,-0.249035865723619
12.547151782432929,-0.37303635626901693
12.580521866960677,-0.43176419299348084
12.613891951488423,-0.44017081437422784
12.647262036016171,-0.4183886397267379
12.680632120543917,-0.38787836263647846
12.714002205071665,-0.36723340226173734
12.747372289599411,-0.3674276006247747
12.78074237412716,-0.3882961806735681
12.814112458654908,-0.4188337418792393
12.847482543182654,-0.4423654151792344
12.880852627710402,-0.4446610847717202
12.914222712238148,-0.4208094223103106
12.947592796765896,-0.3769655775584863
12.980962881293642,-0.3259684926083343
13.01433296582139,-0.27947455813532557
13.047703050349137,-0.24127201334013787
13.081073134876885,-0.2055110809811425
13.114443219404631,-0.16039964093984932
13.147813303932379,-0.09467627592996108
13.181183388460125,-0.0030020882608270917
13.214553472987873,0.11218195149749788
13.24792355751562,0.24217108408818114
13.281293642043368,0.3749329012591153
13.314663726571114,0.4975952667503997
13.348033811098862,0.5979841882012861
13.381403895626608,0.6658684496160221
13.414773980154356,0.6945147026685349
13.448144064682102,0.6821410598715836
13.48151414920985,0.6320233961630461
13.514884233737597,0.5503691626085853
13.548254318265345,0.4426452089741775
13.581624402793091,0.310735136686022
13.614994487320839,0.15362779552073638
13.648364571848585,-0.027450143576842247
13.681734656376333,-0.22173433342963805
13.71510474090408,-0.40436038019813836
13.748474825431828,-0.5394293298092396
13.781844909959574,-0.5921542747569282
13.815214994487322,-0.5460372696494133
13.848585079015068,-0.4165372464758248
13.881955163542816,-0.2523649177220733
13.915325248070562,-0.1205270076376523
13.94869533259831,-0.07953772375882175
13.982065417126057,-0.15239796651792042
14.015435501653805,-0.312616463226979
14.048805586181551,-0.49113177289742455
14.082175670709299,-0.6020172690431269
14.115545755237045,-0.5756854931223709
14.148915839764793,-0.3849848402307481
14.18228592429254,-0.053722785403088925
14.215656008820288,0.3539228082219514
14.249026093348034,0.7560739133024085
14.282396177875782,1.0770487843172947
14.315766262403528,1.2637262303433572
14.349136346931276,1.2913655961008395
14.382506431459023,1.1613779884813982
14.41587651598677,0.8958582309046358
14.449246600514517,0.5324040664930025
14.482616685042265,0.1197845827911004
14.515986769570011,-0.28710103978571483
14.54935685409776,-0.6344755921225264
14.582726938625505,-0.8788836197224545
14.616097023153253,-0.9961334349779747
14.649467107681,-0.9869694960016885
14.682837192208748,-0.8771190004017579
14.716207276736494,-0.7109477374994295
14.749577361264242,-0.53978866542315
14.782947445791988,-0.40768394254073587
14.816317530319736,-0.3385852183896286
14.849687614847483,-0.32949314257343393
14.88305769937523,-0.3528155642704119
14.916427783902977,-0.36805231019536083
14.949797868430725,-0.33870732383530794
14.983167952958471,-0.24727238746789937
15.01653803748622,-0.10142008655602895
15.049908122013965,0.07132703264101013
15.083278206541713,0.2372454071806937
15.11664829106946,0.3709187536386452
15.150018375597208,0.463216860231636
15.183388460124954,0.5196568309741324
15.216758544652702,0.5518173164071494
15.250128629180448,0.5681381272503063
15.283498713708196,0.5699600099387748
15.316868798235943,0.5546395822453292
15.35023888276369,0.5226793911513835
15.383608967291437,0.4830829030417858
15.416979051819185,0.45221968511146904
15.450349136346931,0.4456918248290989
15.48371922087468,0.467456199423552
15.517089305402425,0.5028522515784135
15.550459389930174,0.5206873371587584
15.58382947445792,0.48488860645049053
15.617199558985668,0.37095573437929164
15.650569643513414,0.1793834815565895
15.683939728041162,-0.060943856912125255
15.717309812568908,-0.3019257392798185
15.750679897096656,-0.49454392003321296
15.784049981624403,-0.608274518639379
15.81742006615215,-0.6427723147858976
15.850790150679897,-0.6264004991930234
15.884160235207645,-0.6022168935656392
15.917530319735391,-0.6077669336981791
15.95090040426314,-0.6577509670589008
15.984270488790886,-0.7371449738351631
16.017640573318634,-0.8075223964801915
16.05101065784638,-0.8235334906424617
16.084380742374126,-0.7523923012272135
16.117750826901876,-0.5883917121144006
16.151120911429622,-0.35683708854835594
16.18449099595737,-0.10600165490741321
16.217861080485115,0.10993251032249078
16.251231165012864,0.25079233416145424
16.28460124954061,0.30581455084286235
16.317971334068357,0.29831651932630243
16.351341418596103,0.27692224213948996
16.384711503123853,0.2956591928199763
16.4180815876516,0.3901268604955686
16.451451672179346,0.5595468898448064
16.484821756707092,0.7631848345063891
16.51819184123484,0.9342291833561382
16.551561925762588,1.006571333638699
16.584932010290334,0.9434225280807121
16.61830209481808,0.7547500363521474
16.65167217934583,0.4947228008122591
16.685042263873576,0.23931754704735095
16.718412348401323,0.05383567661772629
16.75178243292907,-0.03458982374081691
16.78515251745682,-0.04643496040784021
16.818522601984565,-0.036822169796426295
16.85189268651231,-0.06688926739526242
16.885262771040058,-0.1738699047666886
16.918632855567807,-0.35437555500278445
16.952002940095554,-0.5679725985059727
16.9853730246233,-0.7574765062976253
17.018743109151046,-0.8744086830864146
17.052113193678796,-0.8969186056346578
17.085483278206542,-0.8330940549546855
17.11885336273429,-0.7110517753132012
17.15222344726204,-0.56347798843424
17.185593531789785,-0.4153033528384045
17.21896361631753,-0.2793588875953921
17.252333700845277,-0.1592817130616058
17.285703785373027,-0.05517686484810877
17.319073869900773,0.032613674284359975
17.35244395442852,0.10359666307933288
