Frequency (Hz),Amplitude
0.0,1.7370039122847833
0.01978021978021978,1.7361614454865735
0.03956043956043956,1.733634881607407
0.05934065934065934,1.729426729548131
0.07912087912087912,1.7235411686630502
0.0989010989010989,1.7159840455538948
0.11868131868131868,1.706762869611698
0.13846153846153844,1.6958868073374578
0.15824175824175823,1.6833666754833825
0.17802197802197803,1.669214933068097
0.1978021978021978,1.6534456723326079
0.21758241758241756,1.6360746087197175
0.23736263736263735,1.6171190699780689
0.2571428571428572,1.5965979845143448
0.2769230769230769,1.5745318691443078
0.2967032967032967,1.5509428164268102
0.31648351648351647,1.5258544818060464
0.3362637362637363,1.4992920708393664
0.35604395604395606,1.4712823268531912
0.3758241758241758,1.4418535194533504
0.3956043956043956,1.4110354344232112
0.4153846153846154,1.3788593656822898
0.4351648351648351,1.3453581101604608
0.45494505494505494,1.3105659666832619
0.4747252747252747,1.274518740285238
0.4945054945054945,1.2372537538001132
0.5142857142857143,1.198809869165334
0.5340659340659341,1.1592275216879946
0.5538461538461538,1.1185487716467097
0.5736263736263736,1.0768173791936595
0.5934065934065934,1.0340789107934647
0.6131868131868132,0.990380888730515
0.6329670329670329,0.9457730000707797
0.6527472527472528,0.9003073887372567
0.6725274725274726,0.8540390654596348
0.6923076923076923,0.8070264876471595
0.7120879120879121,0.7593323887565243
0.7318681318681318,0.711024981613828
0.7516483516483516,0.6621797353245651
0.7714285714285715,0.6128820550395051
0.7912087912087912,0.5632314247088106
0.810989010989011,0.5133479989308886
0.8307692307692308,0.4633834470080944
0.8505494505494506,0.4135394858463943
0.8703296703296702,0.3641009475059607
0.8901098901098901,0.3154976295256994
0.9098901098901099,0.2684256295887366
0.9296703296703297,0.22409424428450822
0.9494505494505494,0.18472274110637138
0.9692307692307692,0.15436557214093471
0.989010989010989,0.13920471500756001
1.0087912087912088,0.14418176233948587
1.0285714285714287,0.16749739238761732
1.0483516483516484,0.20285822830050318
1.0681318681318681,0.24500289105460682
1.087912087912088,0.29087365473901544
1.1076923076923075,0.33882095040602556
1.1274725274725275,0.38792519754788984
1.1472527472527472,0.43763922532197985
1.1670329670329669,0.4876133425055148
1.1868131868131868,0.5376080840177221
1.2065934065934065,0.5874487188652403
1.2263736263736265,0.6370003608957066
1.2461538461538462,0.6861537190638547
1.2659340659340659,0.7348165999864031
1.2857142857142858,0.7829086561429563
1.3054945054945055,0.8303580374956532
1.3252747252747252,0.8770991986241204
1.3450549450549452,0.9230714292940361
1.3648351648351649,0.9682178505567234
1.3846153846153846,1.0124847178470577
1.4043956043956045,1.055820931008589
1.4241758241758242,1.0981776865415325
1.443956043956044,1.139508229314494
1.4637362637362636,1.17976767491553
1.4835164835164834,1.218912882855044
1.5032967032967033,1.2569023668079153
1.523076923076923,1.293696232102966
1.542857142857143,1.3292561334188324
1.5626373626373626,1.3635452475552856
1.5824175824175823,1.396528257494774
1.6021978021978023,1.4281713449287436
1.621978021978022,1.458442189116923
1.6417582417582417,1.487309970454247
1.6615384615384616,1.5147453774943973
1.6813186813186813,1.540720616458013
1.7010989010989013,1.5652094224639914
1.720879120879121,1.5881870718821742
1.7406593406593405,1.6096303953285525
1.7604395604395604,1.6295177909190288
1.7802197802197801,1.6478292374719556
1.7999999999999998,1.6645463074081448
1.8197802197802198,1.679652179143537
1.8395604395604395,1.6931316488067605
1.8593406593406594,1.704971141144207
1.879120879120879,1.7151587194998021
1.8989010989010988,1.7236840947771084
1.9186813186813187,1.7305386333085302
1.9384615384615385,1.7357153635709983
1.9582417582417584,1.7392089816999987
1.978021978021978,1.741015855765201
1.9978021978021978,1.7411340287804218
2.0175824175824175,1.7395632204305307
2.0373626373626372,1.7363048275059663
2.0571428571428574,1.731361923044475
2.076923076923077,1.7247392541879036
2.096703296703297,1.7164432387705506
2.1164835164835165,1.7064819606650476
2.1362637362637362,1.6948651639213828
2.1560439560439564,1.681604245746095
2.175824175824176,1.6667122483810108
2.195604395604396,1.650203849955539
2.215384615384615,1.6320953544039258
2.2351648351648348,1.6124046805586107
2.254945054945055,1.5911513505562493
2.2747252747252746,1.56835647772249
2.2945054945054943,1.544042754139035
2.314285714285714,1.5182344381427177
2.3340659340659338,1.4909573420645919
2.353846153846154,1.4622388205910775
2.3736263736263736,1.4321077602236139
2.3934065934065933,1.4005945704358174
2.413186813186813,1.3677311772860525
2.4329670329670328,1.333551020452914
2.452747252747253,1.2980890549387045
2.4725274725274726,1.2613817590580765
2.4923076923076923,1.2234671508328336
2.512087912087912,1.1843848156025316
2.5318681318681318,1.1441759486144605
2.5516483516483515,1.1028834176916031
2.5714285714285716,1.0605518529728837
2.5912087912087913,1.0172277734471147
2.610989010989011,0.9729597639867144
2.6307692307692307,0.9277987225036575
2.6505494505494505,0.8817982057929216
2.6703296703296706,0.8350149164063533
2.6901098901098903,0.7875093945793775
2.70989010989011,0.7393470141381032
2.7296703296703297,0.6905994389512436
2.7494505494505495,0.6413467943454653
2.769230769230769,0.5916809792036464
2.7890109890109893,0.5417108546240221
2.808791208791209,0.4915706277693308
2.8285714285714287,0.44143388932681404
2.8483516483516484,0.3915380890625895
2.8681318681318677,0.3422291851994875
2.887912087912088,0.2940471099866635
2.9076923076923076,0.24789682789709677
2.9274725274725273,0.20539797956077885
2.947252747252747,0.16955208241757164
2.9670329670329667,0.1455561994851284
2.986813186813187,0.1397731909394715
3.0065934065934066,0.1542945050033027
3.0263736263736263,0.18434570513741413
3.046153846153846,0.22367190651177246
3.0659340659340657,0.26811225606886624
3.085714285714286,0.3153821208558495
3.1054945054945056,0.3642378680470179
3.1252747252747253,0.4139652792432168
3.145054945054945,0.464124486851007
3.1648351648351647,0.5144246890765708
3.184615384615385,0.5646603831142244
3.2043956043956046,0.6146773318203128
3.2241758241758243,0.6643535211905074
3.243956043956044,0.7135880349317525
3.2637362637362637,0.7622943006686722
3.2835164835164834,0.8103958504629352
3.3032967032967036,0.8578235813675599
3.3230769230769233,0.9045139406479952
3.342857142857143,0.9504076978546897
3.3626373626373627,0.9954490991542855
3.3824175824175824,1.03958527649557
3.4021978021978025,1.0827658302154117
3.4219780219780223,1.1249425318869049
3.441758241758242,1.1660691119082967
3.4615384615384617,1.2061011076855013
3.481318681318681,1.2449957556944806
3.501098901098901,1.282711915667947
3.520879120879121,1.3192100185141105
3.5406593406593405,1.3544520318933233
3.5604395604395602,1.3884014389991612
3.58021978021978,1.4210232272398624
3.5999999999999996,1.452283884340485
3.61978021978022,1.4821513999851754
3.6395604395604395,1.5105952715592048
3.659340659340659,1.5375865128766246
3.679120879120879,1.5630976650246444
3.6989010989010986,1.5871028086405625
3.718681318681319,1.609577577079076
3.7384615384615385,1.6304991700365035
3.758241758241758,1.6498463672834265
3.7780219780219784,1.6675995422234786
3.7978021978021976,1.6837406750489246
3.8175824175824173,1.6982533653051832
3.8373626373626375,1.7111228437108583
3.8571428571428568,1.7223359831066183
3.876923076923077,1.7318813084296218
3.896703296703296,1.7397490056286102
3.916483516483517,1.7459309294507788
3.936263736263736,1.750420610045333
3.956043956043956,1.7532132583404039
3.9758241758241755,1.754305770160627
3.9956043956043956,1.7536967290622938
4.015384615384615,1.7513864078723569
4.035164835164835,1.7473767689253406
4.054945054945055,1.7416714630018153
4.0747252747252745,1.7342758269798906
4.094505494505494,1.7251968802204802
4.114285714285715,1.7144433197168758
4.134065934065934,1.7020255140494422
4.153846153846154,1.6879554961985588
4.173626373626373,1.6722469552820736
4.193406593406594,1.6549152272999819
4.213186813186813,1.6359772849873098
4.232967032967033,1.6154517268994166
4.252747252747253,1.5933587658806303
4.2725274725274724,1.5697202171015165
4.292307692307692,1.5445594858914613
4.312087912087913,1.517901555645605
4.331868131868132,1.4897729761516787
4.351648351648352,1.4602018527658458
4.371428571428571,1.429217836975714
4.391208791208792,1.3968521190286076
4.410989010989011,1.363137423487299
4.43076923076923,1.3281080088177524
4.450549450549451,1.2917996724372256
4.4703296703296695,1.2542497630861338
4.49010989010989,1.215497202979582
4.50989010989011,1.175582523008996
4.52967032967033,1.1345479153982028
4.549450549450549,1.0924373098159137
4.569230769230769,1.0492964812290084
4.589010989010989,1.0051732010885113
4.608791208791209,0.9601174483088397
4.628571428571428,0.9141817037908988
4.648351648351649,0.8674213633554566
4.6681318681318675,0.8198953212495464
4.687912087912088,0.7716668038938632
4.707692307692308,0.7228045783466787
4.7274725274725276,0.6733847349038101
4.747252747252747,0.6234933723047574
4.767032967032967,0.5732307434695649
4.786813186813187,0.5227178422973491
4.806593406593407,0.47210722095660085
4.826373626373626,0.4216014407605646
4.846153846153847,0.37148591917270996
4.8659340659340655,0.32219021173611523
4.885714285714286,0.2744079096179921
4.905494505494506,0.229340067967071
4.9252747252747255,0.1891851561902491
4.945054945054945,0.15796268305533576
4.964835164835165,0.14187044985178118
4.984615384615385,0.14608024013941356
5.004395604395604,0.16908186530894884
5.024175824175824,0.20457573599438958
5.043956043956045,0.24714352072240411
5.0637362637362635,0.2936056322476842
5.083516483516483,0.3422437280503681
5.103296703296703,0.39210106318494314
5.123076923076923,0.44260961558972495
5.142857142857143,0.493407263053915
5.162637362637362,0.5442466252983547
5.182417582417583,0.5949475926011933
5.2021978021978015,0.6453713898946343
5.221978021978022,0.6954057482487481
5.241758241758242,0.7449560735816467
5.2615384615384615,0.7939399948247461
5.281318681318681,0.8422838915818154
5.301098901098901,0.8899206221583215
5.320879120879121,0.9367880023567479
5.340659340659341,0.9828277669589934
5.36043956043956,1.0279848492675414
5.380219780219781,1.0722068748783917
5.3999999999999995,1.1154438026080475
5.41978021978022,1.1576476682793084
5.43956043956044,1.1987724015271846
5.4593406593406595,1.2387736951532726
5.479120879120879,1.2776089127471684
5.498901098901099,1.3152370244557041
5.518681318681319,1.3516185636275715
5.538461538461538,1.3867155990355078
5.558241758241758,1.4204917187698831
5.578021978021979,1.4529120228884058
5.5978021978021975,1.483943122623505
5.617582417582418,1.5135531444714272
5.637362637362637,1.5417117378732847
5.6571428571428575,1.568390085486399
5.676923076923077,1.593560915260814
5.696703296703297,1.6171985137009017
5.716483516483517,1.6392787398184094
5.736263736263735,1.6597790393809806
5.756043956043956,1.6786784591367367
5.775824175824176,1.6959576607555178
5.795604395604395,1.7115989342752531
5.815384615384615,1.7255862108800297
5.835164835164835,1.7379050748678355
5.854945054945055,1.7485427746907654
5.874725274725275,1.7574882329720531
5.894505494505494,1.7647320554213783
5.914285714285715,1.7702665385852483
5.934065934065933,1.7740856763819968
5.953846153846154,1.7761851653823133
5.973626373626374,1.7765624088066307
5.993406593406593,1.7752165192199894
6.013186813186813,1.7721483199140733
6.032967032967033,1.7673603449746336
6.052747252747253,1.7608568380414054
6.072527472527473,1.7526437497764351
6.092307692307692,1.7427287340661741
6.112087912087913,1.7311211429931375
6.131868131868131,1.7178320206241209
6.151648351648352,1.702874095675113
6.171428571428572,1.6862617731278713
6.191208791208791,1.6680111248908847
6.210989010989011,1.6481398796182951
6.230769230769231,1.6266674118257662
6.2505494505494505,1.603614730473335
6.270329670329671,1.579004467223228
6.29010989010989,1.5528608646286313
6.309890109890111,1.5252097645688678
6.329670329670329,1.4960785973227362
6.349450549450549,1.4654963717687393
6.36923076923077,1.433493667326588
6.3890109890109885,1.4001026284177096
6.408791208791209,1.365356962437249
6.428571428571428,1.3292919425147753
6.4483516483516485,1.2919444167223708
6.468131868131868,1.2533528259044806
6.487912087912088,1.21355723300935
6.507692307692308,1.1725993677772502
6.527472527472527,1.1305226920061544
6.547252747252747,1.0873724925516677
6.567032967032967,1.0431960120022314
6.5868131868131865,0.9980426310344713
6.606593406593407,0.9519641224823413
6.626373626373626,0.9050150062562755
6.6461538461538465,0.8572530482570924
6.665934065934065,0.8087399684431279
6.685714285714286,0.759542458602403
6.705494505494506,0.7097336687303958
6.725274725274725,0.6593954197976666
6.745054945054945,0.6086215734358795
6.764835164835165,0.5575233011038047
6.7846153846153845,0.5062375799611836
6.804395604395605,0.4549413825830316
6.824175824175824,0.4038763453052744
6.8439560439560445,0.35339361205775455
6.863736263736263,0.30403931781388516
6.883516483516484,0.2567248811567773
6.903296703296704,0.21307351208307965
6.923076923076923,0.1760808378809807
6.942857142857143,0.15094003743328244
6.962637362637362,0.1441332624046214
6.9824175824175825,0.1580934562772295
7.002197802197802,0.18823023245413625
7.021978021978022,0.22814835881457204
7.041758241758242,0.27349332073769783
7.061538461538461,0.32185299774703446
7.081318681318681,0.3719116476617438
7.101098901098901,0.42291424517813064
7.1208791208791204,0.474396728172922
7.140659340659341,0.5260530751151663
7.16043956043956,0.5776676079711418
7.1802197802197805,0.6290788748502417
7.199999999999999,0.6801594569721487
7.21978021978022,0.7308041816118892
7.23956043956044,0.7809229730751363
7.259340659340659,0.8304363689055249
7.279120879120879,0.8792726247804986
7.298901098901099,0.9273657979029406
7.318681318681318,0.9746544509207378
7.338461538461539,1.0210807597514968
7.358241758241758,1.0665898904987239
7.3780219780219785,1.1111295594076407
7.397802197802197,1.1546497196571521
7.417582417582418,1.1971023375048473
7.437362637362638,1.2384412323051495
7.457142857142857,1.278621962774463
7.476923076923077,1.3176017471123802
7.496703296703297,1.355339408137474
7.516483516483516,1.3917953370409915
7.536263736263736,1.4269314710712306
7.556043956043957,1.4607112816713583
7.575824175824176,1.4930997704629325
7.595604395604395,1.5240634710973984
7.615384615384615,1.5535704554614618
7.635164835164835,1.5815903430654459
7.654945054945055,1.608094312701263
7.674725274725275,1.633055115651353
7.694505494505494,1.6564470898788448
7.7142857142857135,1.6782461747432584
7.734065934065935,1.6984299258756999
7.753846153846154,1.7169775299165078
7.7736263736263735,1.7338698188743162
7.793406593406592,1.74908928390862
7.813186813186814,1.7626200883741658
7.832967032967034,1.7744480799937783
7.852747252747252,1.7845608020501944
7.872527472527472,1.792947503507235
7.892307692307693,1.7995991479871318
7.912087912087912,1.8045084215454081
7.931868131868132,1.8076697391967793
7.951648351648351,1.809079250157047
7.971428571428572,1.8087348417757603
7.991208791208791,1.8066361421439856
8.010989010989011,1.8027845213704705
8.03076923076923,1.7971830915286477
8.05054945054945,1.7898367052855688
8.07032967032967,1.7807519532337885
8.09010989010989,1.7699371599569436
8.10989010989011,1.757402378871309
8.129670329670331,1.7431593858977648
8.149450549450549,1.7272216720333928
8.169230769230769,1.709604434908242
8.189010989010988,1.6903245694331022
8.20879120879121,1.669400657667645
8.22857142857143,1.6468529580673903
8.248351648351647,1.6227033943034126
8.268131868131867,1.5969755438930107
8.287912087912087,1.5696946269344267
8.307692307692308,1.5408874953087446
8.327472527472528,1.5105826228006798
8.347252747252746,1.4788100967041562
8.367032967032966,1.4456016116266048
8.386813186813187,1.410990466399071
8.406593406593407,1.37501156525484
8.426373626373627,1.3377014247789274
8.446153846153845,1.2990981885885036
8.465934065934066,1.2592416523258314
8.485714285714286,1.218173302399971
8.505494505494505,1.17593637310176
8.525274725274725,1.1325759283892372
8.545054945054945,1.0881389770280985
8.564835164835165,1.042674633227115
8.584615384615384,0.9962343399886007
8.604395604395604,0.9488721799899656
8.624175824175826,0.9006453103767987
8.643956043956043,0.851614575811198
8.663736263736263,0.8018453826286519
8.683516483516483,0.7514089632982944
8.703296703296704,0.7003842376940729
8.723076923076924,0.6488606104258293
8.742857142857142,0.5969422786927369
8.762637362637362,0.5447550565999759
8.782417582417583,0.4924575438130234
8.802197802197803,0.4402600966015024
8.821978021978023,0.38845842898787986
8.84175824175824,0.33749590490384046
8.86153846153846,0.28808444517244375
8.881318681318682,0.241447594570813
8.901098901098901,0.199804298913148
8.920879120879121,0.1671763859811047
8.940659340659339,0.14977136100227934
8.96043956043956,0.1529808567855624
8.98021978021978,0.1756944930778462
9.0,0.21167887684954861
9.01978021978022,0.25529650421859196
9.03956043956044,0.3031559079894353
9.05934065934066,0.3534042424380971
9.079120879120879,0.40500612946954406
9.098901098901099,0.45734685764901606
9.11868131868132,0.5100352894888567
9.138461538461538,0.5628050196288479
9.158241758241758,0.6154627689862617
9.178021978021977,0.6678601603102406
9.197802197802199,0.7198775765153175
9.217582417582419,0.7714145481462897
9.237362637362637,0.822383820773793
9.257142857142856,0.8727075776125365
9.276923076923078,0.9223149686762349
9.296703296703297,0.9711404567804217
9.316483516483517,1.0191226884959972
9.336263736263735,1.066203710865667
9.356043956043957,1.1123284209222397
9.375824175824176,1.1574441750630462
9.395604395604396,1.201500510132967
9.415384615384616,1.2444489437967412
9.435164835164835,1.2862428319694108
9.454945054945055,1.3268372678020324
9.474725274725275,1.3661890112438562
9.494505494505495,1.40425644129281
9.514285714285714,1.440999525191671
9.534065934065934,1.476379800336153
9.553846153846154,1.510360365737431
9.573626373626373,1.5429058806579468
9.593406593406593,1.5739825686065012
9.613186813186815,1.603558225296799
9.632967032967032,1.6316022294855854
9.652747252747252,1.6580855558413268
9.672527472527472,1.6829807891727142
9.692307692307693,1.7062621394832074
9.712087912087913,1.727905457423472
9.731868131868131,1.747888249796224
9.75164835164835,1.7661896948329945
9.771428571428572,1.782790657013858
9.791208791208792,1.7976737012424615
9.810989010989012,1.8108231062223479
9.83076923076923,1.8222248769076907
9.850549450549451,1.8318667559242963
9.87032967032967,1.8397382338757124
9.89010989010989,1.8458305584652763
9.90989010989011,1.8501367423791395
9.92967032967033,1.852651569887045
9.94945054945055,1.8533716021294233
9.96923076923077,1.8522951810688988
9.989010989010989,1.8494224320942243
10.008791208791209,1.8447552652742203
10.028571428571428,1.838297375268219
10.048351648351648,1.8300542399098065
10.068131868131868,1.8200331174904327
10.08791208791209,1.8082430427808243
10.107692307692307,1.794694821840757
10.127472527472527,1.779401025681577
10.147252747252747,1.7623759828623362
10.167032967032966,1.7436357711199229
10.186813186813188,1.7231982081560548
10.206593406593406,1.701082841732272
10.226373626373626,1.6773109392576595
10.246153846153845,1.651905477096052
10.265934065934067,1.6248911298715798
10.285714285714286,1.5962942601170862
10.305494505494504,1.5661429086930148
10.325274725274724,1.5344667865109443
10.345054945054946,1.5012972682331234
10.364835164835165,1.4666673887980555
10.384615384615385,1.4306118438568787
10.404395604395603,1.3931669955159691
10.424175824175824,1.35437088519734
10.443956043956044,1.3142632559902325
10.463736263736264,1.2728855876350682
10.483516483516484,1.2302811483411542
10.503296703296703,1.1864950691217762
10.523076923076923,1.1415744484290815
10.542857142857143,1.0955684978840907
10.562637362637362,1.0485287442872768
10.582417582417584,1.0005093095946682
