Time (s),Filtered Signal
0.0,-0.05823584205013488
0.03337000366703337,-0.043253414138945484
0.06674000733406674,-0.027864480416175355
0.1001100110011001,-0.010871414267732901
0.13348001466813347,0.010186029271845755
0.16685001833516683,0.03812726541306613
0.2002200220022002,0.07417904255070017
0.2335900256692336,0.11584704649657036
0.26696002933626695,0.15593683334650227
0.3003300330033003,0.18386223730977938
0.33370003667033366,0.18941215369952064
0.36707004033736707,0.1677126136695961
0.4004400440044004,0.12297874903828294
0.4338100476714338,0.068636329570709
0.4671800513384672,0.022837597996074564
0.5005500550055005,0.0007534405235807105
0.5339200586725339,0.0070491333139859735
0.5672900623395672,0.03240894504077712
0.6006600660066006,0.056414901683624015
0.634030069673634,0.056155158671002424
0.6674000733406673,0.017045555318314
0.7007700770077008,-0.059074307220314114
0.7341400806747341,-0.15268922544745236
0.7675100843417675,-0.2334738766542093
0.8008800880088008,-0.27281027914375133
0.8342500916758342,-0.2565080257796317
0.8676200953428675,-0.19156757640062516
0.9009900990099009,-0.10306136748467534
0.9343601026769344,-0.02172249488102864
0.9677301063439677,0.03230163300668948
1.001100110011001,0.06129737462171872
1.0344701136780343,0.09031378000405953
1.0678401173450678,0.15395312420267074
1.1012101210121013,0.2747195283803652
1.1345801246791345,0.44370217294937286
1.167950128346168,0.6151963071778209
1.2013201320132012,0.7213350735041159
1.2346901356802347,0.7026721194711946
1.268060139347268,0.5407637719487705
1.3014301430143014,0.274984692655984
1.3348001466813346,-0.008434976970481527
1.368170150348368,-0.21342615608671722
1.4015401540154016,-0.28048421504470966
1.4349101576824348,-0.21834376189923152
1.4682801613494683,-0.10230840988216247
1.5016501650165015,-0.0373802123058203
1.535020168683535,-0.10370554364514553
1.5683901723505682,-0.312826527538556
1.6017601760176017,-0.5989022905965445
1.6351301796846351,-0.8510337357489166
1.6685001833516684,-0.9706279178984635
1.7018701870187019,-0.9235962769856447
1.735240190685735,-0.7591049321284009
1.7686101943527686,-0.5838546528487863
1.8019801980198018,-0.5043634795265408
1.8353502016868353,-0.5669663545696393
1.8687202053538687,-0.727104213457957
1.902090209020902,-0.8649776570713508
1.9354602126879354,-0.8413049333058337
1.9688302163549687,-0.5666432623292229
2.002200220022002,-0.05057964942312873
2.0355702236890356,0.5936313169600008
2.0689402273560686,1.1924519785896384
2.102310231023102,1.5843641884143986
2.1356802346901356,1.688270365565802
2.169050238357169,1.5365896764416445
2.2024202420242025,1.2576521024962586
2.2357902456912355,1.0153808673829776
2.269160249358269,0.9341225185119533
2.3025302530253025,1.043225769833263
2.335900256692336,1.266166979194359
2.369270260359369,1.4575227144190954
2.4026402640264024,1.468719566876703
2.436010267693436,1.2113755313643397
2.4693802713604693,0.6907204245408115
2.502750275027503,-0.0018360772540883003
2.536120278694536,-0.7279148486561582
2.5694902823615693,-1.3512970583609896
2.6028602860286028,-1.7753350332650506
2.636230289695636,-1.9580865939027527
2.6696002933626692,-1.9083074684487218
2.7029702970297027,-1.6730541665372314
2.736340300696736,-1.3257892018334758
2.7697103043637696,-0.9562001804306495
2.803080308030803,-0.6568396579805346
2.836450311697836,-0.5025240000182407
2.8698203153648696,-0.5256364219897196
2.903190319031903,-0.6982255250454513
2.9365603226989365,-0.9333662509651006
2.96993032636597,-1.1109877966659365
3.003300330033003,-1.1207454937328674
3.0366703337000365,-0.9040865941622089
3.07004033736707,-0.4762552877112932
3.1034103410341034,0.08183541997261762
3.1367803447011364,0.6571052090003052
3.17015034836817,1.1464129679526962
3.2035203520352034,1.4879717331966238
3.236890355702237,1.6704164900838336
3.2702603593692703,1.7203294863163603
3.3036303630363033,1.6788363006018452
3.3370003667033368,1.5803302556201755
3.3703703703703702,1.4418723733997891
3.4037403740374037,1.2645238333133677
3.4371103777044367,1.0423035913379406
3.47048038137147,0.7727200303261156
3.5038503850385037,0.4641877267827903
3.537220388705537,0.1381152668657313
3.5705903923725706,-0.17445791306526173
3.6039603960396036,-0.44041976188086296
3.637330399706637,-0.6341036761842298
3.6707004033736705,-0.7457978963384335
3.704070407040704,-0.7860847198238207
3.7374404107077375,-0.7836224291590652
3.7708104143747705,-0.7758570225626478
3.804180418041804,-0.7947909902511698
3.8375504217088374,-0.8525607193895164
3.870920425375871,-0.9330089157464041
3.904290429042904,-0.9944178774261668
3.9376604327099374,-0.9845531046936266
3.971030436376971,-0.8632816822061081
4.004400440044004,-0.6231215470807505
4.037770443711038,-0.2973200953194887
4.071140447378071,0.05014692308581528
4.104510451045105,0.3496233356317813
4.137880454712137,0.5546405709885176
4.171250458379171,0.660304738482469
4.204620462046204,0.7012555343945531
4.237990465713238,0.729368661144154
4.271360469380271,0.7822129423234941
4.304730473047305,0.8589638646874749
4.338100476714338,0.9174848446025685
4.3714704803813715,0.8955402039953602
4.404840484048405,0.7458984793696162
4.438210487715438,0.46661802513188305
4.471580491382471,0.10929068631980708
4.5049504950495045,-0.24061307535874119
4.538320498716538,-0.5018150443405814
4.571690502383571,-0.6336535135092672
4.605060506050605,-0.6513510066591683
4.638430509717638,-0.6122329348717107
4.671800513384672,-0.5810285326496625
4.705170517051705,-0.5935895675691942
4.738540520718738,-0.6385195877518461
4.771910524385771,-0.6656425054953105
4.805280528052805,-0.615331919886809
4.838650531719838,-0.4519482869076439
4.872020535386872,-0.18368998231854997
4.905390539053905,0.14006183736924083
4.938760542720939,0.44994656979108977
4.972130546387972,0.6831097801586254
5.005500550055006,0.8010914530317985
5.038870553722038,0.7928273285860541
5.072240557389072,0.6666506794974711
5.105610561056105,0.441032739619151
5.138980564723139,0.1417897350913442
5.172350568390172,-0.19420415994650886
5.2057205720572055,-0.5158886622628611
5.239090575724239,-0.7634332093525708
5.272460579391272,-0.8838772595899762
5.305830583058306,-0.8499738895672952
5.3392005867253385,-0.6709557164098646
5.372570590392372,-0.38784607402257093
5.405940594059405,-0.05554763194213163
5.439310597726439,0.27764816035009576
5.472680601393472,0.5813722126687132
5.506050605060506,0.8404302818449785
5.539420608727539,1.0429336868311267
5.572790612394573,1.170093225729219
5.606160616061606,1.196524777092699
5.63953061972864,1.1018476349950952
5.672900623395672,0.8858359898978149
5.706270627062706,0.5762043641814556
5.739640630729739,0.22241871521977552
5.773010634396773,-0.12210675882053842
5.806380638063806,-0.4193577955858791
5.83975064173084,-0.6561810880075126
5.873120645397873,-0.8383793132195
5.9064906490649065,-0.9735795779781042
5.93986065273194,-1.0544086904839742
5.9732306563989725,-1.0540826626025528
6.006600660066006,-0.9395736476801732
6.0399706637330395,-0.6966938991297996
6.073340667400073,-0.35285732978626844
6.106710671067106,0.017733897326259768
6.14008067473414,0.31377799191063077
6.173450678401173,0.4455143514132855
6.206820682068207,0.3749792563830167
6.24019068573524,0.13754323396165738
6.273560689402273,-0.16786755080888804
6.306930693069306,-0.41749922475504253
6.34030069673634,-0.5134954688019105
6.373670700403373,-0.4231572515803183
6.407040704070407,-0.18846814450424407
6.44041070773744,0.09795801861237202
6.473780711404474,0.3380349500429483
6.507150715071507,0.4721105973332415
6.540520718738541,0.5007051728342806
6.573890722405573,0.47490611230231977
6.607260726072607,0.462088919429519
6.64063072973964,0.5055624215034515
6.6740007334066735,0.5990205609173445
6.707370737073707,0.6885721485369644
6.7407407407407405,0.7009539874870907
6.774110744407774,0.583400943536423
6.807480748074807,0.3348966588236655
6.840850751741841,0.01280015964384462
6.8742207554088735,-0.28907510472410974
6.907590759075907,-0.48089871609015633
6.94096076274294,-0.5167065989100864
6.974330766409974,-0.41487790318155243
7.007700770077007,-0.24961751656293024
7.041070773744041,-0.11756762696239137
7.074440777411074,-0.09518929898444682
7.107810781078108,-0.20646251036908297
7.141180784745141,-0.41510132635752206
7.174550788412174,-0.643659615841419
7.207920792079207,-0.8094171364749242
7.241290795746241,-0.8597537544310629
7.274660799413274,-0.7910263248129721
7.308030803080308,-0.6436506774261006
7.341400806747341,-0.4775424594691974
7.3747708104143745,-0.3407276164490163
7.408140814081408,-0.24607490167460833
7.4415108177484415,-0.16634720556767915
7.474880821415475,-0.048843667367784754
7.5082508250825075,0.15785840160478148
7.541620828749541,0.47724941596380127
7.5749908324165744,0.8894353575158233
7.608360836083608,1.3323626116009706
7.641730839750641,1.7182387545160207
7.675100843417675,1.9586492658854615
7.708470847084708,1.9901950728184572
7.741840850751742,1.7934123348078679
7.775210854418775,1.3997965469029108
7.808580858085808,0.8843169710841766
7.841950861752841,0.34431024756587436
7.875320865419875,-0.12978100951789995
7.908690869086908,-0.48214511342626293
7.942060872753942,-0.7068952403031196
7.975430876420975,-0.8436326436674156
8.008800880088009,-0.953918760454328
8.042170883755041,-1.088258828158475
8.075540887422076,-1.2586959682795709
8.108910891089108,-1.4307157881751427
8.142280894756142,-1.5395942973033778
8.175650898423175,-1.5241968798245213
8.20902090209021,-1.3616682278692662
8.242390905757242,-1.0848963969680832
8.275760909424275,-0.7726011105077887
8.309130913091309,-0.5156950387371326
8.342500916758341,-0.3760674260974857
8.375870920425376,-0.3584188629927083
8.409240924092408,-0.4095926368533814
8.442610927759443,-0.4459301633984419
8.475980931426475,-0.39461865694833026
8.50935093509351,-0.22750047208243634
8.542720938760542,0.030319710756326126
8.576090942427575,0.3210864143252245
8.60946094609461,0.591856601414285
8.642830949761642,0.8264048532614837
8.676200953428676,1.0516693520246083
8.709570957095709,1.313388470282693
8.742940960762743,1.6344660910017383
8.776310964429776,1.9816977981758481
8.80968096809681,2.2637213563356595
8.843050971763843,2.3658887432484756
8.876420975430875,2.2057335367184234
8.90979097909791,1.7790319058206057
8.943160982764942,1.1698424060688457
8.976530986431976,0.5170071674302562
9.009900990099009,-0.04639543970425088
9.043270993766043,-0.4490915908164853
9.076640997433076,-0.704134339026861
9.11001100110011,-0.8874344436726201
9.143381004767143,-1.085607808545255
9.176751008434175,-1.342145378491624
9.21012101210121,-1.6303995662608652
9.243491015768242,-1.8664172910015842
9.276861019435277,-1.9533473276780084
9.31023102310231,-1.8333614157026155
9.343601026769344,-1.5203185634920848
9.376971030436376,-1.0972223324791819
9.41034103410341,-0.6806853886136274
9.443711037770443,-0.37078620877811785
9.477081041437476,-0.21102854757417092
9.51045104510451,-0.17690306790449611
9.543821048771543,-0.1963851352103063
9.577191052438577,-0.1895584935521572
9.61056105610561,-0.10578296709818456
9.643931059772644,0.060142086629091665
9.677301063439677,0.27843573210627043
9.710671067106711,0.511564634051275
9.744041070773743,0.7392424441515456
9.777411074440776,0.9646972421348308
9.81078107810781,1.1984341976186903
9.844151081774843,1.431073551608324
9.877521085441877,1.6153163479802068
9.91089108910891,1.6729705519046179
9.944261092775944,1.5280603472211851
9.977631096442977,1.149992575969853
10.011001100110011,0.5821244616138135
10.044371103777044,-0.06312153646328564
10.077741107444076,-0.6437668038796994
10.11111111111111,-1.04399807504859
10.144481114778143,-1.2177925014416329
10.177851118445178,-1.1981129509071509
10.21122112211221,-1.0681236524258857
10.244591125779245,-0.9117830805392688
10.277961129446277,-0.7720839557864744
10.311331133113312,-0.6397349601049193
10.344701136780344,-0.47643290221075363
10.378071140447377,-0.2560939772046432
10.411441144114411,0.00315876060993934
10.444811147781444,0.2375371808821932
10.478181151448478,0.3691047191739396
10.51155115511551,0.3522423322009927
10.544921158782545,0.2071755051984192
10.578291162449577,0.01929631808140693
10.611661166116612,-0.09777625717544375
10.645031169783644,-0.05686750184608235
10.678401173450677,0.15903022619338095
10.711771177117711,0.48680426276688715
10.745141180784744,0.8116688948108556
10.778511184451778,1.0186054108974893
10.81188118811881,1.0405452514950573
10.845251191785845,0.8807257161637959
10.878621195452878,0.6017653677525888
10.911991199119912,0.2913606406525455
10.945361202786945,0.024467232552513415
10.978731206453979,-0.16007468165272046
11.012101210121012,-0.2614829009818407
11.045471213788044,-0.30297212484730474
11.078841217455079,-0.3137161455217063
11.112211221122111,-0.3170777917799212
11.145581224789145,-0.3281657068381057
11.178951228456178,-0.356904156614081
11.212321232123212,-0.41053918080929336
11.245691235790245,-0.492170638796661
11.27906123945728,-0.5964487704887034
11.312431243124312,-0.7064552768834721
11.345801246791344,-0.7954726188875588
11.379171250458379,-0.8346457281861637
11.412541254125411,-0.8042166600864165
11.445911257792446,-0.7035239913105861
11.479281261459478,-0.5543254937446123
11.512651265126513,-0.39396715498471424
11.546021268793545,-0.2594070126522053
11.57939127246058,-0.16842293216185839
11.612761276127612,-0.10750220704493112
11.646131279794645,-0.03438311080787113
11.67950128346168,0.1031857343846887
11.712871287128712,0.3394342611418572
11.746241290795746,0.6664876224084298
11.779611294462779,1.027455094333714
11.812981298129813,1.332849878422499
11.846351301796846,1.4950643329127455
11.87972130546388,1.4655064830164959
11.913091309130913,1.2560176824084246
11.946461312797945,0.9329826244109519
11.97983131646498,0.5864401408455245
12.013201320132012,0.29019226969379075
12.046571323799046,0.07423085099451329
12.079941327466079,-0.07614885161263146
12.113311331133113,-0.19595602450449648
12.146681334800146,-0.3075227013013427
12.18005133846718,-0.40080106589805925
12.213421342134213,-0.44025402853969664
12.246791345801245,-0.39436362888554094
12.28016134946828,-0.26848578570115755
12.313531353135312,-0.11823206340222957
12.346901356802347,-0.03135200361024401
12.38027136046938,-0.0849849031956215
12.413641364136414,-0.3009059506437309
12.447011367803446,-0.6245242711296395
12.48038137147048,-0.9417004168302671
12.513751375137513,-1.1272444045792824
12.547121378804546,-1.1014804763926205
12.58049138247158,-0.8663717523231078
12.613861386138613,-0.5031963388451135
12.647231389805647,-0.1337701979154984
12.68060139347268,0.13440315785880128
12.713971397139714,0.25176640813681267
12.747341400806746,0.239448093811537
12.78071140447378,0.1684833838595692
12.814081408140813,0.11957629999415334
12.847451411807846,0.1450766989851411
12.88082141547488,0.25052008644558754
12.914191419141913,0.4007627453204707
12.947561422808947,0.5431255760093648
12.98093142647598,0.6335567197090123
13.014301430143014,0.653501394173352
13.047671433810047,0.6120997043607096
13.081041437477081,0.5358118546937646
13.114411441144114,0.45218426502305187
13.147781444811146,0.3754251477895706
13.18115144847818,0.29973607491520426
13.214521452145213,0.2031438329241278
13.247891455812248,0.06061706380761146
13.28126145947928,-0.13874330098794074
13.314631463146315,-0.37834022949591484
13.348001466813347,-0.6121412194676572
13.381371470480381,-0.7776078629821752
13.414741474147414,-0.8200368642522557
13.448111477814447,-0.7183229266073993
13.481481481481481,-0.4997107032619658
13.514851485148514,-0.234827204497166
13.548221488815548,-0.013006004621070726
13.58159149248258,0.0925134387793098
13.614961496149615,0.05445445719205647
13.648331499816647,-0.09698115932928073
13.681701503483682,-0.2862407587197309
13.715071507150714,-0.4227971284127366
13.748441510817747,-0.4363428354786402
13.781811514484781,-0.30178095359856605
13.815181518151814,-0.04438689870787137
13.848551521818848,0.2749555908876297
13.88192152548588,0.5856387356075311
13.915291529152915,0.8315683420601057
13.948661532819948,0.9836926367012987
13.982031536486982,1.0383026237429156
14.015401540154015,1.0064589824321368
14.048771543821047,0.9034775814239209
14.082141547488082,0.7448440466334395
14.115511551155114,0.5484846872732908
14.148881554822148,0.33786530056492764
14.182251558489181,0.13993378254503488
14.215621562156215,-0.02332577810493948
14.248991565823248,-0.14476143364722477
14.282361569490282,-0.23566512648996005
14.315731573157315,-0.31864883673549627
14.349101576824348,-0.4124905368916739
14.382471580491382,-0.5178441975795888
14.415841584158414,-0.6133751814971921
14.449211587825449,-0.6661582693402034
14.482581591492481,-0.6515086869371883
14.515951595159516,-0.571279395726458
14.549321598826548,-0.4599182996099656
14.582691602493583,-0.3740158994835945
14.616061606160615,-0.3696927846749021
14.649431609827648,-0.4780098643613213
14.682801613494682,-0.688898112845122
14.716171617161715,-0.949721041281722
14.749541620828749,-1.1786092949264988
14.782911624495782,-1.2880113548344152
14.816281628162816,-1.2114834241050731
14.849651631829849,-0.926059621396843
14.883021635496883,-0.4630691151492543
14.916391639163916,0.09755892208624115
14.94976164283095,0.6498665093603042
14.983131646497982,1.0951662505647786
15.016501650165015,1.3741202970061064
15.04987165383205,1.484211844716578
15.083241657499082,1.4742834427667997
15.116611661166116,1.4179257889283043
15.149981664833149,1.3777772013447365
15.183351668500183,1.377543089090921
15.216721672167216,1.3947489646495965
15.25009167583425,1.3766231290006312
15.283461679501283,1.2697468765162685
15.316831683168315,1.047634507465238
15.35020168683535,0.7226601368006507
15.383571690502382,0.3381782511063811
15.416941694169417,-0.05237883176284646
15.45031169783645,-0.4065852836480452
15.483681701503484,-0.7034186578305878
15.517051705170516,-0.9400959337373871
15.55042170883755,-1.1208694045573218
15.583791712504583,-1.246830719689958
15.617161716171616,-1.313005524176868
15.65053171983865,-1.3128497699672015
15.683901723505683,-1.2453251286082656
15.717271727172717,-1.1190481081653425
15.75064173083975,-0.9512019127975595
15.784011734506784,-0.7630011478735323
15.817381738173816,-0.5753754536766854
15.85075174184085,-0.407157524893595
15.884121745507883,-0.275037155428573
15.917491749174916,-0.1926527532911533
15.95086175284195,-0.1670537826149962
15.984231756508983,-0.19356029769145403
16.017601760176017,-0.25231864591967107
16.05097176384305,-0.30968292725403135
16.084341767510082,-0.3251227853562349
16.117711771177117,-0.26160582162773693
16.15108177484415,-0.09617673740234065
16.184451778511182,0.17203453831816196
16.217821782178216,0.5181504430601666
16.25119178584525,0.8936092156271884
16.284561789512285,1.2351138542018176
16.317931793179316,1.4801354513746734
16.35130179684635,1.5853417244528245
16.384671800513384,1.5409329238096598
16.41804180418042,1.3734754403355784
16.45141180784745,1.1342370612519503
16.484781811514484,0.8776194191097699
16.51815181518152,0.6404108039306837
16.55152181884855,0.43268206125676706
16.584891822515583,0.2443404305862199
16.618261826182618,0.06167737838448474
16.651631829849652,-0.11783112040335869
16.685001833516683,-0.282411411569782
16.718371837183717,-0.4160172760194192
16.75174184085075,-0.5136962419913358
16.785111844517782,-0.5908524990090409
16.818481848184817,-0.6791518096724334
16.85185185185185,-0.8106091198748233
16.885221855518886,-0.998784432980749
16.918591859185916,-1.2275342498488566
16.95196186285295,-1.45318156129301
16.985331866519985,-1.6186585906887163
17.01870187018702,-1.672464974726176
17.05207187385405,-1.583883040292329
17.085441877521085,-1.3488637170650868
17.11881188118812,-0.9862231004817273
17.15218188485515,-0.5283226976793362
17.185551888522184,-0.012028275004969504
17.21892189218922,0.5259454654267021
17.252291895856253,1.0487411983368746
17.285661899523284,1.5167078210557534
17.319031903190318,1.8861328658547802
17.352401906857352,2.1120639339101834
17.385771910524387,2.1557200725263836
