Frequency (Hz),Amplitude
0.0,0.035045880945514085
0.019823788546255508,0.06806105974493828
0.039647577092511016,0.1217840934895298
0.059471365638766524,0.17828562427101272
0.07929515418502203,0.2354349936281615
0.09911894273127755,0.2926963058176095
0.11894273127753305,0.3498467529602818
0.13876651982378857,0.4067577204653532
0.15859030837004406,0.4633369414081252
0.17841409691629956,0.5195087380899368
0.1982378854625551,0.575206033452001
0.2180616740088106,0.6303667150521147
0.2378854625550661,0.6849318317770343
0.25770925110132165,0.7388446422677444
0.27753303964757714,0.7920500910882269
0.29735682819383263,0.8444945135776403
0.31718061674008813,0.896125469388977
0.3370044052863437,0.9468916515722002
0.3568281938325991,0.9967428415786123
0.37665198237885467,1.0456298929802494
0.3964757709251102,1.0935047335445611
0.41629955947136565,1.1403203792253533
0.4361233480176212,1.1860309559515356
0.4559471365638767,1.2305917265109962
0.4757709251101322,1.2739591207120564
0.49559471365638774,1.3160907675735622
0.5154185022026433,1.3569455286661798
0.5352422907488987,1.3964835319765185
0.5550660792951543,1.4346662058345307
0.5748898678414097,1.4714563125621145
0.5947136563876653,1.5068179815829348
0.6145374449339208,1.5407167417928223
0.6343612334801763,1.5731195530323514
0.6541850220264318,1.6039948365351104
0.6740088105726874,1.6333125042485264
0.6938325991189428,1.6610439869418465
0.7136563876651982,1.687162261030006
0.7334801762114539,1.711641874052468
0.7533039647577093,1.7344589687551608
0.7731277533039648,1.7555913057303325
0.7929515418502204,1.7750182845749656
0.8127753303964759,1.7927209635334809
0.8325991189427313,1.8086820775943728
0.8524229074889869,1.8228860550141923
0.8722466960352424,1.8353190322456252
0.8920704845814978,1.8459688672492383
0.9118942731277534,1.8548251511713238
0.931718061674009,1.8618792183726682
0.9515418502202644,1.8671241547956183
0.9713656387665199,1.8705548046590783
0.9911894273127755,1.8721677754732489
1.0110132158590308,1.8719614413681194
1.0308370044052866,1.8699359447319495
1.0506607929515421,1.866093196157976
1.0704845814977975,1.8604368726997822
1.090308370044053,1.8529724144378557
1.1101321585903086,1.8437070193620124
1.1299559471365639,1.83264963657669
1.1497797356828194,1.8198109578381372
1.1696035242290752,1.8052034074351107
1.1894273127753305,1.788841130427069
1.209251101321586,1.7707399792564305
1.2290748898678416,1.7509174987543177
1.248898678414097,1.7293929095622962
1.2687224669603525,1.7061870899959022
1.288546255506608,1.6813225563797232
1.3083700440528636,1.6548234418879018
1.3281938325991192,1.6267154739293175
1.3480176211453747,1.5970259501223782
1.36784140969163,1.565783712911863
1.3876651982378856,1.5330191228889156
1.4074889867841411,1.4987640308867032
1.4273127753303965,1.4630517489379347
1.4471365638766522,1.4259170201990756
1.4669603524229078,1.387395987969428
1.4867841409691631,1.3475261639651661
1.5066079295154187,1.306346396050699
1.5264317180616742,1.2638968356879567
1.5462555066079295,1.2202189054446022
1.5660792951541853,1.1753552670154082
1.5859030837004409,1.129349790372678
1.6057268722466962,1.0822475248962824
1.6255506607929517,1.034094673680254
1.6453744493392073,0.9849385727341468
1.6651982378854626,0.9348276775971421
1.6850220264317182,0.8838115611381396
1.7048458149779737,0.8319409283327283
1.7246696035242293,0.7792676571412658
1.7444933920704848,0.7258448802871882
1.7643171806167404,0.6717271327349548
1.7841409691629957,0.6169706079877108
1.8039647577092512,0.5616336014367345
1.8237885462555068,0.50577728990362
1.8436123348017623,0.4494671488695733
1.863436123348018,0.3927756615243678
1.8832599118942732,0.33578786808186634
1.9030837004405288,0.27861384880385087
1.9229074889867843,0.22142065316641593
1.9427312775330399,0.16453042940891183
1.9625550660792954,0.10882022003776669
1.982378854625551,0.05833013297507981
2.002202643171806,0.042262879491815904
2.0220264317180616,0.08367061593369131
2.041850220264317,0.13793991976924264
2.061674008810573,0.19447566757942916
2.0814977973568287,0.25161330120507486
2.1013215859030843,0.3088611245069096
2.1211453744493394,0.36599908577227
2.140969162995595,0.4228962229275898
2.1607929515418505,0.47945782183271524
2.180616740088106,0.5356063102961105
2.2004405286343616,0.5912732233287759
2.220264317180617,0.6463954375707596
2.2400881057268722,0.7009132599075414
2.2599118942731278,0.7547693986647535
2.2797356828193833,0.8079083866174532
2.299559471365639,0.8602762493808754
2.319383259911895,0.91182031372541
2.3392070484581504,0.962489098979491
2.3590308370044055,1.0122322594586404
2.378854625550661,1.0610005591076372
2.3986784140969166,1.1087458669282866
2.418502202643172,1.1554211660363511
2.4383259911894277,1.2009805717403412
2.4581497797356833,1.2453793556013197
2.4779735682819384,1.2885739734199815
2.497797356828194,1.3305220957337536
2.5176211453744495,1.371182639825918
2.537444933920705,1.4105158025304787
2.5572687224669606,1.448483093308607
2.577092511013216,1.4850473672065254
2.5969162995594717,1.5201728573987419
2.6167400881057272,1.5538252070886076
2.6365638766519828,1.585971500586976
2.6563876651982383,1.6165802934262057
2.676211453744494,1.645621641393928
2.6960352422907494,1.673067128391461
2.715859030837005,1.6988898930376894
2.73568281938326,1.7230646539517083
2.7555066079295156,1.7455677336572608
2.775330396475771,1.7663770810601376
2.7951541850220267,1.785472292456068
2.8149779735682823,1.8028346310324277
2.834801762114538,1.8184470448314054
2.854625550660793,1.8322941831467858
2.874449339207049,1.8443624113296322
2.8942731277533045,1.854639823981923
2.91409691629956,1.863116256519736
2.9339207048458156,1.8697832950906286
2.953744493392071,1.8746342848323398
2.9735682819383262,1.8776643364625998
2.993392070484582,1.8788703311919888
3.0132158590308373,1.878250923954561
3.033039647577093,1.8758065449528731
3.0528634361233484,1.8715393995167593
3.072687224669604,1.8654534662774265
3.092511013215859,1.8575544936606967
3.1123348017621146,1.847849994706184
3.1321585903083706,1.8363492402212271
3.151982378854626,1.8230632502815207
3.1718061674008817,1.8080047840931515
3.1916299559471373,1.7911883282338954
3.2114537444933924,1.7726300832950832
3.231277533039648,1.752347948949138
3.2511013215859035,1.7303615074722334
3.270925110132159,1.7066920057563526
3.2907488986784146,1.681362335850893
3.31057268722467,1.6543970140807045
3.3303964757709252,1.6258221587955346
3.350220264317181,1.5956654668158927
3.3700440528634363,1.5639561886526738
3.389867841409692,1.5307251025933764
3.4096916299559474,1.4960044877673206
3.4295154185022034,1.4598280963280328
3.4493392070484585,1.4222311249239399
3.469162995594714,1.3832501856727117
3.4889867841409696,1.3429232769136272
3.508810572687225,1.301289754092507
3.5286343612334807,1.2583903012440243
3.5484581497797363,1.2142669036899796
3.5682819383259914,1.168962822789513
3.588105726872247,1.1225225738893445
3.6079295154185025,1.074991909076979
3.627753303964758,1.0264178070151069
3.6475770925110136,0.9768484731556005
3.667400881057269,0.9263333552053942
3.6872246696035247,0.8749231811991712
3.7070484581497802,0.822670031547955
3.726872246696036,0.769627463104813
3.7466960352422913,0.7158507147279599
3.7665198237885464,0.6613970441314212
3.7863436123348024,0.6063262833450548
3.8061674008810575,0.5507017727305704
3.8259911894273135,0.4945919817919034
3.8458149779735686,0.4380734476749296
3.8656387665198246,0.3812364200210741
3.8854625550660797,0.3241965552855688
3.905286343612335,0.26712167493759637
3.925110132158591,0.21030177706267295
3.9449339207048464,0.15437013532046875
3.964757709251102,0.10122232888988743
3.9845814977973575,0.05941314275404049
4.004405286343612,0.06091777022315756
4.024229074889869,0.103881092749823
4.044052863436123,0.1573092461941143
4.06387665198238,0.21336440277356727
4.083700440528634,0.2702737629424412
4.103524229074891,0.32743350965165896
4.123348017621146,0.38456314770062305
4.143171806167401,0.44149854420138046
4.162995594713657,0.4981256260074388
4.182819383259912,0.5543548321685446
4.2026431718061685,0.6101098823985408
4.222466960352423,0.6653223315184872
4.242290748898679,0.719928725207571
4.262114537444934,0.7738690273059516
4.28193832599119,0.8270857120085592
4.301762114537445,0.8795232235326125
4.321585903083701,0.9311276484828982
4.3414096916299565,0.9818465162095793
4.361233480176212,1.0316286787576288
4.381057268722468,1.0804242416976748
4.400881057268723,1.1281845282390404
4.420704845814979,1.1748620655183601
4.440528634361234,1.2204105858687273
4.46035242290749,1.2647850382971417
4.4801762114537445,1.3079416069357226
4.500000000000001,1.3498377342298569
4.5198237885462555,1.3904321472877985
4.539647577092512,1.4296848862619254
4.559471365638767,1.4675573339378365
4.579295154185023,1.504012245921161
4.599118942731278,1.5390137809626907
4.618942731277533,1.572527531071037
4.63876651982379,1.6045205511408382
4.658590308370044,1.6349613878827316
4.678414096916301,1.6638201078844994
4.6982378854625555,1.6910683246659353
4.718061674008811,1.716679224614816
4.737885462555067,1.7406275917110345
4.757709251101322,1.7628898309611734
4.777533039647578,1.7834439904781545
4.797356828193833,1.8022697821503877
4.817180616740089,1.8193486008530737
4.837004405286344,1.8346635421610287
4.856828193832599,1.848199418528415
4.876651982378855,1.8599427739054575
4.896475770925111,1.8698818967668844
4.9162995594713665,1.8780068315308014
4.936123348017622,1.8843093883501116
4.955947136563877,1.8887831512622726
4.975770925110133,1.891423484686119
4.995594713656388,1.8922275382576785
5.015418502202644,1.8911942499998236
5.035242290748899,1.8883243478238
5.055066079295155,1.8836203493632182
5.07488986784141,1.8770865601446833
5.094713656387666,1.868729070102119
5.114537444933921,1.8585557484451876
5.134361233480177,1.8465762368959513
5.154185022026432,1.8328019413117123
5.174008810572688,1.8172460217163025
5.193832599118943,1.7999233807667763
5.213656387665199,1.7808506506881852
5.2334801762114544,1.760046178715022
5.25330396475771,1.7375300110856227
5.2731277533039655,1.7133238756443205
5.292951541850221,1.6874511631166151
5.312775330396477,1.6599369071355712
5.332599118942731,1.6308077631131572
5.352422907488988,1.6000919860700176
5.372246696035242,1.5678194075620144
5.392070484581499,1.5340214118733655
5.4118942731277535,1.498730911687335
5.43171806167401,1.461982323498652
5.451541850220265,1.4238115431023193
5.47136563876652,1.38425592158745
5.491189427312777,1.3433542423917288
5.511013215859031,1.3011467001448838
5.530837004405288,1.2576748822693449
5.550660792951542,1.212981754640907
5.570484581497798,1.1671116530880443
5.5903083700440535,1.1201102831933665
5.610132158590309,1.0720247318633704
5.6299559471365646,1.0229034956248264
5.64977973568282,0.9727965328698946
5.669603524229076,0.921755350776059
5.689427312775331,0.8698331431756395
5.709251101321586,0.8170850046565986
5.729074889867842,0.7635682612103306
5.748898678414098,0.7093429836314037
5.768722466960353,0.6544727960545502
5.788546255506609,0.5990261777681778
5.808370044052864,0.5430786232068393
5.82819383259912,0.4867163672037205
5.848017621145375,0.4300431304203662
5.867841409691631,0.3731931018953374
5.887665198237886,0.3163579223920212
5.907488986784142,0.2598485486882852
5.927312775330397,0.20425630491784644
5.9471365638766525,0.15094693770937484
5.966960352422908,0.1038854712471027
5.986784140969164,0.07611331824935848
6.00660792951542,0.08838508824963871
6.026431718061675,0.12978753056904305
6.04625550660793,0.1812765129802028
6.066079295154186,0.23622699148634377
6.085903083700441,0.29255098483849806
6.105726872246697,0.34942588195958396
6.125550660792952,0.4064513709045201
6.145374449339208,0.4633957730191652
6.1651982378854635,0.5201047342090178
6.185022026431718,0.5764633399761817
6.204845814977975,0.6323785805405021
6.224669603524229,0.6877705140244084
6.244493392070486,0.7425675035572858
6.264317180616741,0.7967035089850182
6.284140969162996,0.8501164798051217
6.303964757709252,0.9027473691160315
6.323788546255507,0.9545395131556011
6.3436123348017635,1.0054382341020804
6.363436123348018,1.0553905835808215
6.3832599118942746,1.1043451772818258
6.403083700440529,1.1522520899594952
6.422907488986785,1.1990627912455558
6.44273127753304,1.2447301095018355
6.462555066079296,1.2892082151877704
6.482378854625551,1.332452617936285
6.502202643171807,1.3744201733089
6.5220264317180625,1.41506909638567
6.541850220264318,1.4543589801492562
6.561674008810574,1.4922508171769113
6.581497797356829,1.5287070235421618
6.601321585903085,1.563691464103899
6.62114537444934,1.5971694785585595
6.640969162995596,1.6291079077762347
6.6607929515418505,1.6594751200475195
6.680616740088107,1.6882410369481216
6.700440528634362,1.715377158587638
6.720264317180618,1.7408565880553162
6.740088105726873,1.7646540549104457
6.759911894273129,1.7867459375930064
6.779735682819384,1.8071102846516467
6.799559471365639,1.8257268347037792
6.819383259911895,1.842577035056383
6.83920704845815,1.8576440589280416
6.859030837004407,1.870912821221896
6.8788546255506615,1.8823699928079713
6.898678414096917,1.8920040132797487
6.918502202643173,1.8998051021566247
6.938325991189428,1.9057652685089215
6.958149779735684,1.909878318987495
6.977973568281939,1.9121398642445182
6.997797356828195,1.912547323736632
7.01762114537445,1.9110999289058368
7.037444933920705,1.9077987247380332
7.0572687224669615,1.9026465697033788
7.077092511013216,1.895648134087311
7.096916299559473,1.8868098967258462
7.116740088105728,1.8761401401640658
7.136563876651983,1.8636489442622888
7.156387665198239,1.849348178281119
7.176211453744494,1.833251491483438
7.19603524229075,1.815374302300217
7.215859030837005,1.7957337861164673
7.235682819383261,1.7743488617455476
7.255506607929516,1.7512401766737533
7.275330396475772,1.7264300911741435
7.295154185022027,1.699942661409303
7.314977973568283,1.6718036216682006
7.334801762114538,1.642040365914823
7.354625550660794,1.6106819288665328
7.374449339207049,1.577758966872253
7.394273127753305,1.5433037389271245
7.4140969162995605,1.507350088247394
7.433920704845816,1.4699334249431129
7.453744493392072,1.4310907104778063
7.473568281938327,1.3908604448063906
7.493392070484583,1.3492826573573824
7.513215859030838,1.3063989034009484
7.533039647577093,1.2622522678642598
7.552863436123348,1.2168873793865271
7.572687224669605,1.1703504384434216
7.59251101321586,1.122689264869358
7.612334801762115,1.0739533723012393
7.6321585903083715,1.0241940803404803
7.651982378854627,0.973464680200433
7.671806167400882,0.9218206773087816
7.691629955947137,0.8693201465404964
7.711453744493394,0.8160242555799678
7.731277533039649,0.7619980450006594
7.751101321585904,0.7073116105955946
7.7709251101321595,0.6520419349162099
7.790748898678416,0.5962758027657413
7.81057268722467,0.5401145987785764
7.830396475770926,0.48368252482175134
7.850220264317182,0.42714137032421806
7.870044052863436,0.3707186480999253
7.889867841409693,0.3147650686787786
7.909691629955948,0.2598821376697405
7.929515418502204,0.2072334967857894
7.9493392070484585,0.15937220042747713
7.969162995594715,0.12236907193359295
7.9889867841409705,0.1082418901158706
8.008810572687224,0.12507812856238473
8.02863436123348,0.16355324733769588
8.048458149779737,0.21211925751712396
8.068281938325994,0.2651686588423543
8.088105726872246,0.32033856157332063
8.107929515418503,0.37653970158469274
8.12775330396476,0.4332022484046761
8.147577092511014,0.48999026215321245
8.167400881057269,0.5466836168533916
8.187224669603525,0.6031243735372768
8.207048458149782,0.6591903436784999
8.226872246696036,0.7147811302033972
8.246696035242293,0.7698103242607532
8.266519823788547,0.8242009315684935
8.286343612334802,0.8778825841960815
8.306167400881058,0.9307897846519398
8.325991189427315,0.9828607703452517
8.345814977973568,1.034036763580929
8.365638766519824,1.0842614682554093
8.38546255506608,1.133480728506294
8.405286343612337,1.181642296090077
8.42511013215859,1.2286956721966067
8.444933920704846,1.2745920010943999
8.464757709251103,1.319284000391821
8.484581497797357,1.3627259174770507
8.504405286343614,1.4048735048520522
8.524229074889869,1.4456840091936767
8.544052863436125,1.4851161704221034
8.56387665198238,1.523130228061462
8.583700440528636,1.5596879328844924
8.60352422907489,1.5947525623379235
8.623348017621145,1.6282889386100072
8.643171806167402,1.6602634484680021
8.662995594713658,1.6906440641911271
8.682819383259913,1.7194003650713132
8.702643171806168,1.7465035590658815
8.722466960352424,1.771926504270776
8.74229074889868,1.7956437299488102
8.762114537444935,1.8176314568977106
8.78193832599119,1.8378676169835115
8.801762114537446,1.8563318716958184
8.821585903083701,1.8730056296076523
8.841409691629957,1.8878720626429633
8.861233480176212,1.9009161210721526
8.881057268722468,1.9121245471700714
8.900881057268723,1.921485887483286
8.92070484581498,1.9289905036637287
8.940528634361234,1.9346305818350689
8.960352422907489,1.9384001404665114
8.980176211453745,1.9402950367363803
9.000000000000002,1.9403129713750757
9.019823788546258,1.9384534919840535
9.039647577092511,1.9347179948344138
9.059471365638768,1.9291097251560132
9.079295154185024,1.921633775935377
9.099118942731279,1.9122970852489993
9.118942731277533,1.9011084321672684
9.13876651982379,1.888078431274468
9.158590308370046,1.873219525861499
9.1784140969163,1.856545979861234
9.198237885462555,1.8380738686118467
9.218061674008812,1.8178210685518734
9.237885462555067,1.7958072459728545
9.257709251101323,1.7720538449825138
9.27753303964758,1.7465840748641783
9.297356828193834,1.7194228970595131
9.317180616740089,1.6905970120524236
9.337004405286345,1.66013484649701
9.356828193832602,1.6280665410141164
9.376651982378855,1.59442393918657
9.396475770925111,1.5592405784192032
9.416299559471367,1.522551683507135
9.436123348017622,1.4843941639895506
9.455947136563877,1.444806616676236
9.475770925110133,1.4038293351503055
9.49559471365639,1.3615043286142312
9.515418502202644,1.3178753532181968
9.5352422907489,1.2729879600797336
9.555066079295155,1.2268895657032153
9.57488986784141,1.179629552640011
9.594713656387666,1.1312594113017438
9.614537444933923,1.081832938334518
9.634361233480178,1.0314065136486386
9.654185022026432,0.9800394883240854
9.674008810572689,0.927794731246209
9.693832599118945,0.8747394069849851
9.713656387665198,0.8209460972379481
9.733480176211454,0.7664944440845772
9.75330396475771,0.7114736056084122
9.773127753303967,0.6559860118057941
9.792951541850222,0.6001532676356605
9.812775330396477,0.5441257279326877
9.832599118942733,0.4880986027131671
9.852422907488988,0.43234019263764256
9.872246696035244,0.3772437377799821
9.892070484581499,0.32342744680627805
9.911894273127754,0.27193652006911706
9.93171806167401,0.22465978274046092
9.951541850220266,0.18512659957876196
9.971365638766521,0.15943552896120852
9.991189427312776,0.1547827715942736
10.011013215859032,0.1729145176419037
10.030837004405289,0.20791735081334686
10.050660792951543,0.25279308244592236
10.070484581497798,0.3030694263338728
10.090308370044054,0.3563271329976451
10.11013215859031,0.4112535250283604
10.129955947136565,0.4670933717201006
10.14977973568282,0.5233796648221385
10.169603524229077,0.5798020776450666
10.189427312775331,0.6361400802598007
10.209251101321588,0.6922272159289459
10.229074889867842,0.7479310850145403
10.248898678414099,0.8031416321906155
10.268722466960353,0.8577640249726922
10.28854625550661,0.9117141770503702
10.308370044052865,0.9649158520121804
10.32819383259912,1.017298742772254
10.348017621145376,1.0687971711412347
10.367841409691632,1.1193491918927099
10.387665198237887,1.168895966829289
10.407488986784141,1.2173813228238435
10.427312775330398,1.2647514375427185
10.447136563876654,1.3109546152401226
10.466960352422909,1.355941127013552
10.486784140969164,1.3996630977761053
10.50660792951542,1.4420744274527113
10.526431718061675,1.4831307374736393
10.546255506607931,1.5227893360985834
10.566079295154186,1.5610091978262717
10.585903083700442,1.5977509533661567
10.605726872246697,1.6329768875260553
