Frequency (Hz),Amplitude
0.0,0.44222868778946844
0.019867549668874173,0.4449259947632692
0.039735099337748346,0.45291108742551145
0.059602649006622516,0.4658817091968976
0.07947019867549669,0.48338794302645827
0.09933774834437085,0.5048931309948346
0.11920529801324503,0.5298312365568841
0.13907284768211922,0.557650378626484
0.15894039735099338,0.5878398785027606
0.17880794701986755,0.6199431966491432
0.1986754966887417,0.6535609955829984
0.2185430463576159,0.6883483524966318
0.23841059602649006,0.7240091124412152
0.2582781456953642,0.760289286313855
0.27814569536423844,0.7969705582536163
0.2980132450331126,0.8338644137362922
0.31788079470198677,0.8708070733345671
0.33774834437086093,0.9076552430995801
0.3576158940397351,0.9442826107126031
0.3774834437086093,0.9805769862614565
0.3973509933774834,1.0164379827490055
0.4172185430463576,1.0517751399499096
0.4370860927152318,1.0865064082973683
0.45695364238410596,1.1205569232301396
0.4768211920529801,1.1538580130992202
0.49668874172185434,1.1863463946706394
0.5165562913907285,1.217963519363623
0.5364238410596026,1.2486550407757064
0.5562913907284769,1.2783703800024036
0.5761589403973509,1.3070623700078523
0.5960264900662252,1.3346869640725167
0.6158940397350993,1.3612029963304366
0.6357615894039735,1.3865719847744389
0.6556291390728477,1.410757968983201
0.6754966887417219,1.4337273763142535
0.695364238410596,1.4554489114936089
0.7152317880794702,1.4758934654802656
0.7350993377483444,1.49503404024381
0.7549668874172186,1.5128456867041133
0.7748344370860927,1.5293054535761663
0.7947019867549668,1.5443923452632276
0.8145695364238411,1.5580872872682365
0.8344370860927152,1.5703730978606703
0.8543046357615894,1.5812344649567611
0.8741721854304636,1.5906579273536277
0.8940397350993378,1.5986318596110665
0.9139072847682119,1.6051464600030807
0.9337748344370861,1.6101937410718548
0.9536423841059603,1.6137675224108388
0.9735099337748344,1.6158634253875193
0.9933774834437087,1.6164788695898342
1.0132450331125828,1.6156130708484637
1.033112582781457,1.6132670407499576
1.0529801324503312,1.6094435876164315
1.0728476821192052,1.6041473189877475
1.0927152317880795,1.5973846457026701
1.1125827814569538,1.5891637877397902
1.1324503311258278,1.5794947820474985
1.1523178807947019,1.5683894926680775
1.1721854304635762,1.5558616235462484
1.1920529801324504,1.5419267345098078
1.2119205298013245,1.5266022610235404
1.2317880794701985,1.509907538450585
1.2516556291390728,1.4918638317138155
1.271523178807947,1.4724943714397734
1.2913907284768211,1.4518243978961296
1.3112582781456954,1.4298812143124304
1.3311258278145695,1.4066942515136167
1.3509933774834437,1.3822951462131574
1.370860927152318,1.3567178358278928
1.390728476821192,1.3299986733147282
1.410596026490066,1.302176566323394
1.4304635761589404,1.2732931459509342
1.4503311258278146,1.243392971625684
1.4701986754966887,1.212523780209408
1.4900662251655628,1.1807367893722964
1.5099337748344372,1.1480870677765376
1.5298013245033113,1.1146339877364924
1.5496688741721854,1.080441779978411
1.5695364238410596,1.0455802151016074
1.5894039735099337,1.0101254425843964
1.609271523178808,0.9741610259308869
1.6291390728476822,0.9377792220499337
1.6490066225165563,0.9010825643091278
1.6688741721854303,0.864185821742767
1.6887417218543048,0.8272184208066706
1.7086092715231789,0.7903274287961852
1.728476821192053,0.7536812051264113
1.7483443708609272,0.7174738193873516
1.7682119205298013,0.6819302973951924
1.7880794701986755,0.6473126606593055
1.8079470198675496,0.6139265262677908
1.8278145695364238,0.5821276689561665
1.847682119205298,0.5523273391125617
1.8675496688741722,0.5249942297997127
1.8874172185430464,0.5006498665951963
1.9072847682119205,0.4798532331312309
1.9271523178807946,0.4631705192992156
1.9470198675496688,0.4511283009863338
1.9668874172185429,0.44415416122671936
1.9867549668874174,0.44251659772042173
2.0066225165562916,0.44628165896762484
2.0264900662251657,0.4553016305280434
2.0463576158940397,0.4692401002530654
2.066225165562914,0.4876239812652641
2.086092715231788,0.5099051938937496
2.1059602649006623,0.5355161020562798
2.1258278145695364,0.5639099581736123
2.1456953642384105,0.5945849539505268
2.165562913907285,0.6270948742988545
2.185430463576159,0.6610506959785458
2.205298013245033,0.6961170037882445
2.2251655629139075,0.7320060017817801
2.2450331125827816,0.7684708402306645
2.2649006622516556,0.805299193994012
2.2847682119205297,0.8423075235535085
2.3046357615894038,0.8793361586498836
2.324503311258278,0.9162451926187798
2.3443708609271523,0.9529111066197091
2.364238410596027,0.9892240196279238
2.384105960264901,1.0250854597674706
2.403973509933775,1.0604065625687964
2.423841059602649,1.0951066152654003
2.443708609271523,1.129111879956854
2.463576158940397,1.162354640881488
2.4834437086092715,1.194772431659848
2.5033112582781456,1.2263074071543252
2.52317880794702,1.2569058317193231
2.543046357615894,1.2865176613305431
2.562913907284768,1.3150962016330048
2.5827814569536423,1.342597827555699
2.6026490066225163,1.3689817529998873
2.622516556291391,1.3942098413715929
2.642384105960265,1.4182464495244056
2.662251655629139,1.441058299105439
2.6821192052980134,1.4626143704333057
2.7019867549668874,1.4828858149462
2.7218543046357615,1.5018458829857553
2.741721854304636,1.5194698642693114
2.76158940397351,1.5357350388771216
2.781456953642384,1.5506206369660587
2.801324503311258,1.5641078057351474
2.821192052980132,1.5761795824263545
2.8410596026490067,1.5868208723560604
2.8609271523178808,1.596018431149613
2.8807947019867552,1.6037608504989636
2.9006622516556293,1.6100385468883027
2.9205298013245033,1.614843752839255
2.9403973509933774,1.6181705103195845
2.9602649006622515,1.6200146660404031
2.9801324503311255,1.620373868439722
3.0,1.6192475662167887
3.0198675496688745,1.6166370083441872
3.0397350993377485,1.6125452455451412
3.0596026490066226,1.6069771332836333
3.0794701986754967,1.5999393363762717
3.0993377483443707,1.591440335399771
3.119205298013245,1.5814904351379822
3.1390728476821192,1.5701017753897584
3.1589403973509933,1.5572883445466865
3.1788079470198674,1.5430659964501328
3.198675496688742,1.5274524711542492
3.218543046357616,1.5104674203597332
3.23841059602649,1.4921324384474828
3.2582781456953644,1.4724711002387523
3.2781456953642385,1.4515090068470322
3.2980132450331126,1.4292738412772779
3.3178807947019866,1.4057954357833184
3.3377483443708607,1.3811058534310376
3.3576158940397347,1.3552394868544015
3.3774834437086096,1.3282331778607697
3.3973509933774837,1.300126362375412
3.4172185430463577,1.2709612462571604
3.437086092715232,1.2407830188239675
3.456953642384106,1.2096401125709706
3.47682119205298,1.1775845196361425
3.4966887417218544,1.1446721781859064
3.5165562913907285,1.110963445200441
3.5364238410596025,1.0765236763155668
3.556291390728477,1.0414239386386206
3.576158940397351,1.0057418890481225
3.596026490066225,0.9695628586677044
3.615894039735099,0.9329811942033638
3.6357615894039736,0.8961019187376629
3.6556291390728477,0.8590427881411087
3.6754966887417218,0.821936833514137
3.695364238410596,0.7849354926005568
3.7152317880794703,0.7482124387990284
3.7350993377483444,0.7119682053049424
3.754966887417219,0.6764356559269107
3.774834437086093,0.6418862422274093
3.794701986754967,0.6086367596804811
3.814569536423841,0.5770559042569042
3.834437086092715,0.5475692576449116
3.854304635761589,0.5206603557466184
3.8741721854304636,0.49686433744082437
3.8940397350993377,0.47674979757726854
3.9139072847682117,0.4608848850236962
3.9337748344370858,0.44978676516344457
3.9536423841059607,0.4438600078732133
3.9735099337748347,0.44333747625991404
3.993377483443709,0.44824184816861434
4.013245033112583,0.458381771674179
4.033112582781457,0.47338413202131824
4.052980132450331,0.4927504356464643
4.072847682119205,0.5159192138384909
4.0927152317880795,0.542319478609449
4.112582781456953,0.5714080620463304
4.132450331125828,0.6026906799015558
4.152317880794702,0.6357303102612961
4.172185430463576,0.6701473207656126
4.19205298013245,0.7056150669011653
4.211920529801325,0.7418535318939403
4.231788079470199,0.7786225517703345
4.251655629139073,0.815715436422995
4.271523178807947,0.8529533397827517
4.291390728476821,0.8901804743684231
4.311258278145695,0.9272601350258388
4.33112582781457,0.9640714403588102
4.3509933774834435,1.0005066839630188
4.370860927152318,1.036469190823838
4.390728476821192,1.0718715858644912
4.410596026490066,1.106634395753065
4.43046357615894,1.140684918860037
4.450331125827815,1.1739563105083448
4.470198675496689,1.206386841020822
4.490066225165563,1.2379192925868094
4.509933774834438,1.2685004678502234
4.529801324503311,1.2980807886219334
4.549668874172186,1.3266139674897917
4.569536423841059,1.3540567385621918
4.589403973509934,1.3803686363215433
4.6092715231788075,1.405511813732747
4.629139072847682,1.4294508924726137
4.649006622516556,1.4521528395124799
4.66887417218543,1.473586865375671
4.688741721854305,1.4937243402620561
4.708609271523179,1.5125387249308357
4.728476821192054,1.530005513795108
4.748344370860927,1.5461021881370363
4.768211920529802,1.560808177722413
4.788079470198675,1.5741048293951494
4.80794701986755,1.5859753814805617
4.827814569536423,1.5964049430306502
4.847682119205298,1.6053804771153484
4.867549668874172,1.612890787506424
4.887417218543046,1.6189265082215496
4.9072847682119205,1.6234800954997364
4.927152317880794,1.6265458218691387
4.947019867549669,1.628119772047583
4.966887417218543,1.628199840487552
4.986754966887418,1.6267857304429987
5.006622516556291,1.6238789544977228
5.026490066225166,1.6194828365548526
5.04635761589404,1.613602515347895
5.066225165562914,1.6062449495956037
5.086092715231788,1.5974189249889261
5.105960264900662,1.5871350632698027
5.125827814569536,1.5754058337414596
5.14569536423841,1.5622455676398408
5.1655629139072845,1.547670475900147
5.185430463576159,1.53169867097398
5.205298013245033,1.5143501934963486
5.225165562913908,1.4956470447734163
5.245033112582782,1.4756132262683195
5.264900662251656,1.4542747875119637
5.28476821192053,1.431659884170809
5.304635761589404,1.4077988483766024
5.324503311258278,1.3827242738826406
5.344370860927152,1.3564711191797856
5.364238410596027,1.329076832411973
5.3841059602649,1.3005815028117034
5.403973509933775,1.271028044479336
5.4238410596026485,1.2404624197151521
5.443708609271523,1.2089339108583517
5.463576158940397,1.1764954517905424
5.483443708609272,1.1432040330474171
5.503311258278146,1.109121198008225
5.52317880794702,1.0743136520899188
5.543046357615895,1.0388540124923722
5.562913907284768,1.0028217330853348
5.582781456953643,0.9663042477709599
5.602649006622516,0.929398386326604
5.622516556291391,0.892212129403193
5.642384105960264,0.8548667836995832
5.662251655629139,0.8174996731886149
5.682119205298013,0.7802674548112202
5.701986754966887,0.7433501713551004
5.7218543046357615,0.7069561388441156
5.741721854304636,0.671327709934574
5.7615894039735105,0.6367478232736733
5.781456953642384,0.6035469863026836
5.801324503311259,0.5721098696379626
5.821192052980132,0.5428799350581955
5.841059602649007,0.5163594527317141
5.860927152317881,0.4931010581506234
5.880794701986755,0.4736862426971563
5.900662251655629,0.4586870295947872
5.920529801324503,0.4486109868886018
5.940397350993377,0.4438370458949843
5.960264900662251,0.4445577170536132
5.980132450331126,0.4507464692946591
6.0,0.4621625152431641
6.0198675496688745,0.47839112304590786
6.039735099337749,0.49890467620339257
6.059602649006623,0.5231257097867069
6.079470198675497,0.5504781322377165
6.099337748344371,0.5804212073490453
6.119205298013245,0.6124674392177607
6.139072847682119,0.6461885431266329
6.158940397350993,0.6812140105708375
6.178807947019867,0.7172258262786337
6.198675496688741,0.7539516919227488
6.218543046357616,0.7911581176556116
6.23841059602649,0.8286440640090695
6.258278145695365,0.8662354065506159
6.2781456953642385,0.903780271922362
6.298013245033113,0.9411451852540765
6.317880794701987,0.978211925604222
6.337748344370861,1.0148749769341434
6.357615894039735,1.051039469156786
6.377483443708609,1.086619517233317
6.397350993377484,1.1215368811384694
6.417218543046357,1.1557198834658553
6.437086092715232,1.1891025335945022
6.456953642384105,1.221623817491617
6.47682119205298,1.2532271205055159
6.496688741721854,1.283859757155098
6.516556291390729,1.313472587220303
6.5364238410596025,1.3420197016375046
6.556291390728477,1.3694581650240851
6.5761589403973515,1.395747804281208
6.596026490066225,1.4208510347997112
6.6158940397351,1.4447327174398368
6.635761589403973,1.4673600407622804
6.655629139072848,1.488702424029908
6.675496688741721,1.5087314373319924
6.695364238410596,1.5274207358514762
6.715231788079469,1.5447460058340667
6.735099337748344,1.560684920253877
6.754966887417219,1.5752171025246442
6.774834437086093,1.5883240968952528
6.794701986754967,1.5999893444060724
6.814569536423841,1.6101981634795834
6.8344370860927155,1.6189377343826525
6.854304635761589,1.6261970869353943
6.874172185430464,1.631967090958551
6.894039735099337,1.6362404490514861
6.913907284768212,1.6390116913802506
6.933774834437086,1.6402771722326435
6.95364238410596,1.6400350681671068
6.973509933774834,1.6382853776471797
6.993377483443709,1.6350299221147955
7.013245033112583,1.6302723485159025
7.033112582781457,1.6240181333529295
7.052980132450331,1.6162745884011158
7.072847682119205,1.607050868293502
7.0927152317880795,1.5963579802522625
7.112582781456954,1.5842087963267801
7.132450331125828,1.5706180685920055
7.152317880794702,1.5556024478692307
7.172185430463576,1.5391805066581479
7.19205298013245,1.5213727671199444
7.211920529801324,1.5022017351309134
7.231788079470198,1.4816919416434156
7.251655629139073,1.4598699928547143
7.271523178807947,1.436764631005778
7.291390728476822,1.4124068080278092
7.311258278145695,1.386829774741455
7.33112582781457,1.3600691889184755
7.3509933774834435,1.3321632462676865
7.370860927152318,1.303152839347597
7.390728476821192,1.27308175058757
7.410596026490066,1.2419968870839302
7.430463576158941,1.2099485667115624
7.450331125827814,1.1769908674624805
7.470198675496689,1.1431820549280527
7.490066225165562,1.1085851066515966
7.509933774834438,1.0732683569053991
7.52980132450331,1.037306291543243
7.549668874172186,1.0007805302353978
7.569536423841059,0.9637810429054758
7.589403973509934,0.9264076588028327
7.6092715231788075,0.8887719404167993
7.629139072847682,0.8509995099622069
7.649006622516557,0.8132329320474312
7.66887417218543,0.775635269035964
7.6887417218543055,0.7383944285516134
7.708609271523178,0.7017284020994519
7.728476821192054,0.6658914255542744
7.748344370860927,0.6311809351642946
7.768211920529802,0.5979448830231571
7.788079470198675,0.5665884282686281
7.80794701986755,0.5375781513950185
7.827814569536423,0.5114407467008941
7.847682119205298,0.4887518820668607
7.8675496688741715,0.4701103295253261
7.887417218543046,0.4560939443769191
7.907284768211921,0.44719907523132546
7.927152317880795,0.44377339166032237
7.9470198675496695,0.4459601912132837
7.966887417218543,0.4536734282863395
7.986754966887418,0.4666131564478384
8.006622516556291,0.48431528897436926
8.026490066225167,0.5062177801248786
8.046357615894038,0.5317240150855679
8.066225165562914,0.5602512235199727
8.086092715231787,0.5912605443167311
8.105960264900663,0.6242713091046507
8.125827814569536,0.6588643255815604
8.14569536423841,0.6946787087873204
8.165562913907285,0.7314056168433046
8.185430463576159,0.7687810029262362
8.205298013245034,0.8065785445283881
8.225165562913906,0.8446032933053071
8.245033112582782,0.882686230508659
8.264900662251655,0.9206797259218581
8.28476821192053,0.9584538130127357
8.304635761589404,0.9958931636427203
8.324503311258278,1.0328946443784972
8.344370860927151,1.0693653476518608
8.364238410596027,1.1052210064819776
8.3841059602649,1.1403847171851391
8.403973509933774,1.174785908693577
8.42384105960265,1.208359509199951
8.443708609271523,1.2410452708105562
8.463576158940398,1.2727872209406246
8.483443708609272,1.3035332156120643
8.503311258278146,1.3332345749076122
8.52317880794702,1.3618457848594996
8.543046357615895,1.389324253224124
8.562913907284768,1.415630109099065
8.582781456953642,1.4407260383161908
8.602649006622515,1.4645771481119008
8.62251655629139,1.4871508558186397
8.642384105960264,1.5084167973129192
8.66225165562914,1.5283467517470233
8.682119205298013,1.5469145797270802
8.701986754966887,1.564096172612752
8.721854304635762,1.5798694110285116
8.741721854304636,1.5942141310138056
8.76158940397351,1.6071120965155516
8.781456953642383,1.6185469771531136
8.801324503311259,1.6285043303743023
8.821192052980132,1.6369715872772612
8.841059602649008,1.6439380415054023
8.86092715231788,1.64939484073468
8.880794701986755,1.6533349803690063
8.90066225165563,1.6557532991444783
8.920529801324504,1.6566464764179833
8.940397350993377,1.6560130309843455
8.960264900662251,1.6538533213301196
8.980132450331126,1.6501695472929565
9.0,1.644965753156017
9.019867549668875,1.6382478322678724
9.039735099337747,1.630023533342628
9.059602649006623,1.620302468663458
9.079470198675496,1.609096124488916
9.099337748344372,1.5964178740460924
9.119205298013245,1.5822829935927292
9.139072847682119,1.566708682143432
9.158940397350994,1.5497140855889948
9.178807947019868,1.5313203260963226
9.198675496688743,1.5115505378675325
9.218543046357615,1.4904299105669103
9.23841059602649,1.467985742005321
9.258278145695364,1.4442475020151764
9.27814569536424,1.419246909872045
9.298013245033111,1.3930180281420865
9.317880794701987,1.3655973764850966
9.33774834437086,1.3370240697539888
9.357615894039736,1.307339985749382
9.37748344370861,1.2765899692667881
9.397350993377483,1.2448220806896597
9.417218543046358,1.212087899426307
9.437086092715232,1.178442895084502
9.456953642384107,1.1439468825780046
9.47682119205298,1.1086645815577378
9.496688741721854,1.0726663058978219
9.516556291390728,1.0360288157308746
9.536423841059603,0.9988363730480396
9.556291390728477,0.9611820524988753
9.57615894039735,0.9231693720239156
9.596026490066224,0.8849143233841807
9.6158940397351,0.8465479000219616
9.635761589403973,0.8082192373181376
9.655629139072847,0.770099494175816
9.675496688741722,0.7323866065194334
9.695364238410596,0.6953110164326782
9.715231788079471,0.659142395722826
9.735099337748345,0.6241971898236515
9.754966887417218,0.590846430624811
9.774834437086092,0.5595226052553309
9.794701986754967,0.5307233341470546
9.814569536423841,0.5050082374302042
9.834437086092716,0.4829840270940236
9.854304635761588,0.46527256091735075
9.874172185430464,0.4524590169428811
9.894039735099337,0.4450239542676243
9.913907284768213,0.4432728192770024
9.933774834437086,0.44728407025669464
9.95364238410596,0.4568951360574733
9.973509933774835,0.4717318566139319
9.993377483443709,0.4912697124311617
10.013245033112582,0.5149054697077641
10.033112582781456,0.54202014360234
10.052980132450331,0.5720234658690733
10.072847682119205,0.6043790289127186
10.09271523178808,0.6386142611789649
10.112582781456952,0.6743205895307613
10.132450331125828,0.7111482971073432
10.152317880794701,0.748799158401267
10.172185430463577,0.7870186690113503
10.192052980132452,0.8255887993072112
10.211920529801324,0.8643216577104395
10.2317880794702,0.9030541509908112
10.251655629139073,0.9416435832918595
10.271523178807948,0.9799640764801407
10.29139072847682,1.017903680467261
10.311258278145695,1.0553620495143057
10.331125827814569,1.092248576314619
10.350993377483444,1.1284808933700146
10.370860927152318,1.1639836678477036
10.390728476821192,1.198687630583885
10.410596026490065,1.2325287919422376
10.43046357615894,1.2654478070014419
10.450331125827816,1.2973894603485763
10.470198675496688,1.328302246933584
10.490066225165563,1.3581380303095696
10.509933774834437,1.386851763412516
10.529801324503312,1.4144012600450933
10.549668874172186,1.4407470075981696
10.56953642384106,1.4658520134124795
10.589403973509933,1.4896816786602385
10.609271523178808,1.5122036947983206
10.629139072847682,1.5333879585779469
10.649006622516556,1.5532065023410526
10.66887417218543,1.5716334369319305
10.688741721854305,1.588644905035201
