Time (s),Filtered Signal
0.0,0.010891271989849054
0.033370165745856356,0.1219182403134963
0.06674033149171271,0.20430793010639905
0.10011049723756907,0.23918477906087943
0.13348066298342542,0.22318595944797914
0.16685082872928178,0.167466574609092
0.20022099447513814,0.09127180047336089
0.2335911602209945,0.013620578535027465
0.26696132596685085,-0.0529660870089841
0.30033149171270723,-0.10428268442875699
0.33370165745856356,-0.14186763981679304
0.3670718232044199,-0.16828552350754808
0.4004419889502763,-0.18334477646663683
0.43381215469613266,-0.1834290355413308
0.467182320441989,-0.16400954274157242
0.5005524861878453,-0.1233865637495089
0.5339226519337017,-0.06505412364326381
0.5672928176795581,0.0028543421752658706
0.6006629834254145,0.07063193996493941
0.6340331491712707,0.13069626215910296
0.6674033149171271,0.17991928887566042
0.7007734806629835,0.21963713842174945
0.7341436464088398,0.25366806972128714
0.7675138121546962,0.2853468314795964
0.8008839779005525,0.3145740159303381
0.8342541436464089,0.3357128469973
0.8676243093922653,0.33726273155743824
0.9009944751381216,0.3043327385097587
0.934364640883978,0.22430460843955152
0.9677348066298344,0.09439133377776344
1.0011049723756906,-0.07221390159092617
1.0344751381215471,-0.2457363465068912
1.0678453038674034,-0.387324314584121
1.1012154696132597,-0.4633538535645796
1.1345856353591162,-0.46087417656180873
1.1679558011049724,-0.3963417753383851
1.201325966850829,-0.3116730349934286
1.2346961325966852,-0.2573543294135861
1.2680662983425415,-0.2692232552147573
1.301436464088398,-0.3497865073579483
1.3348066298342542,-0.4638270102362862
1.3681767955801105,-0.5516267820739506
1.401546961325967,-0.5544467713186516
1.4349171270718233,-0.44048853786765907
1.4682872928176796,-0.21897158302605807
1.501657458563536,0.06423984498062198
1.5350276243093923,0.34673471489592267
1.5683977900552488,0.5748207271179617
1.601767955801105,0.7213499976328355
1.6351381215469614,0.7883550025194934
1.6685082872928179,0.7955932967815067
1.7018784530386741,0.76363822553417
1.7352486187845306,0.7020143824358652
1.768618784530387,0.6083974867975741
1.8019889502762432,0.4773768374031131
1.8353591160220997,0.3115923259746431
1.868729281767956,0.12743611327916846
1.9020994475138122,-0.04830499573797701
1.9354696132596687,-0.18863963737520378
1.968839779005525,-0.2773455621012799
2.0022099447513813,-0.3147973215637995
2.0355801104972375,-0.316077016245125
2.0689502762430942,-0.3030088925143658
2.1023204419889505,-0.29447854570243404
2.135690607734807,-0.2995682916418972
2.169060773480663,-0.3160758831650413
2.2024309392265193,-0.3341791304074407
2.235801104972376,-0.34276255276193
2.2691712707182323,-0.33513954998325957
2.3025414364640886,-0.31170767096750407
2.335911602209945,-0.2788627022141452
2.369281767955801,-0.24530269777697203
2.402651933701658,-0.21783528705138155
2.436022099447514,-0.19863022725111523
2.4693922651933704,-0.1848165239233837
2.5027624309392267,-0.17008249538469195
2.536132596685083,-0.14713911469282717
2.5695027624309392,-0.10980919875693093
2.602872928176796,-0.053944005928563264
2.636243093922652,0.0229780811010169
2.6696132596685085,0.12306195847225898
2.7029834254143648,0.24894789603697134
2.736353591160221,0.4031569279630697
2.7697237569060777,0.5848376804110996
2.803093922651934,0.7842035968742572
2.8364640883977903,0.976900218264952
2.8698342541436466,1.1221314596694174
2.903204419889503,1.1682048850391675
2.936574585635359,1.066464009180066
2.969944751381216,0.790140722581617
3.003314917127072,0.3507838065605825
3.0366850828729284,-0.1958255763545611
3.0700552486187846,-0.7588902031511834
3.103425414364641,-1.2352608969221701
3.1367955801104976,-1.537899376155121
3.170165745856354,-1.6198891227293484
3.20353591160221,-1.4856166299538094
3.2369060773480665,-1.1859005650219665
3.2702762430939227,-0.7997937431398972
3.3036464088397794,-0.4101527872352048
3.3370165745856357,-0.08149696345055538
3.370386740331492,0.1530313801010181
3.4037569060773483,0.29281164310937513
3.4371270718232045,0.36089944598210866
3.4704972375690613,0.3904764334224025
3.5038674033149175,0.41248399545681147
3.537237569060774,0.44817721240912045
3.57060773480663,0.5070462232924948
3.6039779005524863,0.5882116495850565
3.6373480662983426,0.6830331224516911
3.6707182320441993,0.7776813854478222
3.7040883977900556,0.8554647059972715
3.737458563535912,0.8989938595348583
3.770828729281768,0.8921075005871923
3.8041988950276244,0.8215487900379683
3.837569060773481,0.678812455631249
3.8709392265193374,0.46275203803698545
3.9043093922651937,0.18283218046482114
3.93767955801105,-0.13843689810966017
3.9710497237569062,-0.4662165799291202
4.0044198895027625,-0.7588347324741963
4.037790055248619,-0.9773808099466337
4.071160220994475,-1.0961405352244775
4.104530386740332,-1.1095204642815877
4.1379005524861885,-1.0324211598226223
4.171270718232044,-0.8940527192769869
4.204640883977901,-0.7281681657820481
4.238011049723757,-0.5639506667263302
4.271381215469614,-0.42080694142736574
4.30475138121547,-0.3078938281408698
4.338121546961326,-0.22682649724707266
4.371491712707183,-0.1749355959744668
4.404861878453039,-0.14701807365721561
4.438232044198895,-0.13515445488345584
4.471602209944752,-0.12773513653333174
4.504972375690608,-0.10945405564188733
4.538342541436465,-0.06349907252743746
4.5717127071823205,0.02403851925688021
4.605082872928177,0.15873048245102492
4.638453038674034,0.3333150986007914
4.67182320441989,0.5262131005789847
4.7051933701657465,0.7045138388051251
4.738563535911602,0.831552422416263
4.771933701657459,0.8774165962189583
4.805303867403316,0.8291451512871308
4.8386740331491715,0.6968298753523311
4.872044198895028,0.5128215399510782
4.905414364640884,0.32355952607667504
4.938784530386741,0.1762857659749416
4.972154696132597,0.1049131373104595
5.005524861878453,0.11977266274944681
5.03889502762431,0.20471148394522742
5.072265193370166,0.32255823710656073
5.105635359116023,0.4272013396589073
5.1390055248618784,0.47836462801404656
5.172375690607735,0.45428790083385434
5.205745856353592,0.3581756743025903
5.239116022099448,0.21625517037529923
5.272486187845304,0.0680010853915871
5.30585635359116,-0.04826783018587301
5.339226519337017,-0.10949034726555955
5.372596685082874,-0.11659138488403746
5.4059668508287295,-0.09440135734819599
5.439337016574586,-0.08230008664483666
5.472707182320442,-0.11847399019154937
5.506077348066299,-0.2233179636634054
5.5394475138121555,-0.3885485990194856
5.572817679558011,-0.5774768912064795
5.606187845303868,-0.7384830137939993
5.639558011049724,-0.8285482091618573
5.672928176795581,-0.8382209539179886
5.706298342541437,-0.8060960851739395
5.739668508287293,-0.8123478347311663
5.77303867403315,-0.9481713129976191
5.806408839779006,-1.2693298829327915
5.839779005524862,-1.7525552580644979
5.873149171270718,-2.277302429565949
5.906519337016575,-2.6483514695889054
5.939889502762432,-2.6580050088030234
5.9732596685082875,-2.166940380094824
6.006629834254144,-1.1701058502655703
6.04,0.1835752555030109
6.073370165745857,1.630516994066387
6.1067403314917135,2.877057262066791
6.140110497237569,3.694267874833352
6.173480662983426,3.9834325680952474
6.206850828729282,3.7875258399742386
6.240220994475139,3.2501237680975943
6.273591160220995,2.546461994897517
6.306961325966851,1.8202909791254567
6.340331491712708,1.1519087565476056
6.373701657458564,0.5636415652591148
6.40707182320442,0.05008282569912313
6.440441988950277,-0.3891129079056726
6.473812154696133,-0.7329361981118759
6.50718232044199,-0.9459591507639318
6.5405524861878455,-1.0012140971915402
6.573922651933702,-0.9033405654475496
6.607292817679559,-0.6972345160583864
6.640662983425415,-0.45626517193616156
6.674033149171271,-0.25562388475903325
6.707403314917127,-0.1443218318694801
6.740773480662984,-0.12978758453973532
6.774143646408841,-0.18209627584256985
6.8075138121546965,-0.2545773247768346
6.840883977900553,-0.3094452926122077
6.874254143646409,-0.33531578127050793
6.907624309392266,-0.3486146745130468
6.9409944751381225,-0.3798595451262978
6.974364640883978,-0.45357691165889763
7.007734806629835,-0.5731115510306566
7.041104972375691,-0.7178240743531941
7.074475138121548,-0.8527509625848363
7.107845303867403,-0.9441964615169772
7.14121546961326,-0.97257618952507
7.174585635359117,-0.9368062611110453
7.207955801104973,-0.8501398028318459
7.241325966850829,-0.7318105550783017
7.274696132596685,-0.5996769426977043
7.308066298342542,-0.4665882381783539
7.341436464088399,-0.33988967350435106
7.3748066298342545,-0.2218781773684442
7.408176795580111,-0.10986514436914839
7.441546961325967,0.003518036999104565
7.474917127071824,0.12812459301578935
7.5082872928176805,0.27164671207163693
7.541657458563536,0.4343652775266333
7.575027624309393,0.6067559450252634
7.608397790055249,0.7724912326708219
7.641767955801106,0.9160625071174734
7.675138121546962,1.0306786845134668
7.708508287292818,1.1209651354883585
7.741878453038675,1.197547084794552
7.775248618784531,1.2656508324308382
7.808618784530387,1.3143432780146804
7.841988950276244,1.3139476689370053
7.8753591160221,1.2254968543423952
7.908729281767957,1.0195320893727533
7.9420994475138125,0.6956781448782605
7.975469613259669,0.29261371195024793
8.008839779005525,-0.11835592218302356
8.042209944751383,-0.45542051598799765
8.075580110497238,-0.6555980470248554
8.108950276243094,-0.6986906215639433
8.14232044198895,-0.6150768811581924
8.175690607734808,-0.47355028819283335
8.209060773480664,-0.3542496948263897
8.24243093922652,-0.31815178789318194
8.275801104972377,-0.3856484524205932
8.309171270718233,-0.5322127961927902
8.342541436464089,-0.7015362829933286
8.375911602209946,-0.8294610751006974
8.409281767955802,-0.8684783478994431
8.442651933701658,-0.8034967281050723
8.476022099447514,-0.6539821486188747
8.509392265193371,-0.4632528613432278
8.542762430939227,-0.2804087801738153
8.576132596685083,-0.14249971198732977
8.60950276243094,-0.06359030471125336
8.642872928176796,-0.03399239067956688
8.676243093922652,-0.028600889847402795
8.709613259668508,-0.01977018856202353
8.742983425414366,0.011128467815498193
8.776353591160222,0.06802792193901165
8.809723756906077,0.14177297971417382
8.843093922651935,0.21697431962385935
8.87646408839779,0.27994813890435793
8.909834254143647,0.32369865393099334
8.943204419889504,0.34799903069557986
8.97657458563536,0.3554727412581224
9.009944751381216,0.3466655111644515
9.043314917127072,0.3174422288271927
9.07668508287293,0.26061031001031326
9.110055248618785,0.17127773009449188
9.143425414364641,0.053287818543078264
9.176795580110499,-0.07685847717306879
9.210165745856354,-0.19143744673903187
9.24353591160221,-0.25897029555665957
9.276906077348068,-0.25563492791589604
9.310276243093924,-0.17629288162307488
9.34364640883978,-0.040125206448840114
9.377016574585635,0.11267822455048329
9.410386740331493,0.23338910005414906
9.443756906077349,0.2824969740082234
9.477127071823205,0.24582675386644626
9.510497237569062,0.14178194854002038
9.543867403314918,0.015607929731959376
9.577237569060774,-0.07783486790251316
9.610607734806631,-0.09576328911961805
9.643977900552487,-0.024083444557807063
9.677348066298343,0.11845227687177669
9.710718232044199,0.2898881121072301
9.744088397790057,0.4431059354218489
9.777458563535912,0.5430920382361746
9.810828729281768,0.5754748942204336
9.844198895027626,0.543711842655411
9.877569060773482,0.4586036221145736
9.910939226519337,0.3275998786891275
9.944309392265193,0.15076342887340444
9.97767955801105,-0.0741115621764555
10.011049723756907,-0.3403837508931795
10.044419889502763,-0.6225639818330164
10.07779005524862,-0.8747634821925886
10.111160220994476,-1.0411245633958282
10.144530386740332,-1.0755471353672503
10.17790055248619,-0.9623493869740405
10.211270718232045,-0.7275053682622143
10.244640883977901,-0.43342589628509115
10.278011049723757,-0.15776069956538813
10.311381215469615,0.03530654131379675
10.34475138121547,0.11865567005896259
10.378121546961326,0.11018231914191835
10.411491712707184,0.061811878980345354
10.44486187845304,0.03492041121925207
10.478232044198895,0.07331304638046474
10.511602209944753,0.18541582175562876
10.544972375690609,0.34272956660920867
10.578342541436465,0.49421840614780116
10.61171270718232,0.5894561093772489
10.645082872928178,0.5999489130014395
10.678453038674034,0.5294772333880753
10.71182320441989,0.40976035874802624
10.745193370165747,0.28458225682670585
10.778563535911603,0.19045746599312943
10.811933701657459,0.14273800887291824
10.845303867403315,0.13267524416670073
10.878674033149172,0.13535044653395706
10.912044198895028,0.12350779486772964
10.945414364640884,0.08042681343150654
10.978784530386742,0.0065009323289204075
11.012154696132598,-0.08224598304462634
11.045524861878453,-0.1620014435873696
11.078895027624311,-0.2117513870411938
11.112265193370167,-0.2227809004900002
11.145635359116023,-0.20396723362541222
11.179005524861878,-0.1807565461227725
11.212375690607736,-0.18712272751488498
11.245745856353592,-0.2520075191389372
11.279116022099448,-0.3844997146327629
11.312486187845305,-0.5640058849763554
11.345856353591161,-0.7411642113026143
11.379226519337017,-0.8515103185375257
11.412596685082875,-0.8381396221821753
11.44596685082873,-0.6746652450331602
11.479337016574586,-0.37851295974728694
11.512707182320442,-0.008116786086581259
11.5460773480663,0.35560437737022393
11.579447513812156,0.6363041736649144
11.612817679558011,0.7871038039839158
11.646187845303869,0.8038833684279058
11.679558011049725,0.7225960163901866
11.71292817679558,0.6025509412844294
11.746298342541436,0.502562611040454
11.779668508287294,0.45892937763316716
11.81303867403315,0.4731566710592232
11.846408839779006,0.5137695167182428
11.879779005524863,0.5314790323685246
11.91314917127072,0.48181052719967266
11.946519337016575,0.3459398858556259
11.979889502762433,0.14069633587247937
12.013259668508288,-0.08696819149336846
12.046629834254144,-0.2788247997800665
12.08,-0.3891180122842786
12.113370165745858,-0.40260255542875933
12.146740331491714,-0.33918365304366105
12.18011049723757,-0.24388131053782497
12.213480662983427,-0.16733798040794287
12.246850828729283,-0.14566085865857337
12.280220994475139,-0.18783704735983822
12.313591160220996,-0.2750840021700615
12.346961325966852,-0.3713003020859132
12.380331491712708,-0.4394261677103601
12.413701657458564,-0.45656246038060616
12.447071823204421,-0.42168580424298996
12.480441988950277,-0.35322154266584427
12.513812154696133,-0.27820076274975886
12.54718232044199,-0.2184003235682577
12.580552486187846,-0.18013777173984974
12.613922651933702,-0.15259362545238686
12.64729281767956,-0.1153637215157509
12.680662983425416,-0.051321609384144276
12.714033149171271,0.04190887595635826
12.747403314917127,0.1480103314962145
12.780773480662985,0.23796578253708384
12.81414364640884,0.28333031546819154
12.847513812154697,0.27028907262579666
12.880883977900554,0.20738579914265642
12.91425414364641,0.12275742242613263
12.947624309392266,0.051836716643833644
12.980994475138122,0.02129834216718747
13.01436464088398,0.03711381829216517
13.047734806629835,0.08277274408649657
13.081104972375691,0.12873982468720838
13.114475138121549,0.1484607030156687
13.147845303867404,0.1326875455636292
13.18121546961326,0.09455223947494959
13.214585635359118,0.062494080648994706
13.247955801104974,0.06449917557013511
13.28132596685083,0.11182049203432101
13.314696132596685,0.19091181191567272
13.348066298342543,0.26833144090598227
13.381436464088399,0.30676847222822473
13.414806629834255,0.2844041244423212
13.448176795580112,0.20762982348091258
13.481546961325968,0.11005596830466832
13.514917127071824,0.03755317208287102
13.548287292817681,0.0263841015755736
13.581657458563537,0.08538218468062651
13.615027624309393,0.1913241885832525
13.648397790055249,0.2999069916634545
13.681767955801106,0.36661604565052575
13.715138121546962,0.3666233094560061
13.748508287292818,0.3034516538016855
13.781878453038676,0.2022144875288819
13.815248618784532,0.09162983625805501
13.848618784530387,-0.014710108495058471
13.881988950276245,-0.12663695750502527
13.9153591160221,-0.2696592361067431
13.948729281767957,-0.46467599363712114
13.982099447513813,-0.7064148251123186
14.01546961325967,-0.9537253694109307
14.048839779005526,-1.1393544786478693
14.082209944751382,-1.19660767764198
14.11558011049724,-1.090803712295507
14.148950276243095,-0.839845003087353
14.182320441988951,-0.5126395153585739
14.215690607734807,-0.20443650856348794
14.249060773480664,0.0007169916933104314
14.28243093922652,0.06373617230661938
14.315801104972376,0.005232200336793673
14.349171270718234,-0.10539162454636052
14.38254143646409,-0.18138123325435498
14.415911602209945,-0.15625833303604783
14.449281767955803,-0.010787918045703802
14.482651933701659,0.22220925179779916
14.516022099447515,0.47613307730476306
14.54939226519337,0.6822419313175992
14.582762430939228,0.7993031155485909
14.616132596685084,0.8278860092420123
14.64950276243094,0.8041513062147587
14.682872928176797,0.7779931206266628
14.716243093922653,0.7871291301800735
14.749613259668509,0.8392879927127462
14.782983425414367,0.9095154732099819
14.816353591160222,0.95203941981926
14.849723756906078,0.9200086027226073
14.883093922651934,0.7842569996569333
14.916464088397792,0.5441628423832409
14.949834254143648,0.22788012249154457
14.983204419889503,-0.11659550268538534
15.016574585635361,-0.4354488625383757
15.049944751381217,-0.683353290522379
15.083314917127073,-0.8339548831229878
15.116685082872928,-0.8839679012314456
15.150055248618786,-0.8503645882628216
15.183425414364642,-0.7623311410814527
15.216795580110498,-0.6513195469779014
15.250165745856355,-0.542870794870666
15.283535911602211,-0.45264054036786316
15.316906077348067,-0.38684027577897345
15.350276243093925,-0.3453257901070828
15.38364640883978,-0.32485201013411963
15.417016574585636,-0.32078835015197915
15.450386740331492,-0.3271727564635958
15.48375690607735,-0.33626386535037195
15.517127071823205,-0.33890617019632907
15.550497237569061,-0.3260652768952921
15.583867403314919,-0.2906633972821034
15.617237569060775,-0.22841808063071287
15.65060773480663,-0.13722136232661752
15.683977900552488,-0.016094109295317745
15.717348066298344,0.13439879952515643
15.7507182320442,0.30919432485417825
15.784088397790056,0.4943919671819201
15.817458563535913,0.6648066249041168
15.85082872928177,0.7869012378689152
15.884198895027625,0.8281867609229455
15.917569060773483,0.7702468701604326
15.950939226519338,0.6193962212463867
15.984309392265194,0.4087726237454522
16.01767955801105,0.1890459200387595
16.051049723756908,0.010487466563867908
16.084419889502765,-0.0960031727510106
16.11779005524862,-0.13000621282188018
16.151160220994477,-0.11922539659411677
16.18453038674033,-0.1045110322875013
16.21790055248619,-0.1193431924874671
16.251270718232046,-0.1735878145371351
16.2846408839779,-0.24917299764033374
16.318011049723758,-0.3094751599532284
16.351381215469615,-0.3176496291535443
16.38475138121547,-0.2550259456705406
16.418121546961327,-0.13082553402622146
16.451491712707185,0.021329203620053593
16.48486187845304,0.15832813250512653
16.518232044198896,0.24662461140448314
16.551602209944754,0.2761124289597275
16.584972375690608,0.2620689165191506
16.618342541436466,0.23440016334832245
16.651712707182323,0.21987759277223717
16.685082872928177,0.22662837737242542
16.718453038674035,0.2389566154329976
16.751823204419892,0.22525379847116894
16.785193370165747,0.15507675806333146
16.818563535911604,0.016830067684286788
16.851933701657458,-0.17283766560929492
16.885303867403316,-0.3727482379983644
16.918674033149173,-0.5324477627087502
16.952044198895027,-0.6118739687117405
16.985414364640885,-0.5963393415176977
17.018784530386743,-0.5002826630693493
17.052154696132597,-0.35891981957237634
17.085524861878454,-0.21270878212812677
17.118895027624312,-0.09242486299180193
17.152265193370166,-0.011301206906643749
17.185635359116024,0.03378888419559483
17.21900552486188,0.05496030569186005
17.252375690607735,0.06503679349714687
17.285745856353593,0.07264931087052191
17.31911602209945,0.08178508102320392
