Frequency (Hz),Amplitude
0.0,1.8718898642041149
0.01993355481727575,1.8722277899778592
0.0398671096345515,1.873239730915323
0.059800664451827246,1.8749201941140201
0.079734219269103,1.8772600785838438
0.09966777408637874,1.8802467549276936
0.11960132890365449,1.8838641747546296
0.13953488372093023,1.888093007780919
0.159468438538206,1.8929108041179328
0.17940199335548174,1.8982921788773286
0.19933554817275748,1.9042090159494138
0.21926910299003324,1.9106306876353725
0.23920265780730898,1.9175242867370832
0.25913621262458475,1.924854867724188
0.27906976744186046,1.9325856936986978
0.29900332225913623,1.940678486050355
0.318936877076412,1.9490936739291858
0.3388704318936877,1.9577906409397514
0.3588039867109635,1.966727966771369
0.37873754152823924,1.9758636618048535
0.39867109634551495,1.9851553930690393
0.4186046511627907,1.9945607002463708
0.4385382059800665,2.00403720073856
0.4584717607973422,2.013542783094085
0.47840531561461797,2.0230357883631207
0.49833887043189373,2.0324751791794813
0.5182724252491695,2.041820696572952
0.5382059800664452,2.051033004686279
0.5581395348837209,2.0600738237123717
0.5780730897009968,2.06890605147914
0.5980066445182725,2.0774938741946087
0.6179401993355482,2.0858028669259423
0.637873754152824,2.093800084426092
0.6578073089700996,2.1014541429430933
0.6777408637873754,2.108735293653293
0.6976744186046512,2.115615488352421
0.717607973421927,2.1220684380217882
0.7375415282392027,2.128069664860326
0.7574750830564785,2.1335965483422803
0.7774086378737541,2.138628365822788
0.7973421926910299,2.143146328174164
0.8172757475083057,2.1471336108931824
0.8372093023255814,2.150575381076293
0.8571428571428572,2.153458820615266
0.877076411960133,2.155773145921512
0.8970099667774087,2.157509624443118
0.9169435215946844,2.1586615881945934
0.9368770764119602,2.1592244444759823
0.9568106312292359,2.1591956839149744
0.9767441860465116,2.158574885922738
0.9966777408637875,2.157363721611963
1.0166112956810631,2.1555659541826016
1.036544850498339,2.1531874367385915
1.0564784053156147,2.1502361074551226
1.0764119601328903,2.146721981972527
1.0963455149501662,2.142657142848186
1.1162790697674418,2.1380557258523836
1.1362126245847177,2.132933902847467
1.1561461794019936,2.1273098609421814
1.176079734219269,2.1212037775650225
1.196013289036545,2.1146377910514915
1.2159468438538206,2.1076359662909425
1.2358803986710964,2.1002242549308527
1.255813953488372,2.0924304495887065
1.275747508305648,2.0842841314770992
1.2956810631229239,2.0758166108071463
1.3156146179401993,2.0670608592991906
1.3355481727574752,2.058051434102164
1.3554817275747508,2.048824392404743
1.3754152823920267,2.0394171960151124
1.3953488372093024,2.0298686051958756
1.4152823920265782,2.020218561068389
1.435215946843854,2.0105080559503183
1.4551495016611296,2.0007789910652596
1.4750830564784054,1.991074021166453
1.495016611295681,1.9814363857516475
1.514950166112957,1.9719097267147807
1.5348837209302328,1.9625378924852168
1.5548172757475083,1.953364728945592
1.5747508305647842,1.9444338576963562
1.5946843853820598,1.9357884425442347
1.6146179401993357,1.9274709454302523
1.6345514950166113,1.919522873372643
1.6544850498338872,1.9119845183732298
1.6744186046511629,1.9048946926100165
1.6943521594684385,1.8982904616016356
1.7142857142857144,1.8922068783648387
1.73421926910299,1.886676721878493
1.754152823920266,1.8817302433999226
1.7740863787375416,1.8773949243354298
1.7940199335548175,1.8736952494320687
1.8139534883720931,1.8706524990209124
1.8338870431893688,1.868284563894139
1.8538205980066447,1.866605786137914
1.8737541528239203,1.8656268288699671
1.893687707641196,1.86535457735621
1.9136212624584719,1.8657920734148192
1.9335548172757475,1.8669384843810097
1.9534883720930232,1.868789107221656
1.9734219269102993,1.8713354076834106
1.993355481727575,1.8745650936574354
2.0132890365448506,1.8784622212754896
2.0332225913621262,1.8830073316404985
2.0531561461794023,1.8881776155616314
2.073089700996678,1.8939471032257658
2.0930232558139537,1.9002868754057844
2.1129568106312293,1.9071652925872369
2.132890365448505,1.9145482382879264
2.1528239202657806,1.922399372845985
2.1727574750830567,1.9306803940503876
2.1926910299003324,1.9393513011714267
2.212624584717608,1.9483706592021957
2.2325581395348837,1.9576958604288064
2.25249169435216,1.9672833807906946
2.2724252491694354,1.9770890288576846
2.292358803986711,1.987068185620917
2.312292358803987,1.9971760336612294
2.332225913621263,2.0073677746070056
2.352159468438538,2.0175988341189512
2.3720930232558137,2.027825053933725
2.39202657807309,2.0380028707599305
2.4119601328903655,2.048089482045276
2.431893687707641,2.0580429988237507
2.4518272425249172,2.0678225860072335
2.471760797342193,2.0773885906078764
2.4916943521594686,2.086702658470966
2.511627906976744,2.0957278401629327
2.5315614617940203,2.104428686701992
2.551495016611296,2.112771335839928
2.5714285714285716,2.1207235896092294
2.5913621262458477,2.1282549838399234
2.611295681063123,2.135336850330556
2.6312292358803986,2.1419423723283475
2.6511627906976742,2.1480466339383333
2.6710963455149503,2.1536266640402717
2.691029900332226,2.1586614752491045
2.7109634551495017,2.1631320984084925
2.7308970099667778,2.167021613060705
2.7508305647840534,2.170315174288699
2.770764119601329,2.1730000362796895
2.7906976744186047,2.1750655729126347
2.810631229235881,2.1765032956270107
2.8305647840531565,2.177306868784438
2.850498338870432,2.1774721226909652
2.870431893687708,2.1769970644034213
2.8903654485049834,2.1758818863997567
2.910299003322259,2.1741289731493763
2.9302325581395348,2.171742905575338
2.950166112956811,2.168730463355373
2.9700996677740865,2.1651006249624967
2.990033222591362,2.1608645652988505
3.0099667774086383,2.1560356507267096
3.029900332225914,2.150629431249723
3.0498338870431896,2.1446636295435555
3.0697674418604657,2.1381581264793215
3.089700996677741,2.131134942724849
3.1096345514950166,2.1236182159479853
3.129568106312292,2.1156341730838872
3.1495016611295683,2.1072110970640554
3.169435215946844,2.0983792873405447
3.1893687707641196,2.0891710134749086
3.2093023255813957,2.079620460999627
3.2292358803986714,2.0697636687021257
3.249169435215947,2.0596384564303865
3.2691029900332227,2.0492843424769873
3.289036544850499,2.038742449569706
3.3089700996677744,2.028055398484072
3.32890365448505,2.017267188302043
3.3488372093023258,2.0064230623754447
3.3687707641196014,1.9955693591184624
3.388704318936877,1.984753346854732
3.4086378737541527,1.9740230420878415
3.428571428571429,1.9634270107523837
3.4485049833887045,1.9530141522408986
3.46843853820598,1.942833466292131
3.4883720930232562,1.9329338031687768
3.508305647840532,1.9233635979465624
3.5282392026578075,1.9141705901764106
3.548172757475083,1.9054015306605154
3.5681063122923593,1.897101877589267
3.588039867109635,1.8893154848045983
3.60797342192691,1.8820842854680384
3.6279069767441863,1.8754479748963107
3.647840531561462,1.8694436967607986
3.6677740863787376,1.864105737203153
3.6877076411960132,1.8594652316740277
3.7076411960132893,1.8555498894321163
3.727574750830565,1.8523837406268404
3.7475083056478407,1.849986910717869
3.7674418604651168,1.8483754266507402
3.787375415282392,1.8475610587133646
3.807308970099668,1.8475512013540731
3.8272425249169437,1.8483487954675544
3.8471760797342194,1.849952293780188
3.867109634551495,1.8523556700242765
3.887043189368771,1.855548471621297
3.9069767441860463,1.8595159146383344
3.9269102990033224,1.8642390188795794
3.9468438538205985,1.8696947801617718
3.9667774086378738,1.8758563761302207
3.98671096345515,1.8826934014223546
4.0066445182724255,1.8901721275937216
4.026578073089701,1.8982557829913491
4.046511627906977,1.906904847688071
4.0664451827242525,1.9160773586680826
4.086378737541528,1.9257292206609027
4.106312292358805,1.9358145183369535
4.1262458471760795,1.9462858259784983
4.146179401993356,1.9570945112004714
4.166112956810632,1.9681910297919025
4.186046511627907,1.9795252092583442
4.205980066445183,1.9910465191496227
4.225913621262459,2.002704326739047
4.245847176079734,2.014448137067955
4.26578073089701,2.0262278167738654
4.2857142857142865,2.037993801476892
4.305647840531561,2.0496972868034553
4.325581395348838,2.061290403380713
4.345514950166113,2.0727263763388484
4.365448504983389,2.0839596700169136
4.385382059800665,2.0949461186839438
4.40531561461794,2.1056430441665666
4.425249169435216,2.1160093613208315
4.445182724252492,2.126005672306852
4.465116279069767,2.13559435062181
4.485049833887043,2.144739615827706
4.50498338870432,2.1534075998758304
4.524916943521594,2.161566405886334
4.544850498338871,2.169186160189606
4.5647840531561465,2.1762390583802764
4.584717607973422,2.1826994060756566
4.604651162790698,2.188543655010444
4.624584717607974,2.1937504350397328
4.644518272425249,2.198300582563442
4.664451827242526,2.202177165827961
4.6843853820598005,2.2053655075058662
4.704318936877076,2.2078532049008848
4.724252491694353,2.209630148075035
4.7441860465116275,2.2106885361450694
4.764119601328904,2.211022891948554
4.78405315614618,2.2106300752335706
4.803986710963455,2.209509294480768
4.823920265780731,2.2076621174218944
4.8438538205980075,2.205092480273398
4.863787375415282,2.2018066956580804
4.883720930232559,2.1978134591402143
4.9036544850498345,2.1931238542501053
4.92358803986711,2.187751355821676
4.943521594684386,2.181711831411514
4.963455149501661,2.1750235405076026
4.983388704318937,2.167707131172827
5.003322259136213,2.159785633698522
5.023255813953488,2.1512844507699613
5.043189368770764,2.1422313435653533
5.063122923588041,2.1326564131254426
5.083056478405315,2.1225920762404846
5.102990033222592,2.112073035006795
5.122923588039868,2.1011362391074715
5.142857142857143,2.089820839772246
5.162790697674419,2.0781681342727527
5.182724252491695,2.066221499713524
5.20265780730897,2.054026314791756
5.222591362126246,2.0416298681217766
5.242524916943522,2.029081251662549
5.262458471760797,2.0164312377514784
5.282392026578074,2.0037321382458706
5.3023255813953485,1.9910376443110598
5.322259136212625,1.9784026454812838
5.342192691029901,1.965883026765671
5.362126245847176,1.9535354427849456
5.382059800664452,1.9414170682157084
5.4019933554817285,1.9295853241916274
5.421926910299003,1.9180975807734766
5.44186046511628,1.90701083614951
5.4617940199335555,1.8963813738631172
5.48172757475083,1.8862644000772373
5.501661129568107,1.8767136636562423
5.5215946843853825,1.867781062657944
5.541528239202658,1.8595162416476907
5.561461794019934,1.851966185039383
5.5813953488372094,1.8451748123937812
5.601328903654485,1.8391825822163756
5.621262458471762,1.834026111253004
5.641196013289036,1.8297378165358738
5.661129568106313,1.826345587453786
5.681063122923589,1.8238724948781404
5.700996677740864,1.822336543861742
5.72093023255814,1.8217504756427156
5.740863787375416,1.822121623651871
5.760797342192691,1.8234518269755542
5.780730897009967,1.8257374033221485
5.800664451827243,1.828969182040224
5.820598006644518,1.8331325962140261
5.840531561461795,1.8382078313889922
5.8604651162790695,1.8441700271252457
5.880398671096346,1.850989526402375
5.900332225913622,1.8586321669492276
5.920265780730897,1.8670596078804726
5.940199335548173,1.8762296846008486
5.960132890365449,1.886096784785335
5.980066445182724,1.8966122383428092
6.0,1.9077247145895027
6.0199335548172765,1.919380620362576
6.039867109634551,1.9315244934455729
6.059800664451828,1.944099386416891
6.0797342192691035,1.957047236821362
6.099667774086379,1.970309220370268
6.119601328903655,1.9838260846594336
6.139534883720931,1.997538461633721
6.159468438538206,2.011387157701002
6.179401993355482,2.025313420993685
6.1993355481727574,2.0392591857873383
6.219269102990033,2.053167294510498
6.23920265780731,2.066981698119417
6.259136212624584,2.080647635872899
6.279069767441861,2.0941117957314423
6.299003322259137,2.107322456731058
6.318936877076412,2.1202296147542157
6.338870431893688,2.1327850931475982
6.3588039867109645,2.144942639626756
6.378737541528239,2.1566580108703204
6.398671096345516,2.167889046147324
6.418604651162791,2.1785957312467272
6.438538205980066,2.188740253894161
6.458471760797343,2.1982870517507433
6.4784053156146175,2.2072028539962028
6.498338870431894,2.2154567174064113
6.51827242524917,2.223020057745652
6.538205980066445,2.2298666772071316
6.558139534883721,2.2359727885541276
6.578073089700998,2.2413170365369828
6.598006644518272,2.2458805170902294
6.617940199335549,2.249646794747824
6.6378737541528245,2.2526019186535584
6.6578073089701,2.2547344374871723
6.677740863787376,2.256035413574385
6.6976744186046515,2.256498436399888
6.717607973421927,2.256119635696503
6.737541528239203,2.2548976942383705
6.7574750830564785,2.2528338604241864
6.777408637873754,2.249931960691981
6.797342192691031,2.2461984117643135
6.8172757475083055,2.2416422326766177
6.837209302325582,2.236275056493945
6.857142857142858,2.2301111415690595
6.877076411960133,2.2231673821392754
6.897009966777409,2.2154633179961527
6.9169435215946855,2.2070211428942765
6.93687707641196,2.1978657112873115
6.956810631229236,2.1880245428944973
6.9767441860465125,2.177527824504339
6.996677740863787,2.1664084083162294
7.016611295681064,2.1547018060027883
7.036544850498339,2.1424461775469026
7.056478405315615,2.1296823137665917
7.076411960132891,2.1164536112901735
7.096345514950166,2.1028060385837106
7.116279069767442,2.088788091465964
7.136212624584719,2.074450736375664
7.156146179401993,2.059847339487772
7.17607973421927,2.0450335796143864
7.196013289036546,2.030067342682449
7.21594684385382,2.01500859546265
7.235880398671097,1.9999192361458293
7.2558139534883725,1.9848629193381513
7.275747508305648,1.9699048530915326
7.295681063122924,1.9551115657182363
7.3156146179402,1.9405506403775483
7.335548172757475,1.9262904157859773
7.355481727574752,1.9123996519075237
7.3754152823920265,1.8989471601400365
7.395348837209303,1.8860013983359762
7.415282392026579,1.8736300319806287
7.435215946843854,1.8618994639874773
7.45514950166113,1.8508743368362501
7.475083056478406,1.84061701213749
7.495016611295681,1.8311870341056797
7.514950166112956,1.8226405847955784
7.5348837209302335,1.8150299402238321
7.554817275747508,1.8084029375752804
7.574750830564784,1.802802464489631
7.5946843853820605,1.7982659818580913
7.614617940199336,1.7948250915580688
7.634551495016611,1.79250516007199
7.6544850498338874,1.7913250079514527
7.674418604651163,1.7912966736177554
7.694352159468439,1.7924252580850326
7.714285714285715,1.794708854939052
7.73421926910299,1.798138567419562
7.754152823920266,1.802698611870575
7.774086378737542,1.808366504286522
7.794019933554818,1.8151133243307591
7.813953488372093,1.822904049160686
7.83388704318937,1.831697947755627
7.853820598006645,1.841449025275859
7.8737541528239205,1.8521065063084996
7.893687707641197,1.863615345672505
7.913621262458472,1.875916755720739
7.9335548172757475,1.888948739730913
7.953488372093024,1.9026466219371478
7.9734219269103,1.9169435659359102
7.9933554817275745,1.93177107451613
8.013289036544851,1.9470594653321345
8.033222591362128,1.962738318190736
8.053156146179402,1.978736891004207
8.073089700996679,1.9949845026268826
8.093023255813954,2.0114108818174046
8.11295681063123,2.0279464824375695
8.132890365448505,2.0445227657078653
8.152823920265782,2.061072450894856
8.172757475083056,2.077529736217053
8.192691029900331,2.093830492039951
8.21262458471761,2.1099124286040083
8.232558139534884,2.125715240610825
8.252491694352159,2.141180730998467
8.272425249169435,2.1562529161862627
8.292358803986712,2.170878114973194
8.312292358803987,2.185005023149387
8.332225913621263,2.1985847757340373
8.352159468438538,2.211570998597915
8.372093023255815,2.223919851066844
8.392026578073091,2.2355900609449306
8.411960132890366,2.2465429532421104
8.43189368770764,2.2567424737446946
8.451827242524917,2.266155208433343
8.471760797342194,2.2747503996258636
8.491694352159469,2.282499959611238
8.511627906976745,2.2893784824373036
8.53156146179402,2.2953632544236644
8.551495016611296,2.300434263890328
8.571428571428573,2.304574210520442
8.591362126245848,2.307768514711864
8.611295681063122,2.310005327216185
8.6312292358804,2.311275539314054
8.651162790697676,2.311572793730353
8.67109634551495,2.310893496452433
8.691029900332227,2.309236829576496
8.710963455149502,2.3066047652709036
8.730897009966778,2.3030020809096534
8.750830564784053,2.2984363753925936
8.77076411960133,2.2929180866307077
8.790697674418604,2.2864605101325455
8.81063122923588,2.279079818581664
8.830564784053157,2.2707950822415928
8.850498338870432,2.2616282899640647
8.870431893687707,2.251604370505546
8.890365448504983,2.2407512137751477
8.91029900332226,2.229099691541498
8.930232558139535,2.216683677015215
8.950166112956811,2.2035400625958776
8.970099667774086,2.1897087749248545
8.990033222591363,2.175232786217316
9.00996677740864,2.1601581206563574
9.029900332225914,2.1445338544184556
9.049833887043189,2.128412107662231
9.069767441860467,2.111848026553214
9.089700996677742,2.094899753117445
9.109634551495017,2.077628380420642
9.129568106312293,2.0600978902646734
9.14950166112957,2.0423750702874726
9.169435215946844,2.024529407059717
9.189368770764121,2.0066329515089687
9.209302325581396,1.988760152789948
9.22923588039867,1.9709876565852906
9.249169435215949,1.9533940637941702
9.269102990033224,1.9360596456833725
9.289036544850498,1.9190660118714409
9.308970099667773,1.9024957280347154
9.328903654485051,1.886431880996689
9.348837209302326,1.8709575899249231
9.368770764119601,1.8561554637310829
9.388704318936878,1.8421070064554101
9.408637873754152,1.828891974399823
9.428571428571429,1.8165876910113878
9.448504983388705,1.805268327931231
9.46843853820598,1.7950041631073854
9.488372093023255,1.7858608292801867
9.508305647840533,1.7778985683195363
9.528239202657808,1.771171508642974
9.548172757475083,1.7657269840887173
9.56810631229236,1.7616049129971683
9.588039867109636,1.7588372557435827
9.60797342192691,1.7574475674999708
9.627906976744187,1.7574506605939424
9.647840531561462,1.758852387568348
9.667774086378738,1.7616495520946465
9.687707641196015,1.7658299504924466
9.70764119601329,1.771372542037997
9.727574750830565,1.7782477418009095
9.747508305647841,1.7864178257180852
9.767441860465118,1.795837434235047
9.787375415282392,1.8064541582988765
9.807308970099669,1.8182091898703205
9.827242524916944,1.8310380184578752
9.84717607973422,1.8448711554052974
9.867109634551497,1.859634868673877
9.887043189368772,1.8752519124920233
9.906976744186046,1.8916422383199696
9.926910299003321,1.9087236759166908
9.9468438538206,1.9264125757305806
9.966777408637874,1.9446244062230478
9.986710963455149,1.96327430196332
10.006644518272426,1.9822775603233684
10.026578073089702,2.0015500863076867
10.046511627906977,2.021008786451546
10.066445182724253,2.040571913817371
10.086378737541528,2.0601593669286387
10.106312292358805,2.0796929460348608
10.126245847176081,2.0990965704343623
10.146179401993356,2.118296460731971
10.16611295681063,2.13722128991393
10.186046511627907,2.155802307015731
10.205980066445184,2.173973436971965
10.225913621262459,2.1916713599962994
10.245847176079735,2.2088355735655414
10.26578073089701,2.225408439792863
10.285714285714286,2.241335220683126
10.305647840531563,2.256564103479487
10.325581395348838,2.2710462180404294
10.345514950166113,2.2847356479355065
10.36544850498339,2.2975894367187673
10.385382059800666,2.309567590631622
10.40531561461794,2.320633078803354
10.425249169435217,2.330751831855063
10.445182724252492,2.3398927396718685
10.465116279069768,2.348027648986297
10.485049833887045,2.3551313613117264
10.50498338870432,2.361181631676028
10.524916943521594,2.3661591685313774
10.544850498338871,2.3700476351536994
10.564784053156147,2.3728336527931346
10.584717607973422,2.374506805794308
10.604651162790697,2.375059648868514
10.624584717607974,2.3744877166702527
10.64451827242525,2.372789535804087
10.664451827242525,2.3699666393647694
10.684385382059801,2.366023584091474
10.704318936877076,2.3609679701951127
10.724252491694353,2.354810463893982
10.74418604651163,2.3475648226665418
10.764119601328904,2.339247923198184
