Time (s),Filtered Signal
0.0,0.05531560443488529
0.033370165745856356,-0.15702794031235962
0.06674033149171271,-0.29787802441174444
0.10011049723756907,-0.3232432274326108
0.13348066298342542,-0.23232815074628033
0.16685082872928178,-0.06366541962464492
0.20022099447513814,0.124815286598415
0.2335911602209945,0.28145583813831276
0.26696132596685085,0.38032332289334825
0.30033149171270723,0.42670979034206735
0.33370165745856356,0.44820881289355774
0.3670718232044199,0.47735322207514924
0.4004419889502763,0.5345913223555564
0.43381215469613266,0.6188646958163879
0.467182320441989,0.7086543096537843
0.5005524861878453,0.7715309220790458
0.5339226519337017,0.7771535871589007
0.5672928176795581,0.7082654300791037
0.6006629834254145,0.5660707691369086
0.6340331491712707,0.3690808965376632
0.6674033149171271,0.14675291424847473
0.7007734806629835,-0.06958015748029671
0.7341436464088398,-0.2556916322841736
0.7675138121546962,-0.40072044023754516
0.8008839779005525,-0.5086302009861733
0.8342541436464089,-0.5940506533128569
0.8676243093922653,-0.6737355186211397
0.9009944751381216,-0.7570431588226145
0.934364640883978,-0.8398657767336251
0.9677348066298344,-0.9052969499625825
1.0011049723756906,-0.9312042967076051
1.0344751381215471,-0.9012593615364085
1.0678453038674034,-0.8138992101043968
1.1012154696132597,-0.6844705499901025
1.1345856353591162,-0.5391765499965002
1.1679558011049724,-0.40366474874377434
1.201325966850829,-0.2919183225984604
1.2346961325966852,-0.20104111778336328
1.2680662983425415,-0.11458117107609499
1.301436464088398,-0.012722957787846666
1.3348066298342542,0.11579379978818113
1.3681767955801105,0.2660115189333557
1.401546961325967,0.417118132565825
1.4349171270718233,0.5405453909697979
1.4682872928176796,0.6117871473131815
1.501657458563536,0.620451409108318
1.5350276243093923,0.5743928969128862
1.5683977900552488,0.4968734926734299
1.601767955801105,0.4187173136431661
1.6351381215469614,0.3689005649402744
1.6685082872928179,0.36664833679050535
1.7018784530386741,0.41669491538547726
1.7352486187845306,0.5080362734280882
1.768618784530387,0.6159253290227694
1.8019889502762432,0.7068774002141189
1.8353591160220997,0.7463755716622732
1.868729281767956,0.7082272862875354
1.9020994475138122,0.5832497513932334
1.9354696132596687,0.3840338069563796
1.968839779005525,0.14302917508985913
2.0022099447513813,-0.09650103128853876
2.0355801104972375,-0.2938488784640285
2.0689502762430942,-0.42333117365344697
2.1023204419889505,-0.4806850889372437
2.135690607734807,-0.48096701932626
2.169060773480663,-0.4495529457404111
2.2024309392265193,-0.41089598519563975
2.235801104972376,-0.38019332111095755
2.2691712707182323,-0.3610280131244453
2.3025414364640886,-0.3487885526268397
2.335911602209945,-0.3370672913296907
2.369281767955801,-0.3234550332296358
2.402651933701658,-0.3121345128288026
2.436022099447514,-0.3124767362377444
2.4693922651933704,-0.3344244943088439
2.5027624309392267,-0.3823777347708384
2.536132596685083,-0.4497851549065594
2.5695027624309392,-0.5169561267084994
2.602872928176796,-0.5544632125608803
2.636243093922652,-0.5331678842186577
2.6696132596685085,-0.43895829698725547
2.7029834254143648,-0.28654045800264527
2.736353591160221,-0.12420552358552121
2.7697237569060777,-0.022819984781462566
2.803093922651934,-0.048310063456666476
2.8364640883977903,-0.2258491843108522
2.8698342541436466,-0.5114942795403243
2.903204419889503,-0.7882709448752272
2.936574585635359,-0.8960664335950893
2.969944751381216,-0.6899796302494525
3.003314917127072,-0.10631206206659173
3.0366850828729284,0.792653040554628
3.0700552486187846,1.818849458863315
3.103425414364641,2.709744305852347
3.1367955801104976,3.2142813273292137
3.170165745856354,3.1803322771164635
3.20353591160221,2.608462648121539
3.2369060773480665,1.650595386072822
3.2702762430939227,0.5551579037609621
3.3036464088397794,-0.41828532901444343
3.3370165745856357,-1.0813661414415803
3.370386740331492,-1.3664743072957897
3.4037569060773483,-1.3288991864652013
3.4371270718232045,-1.1060621696237471
3.4704972375690613,-0.8538647797788004
3.5038674033149175,-0.6866841112251958
3.537237569060774,-0.6434162394078131
3.57060773480663,-0.6894561632650855
3.6039779005524863,-0.7489347237149194
3.6373480662983426,-0.7494354076316132
3.6707182320441993,-0.6578498648475337
3.7040883977900556,-0.4922170706800283
3.737458563535912,-0.3069958081384804
3.770828729281768,-0.16195548531814488
3.8041988950276244,-0.09164702913720045
3.837569060773481,-0.09039500726730003
3.8709392265193374,-0.11864889562251785
3.9043093922651937,-0.1254761583123354
3.93767955801105,-0.07463662419044896
3.9710497237569062,0.03870606573475592
4.0044198895027625,0.18759086156590704
4.037790055248619,0.3274899103565133
4.071160220994475,0.4167692365078007
4.104530386740332,0.43327693279407437
4.1379005524861885,0.3803436097248164
4.171270718232044,0.28147227567240674
4.204640883977901,0.16820391310242286
4.238011049723757,0.06770311749918621
4.271381215469614,-0.004801228853702456
4.30475138121547,-0.04698929991348628
4.338121546961326,-0.06539190048620962
4.371491712707183,-0.06950028128981794
4.404861878453039,-0.0669637237861227
4.438232044198895,-0.06135547210907077
4.471602209944752,-0.05248444739339892
4.504972375690608,-0.038357587240475444
4.538342541436465,-0.017689283306260045
4.5717127071823205,0.008043119998254356
4.605082872928177,0.03384658894908919
4.638453038674034,0.05233358612442941
4.67182320441989,0.056653934752487485
4.7051933701657465,0.04420202808060331
4.738563535911602,0.019237703698414994
4.771933701657459,-0.00742044176417438
4.805303867403316,-0.02225642838560348
4.8386740331491715,-0.01513595472235476
4.872044198895028,0.015327947533041158
4.905414364640884,0.06015804705814153
4.938784530386741,0.10347868681536732
4.972154696132597,0.12971927216896448
5.005524861878453,0.13109552281125034
5.03889502762431,0.11164124604040956
5.072265193370166,0.085823580159781
5.105635359116023,0.07251981242535135
5.1390055248618784,0.08729039538518357
5.172375690607735,0.13634136561811552
5.205745856353592,0.2143066619646723
5.239116022099448,0.3059541585200884
5.272486187845304,0.3903773279497138
5.30585635359116,0.44590621467486924
5.339226519337017,0.4546380381217472
5.372596685082874,0.40624192279202515
5.4059668508287295,0.3007493127578656
5.439337016574586,0.14947748282274478
5.472707182320442,-0.027047031353022024
5.506077348066299,-0.20443726503594262
5.5394475138121555,-0.3614870509958514
5.572817679558011,-0.48575494353372145
5.606187845303868,-0.5747083650079629
5.639558011049724,-0.6317310571303488
5.672928176795581,-0.6594880770358091
5.706298342541437,-0.6551292811190498
5.739668508287293,-0.6110417004112523
5.77303867403315,-0.5215088911659198
5.806408839779006,-0.3916369957680737
5.839779005524862,-0.24278511020055463
5.873149171270718,-0.10998269281438713
5.906519337016575,-0.03090166611878252
5.939889502762432,-0.03062718781562865
5.9732596685082875,-0.10913597197591089
6.006629834254144,-0.2376083572160494
6.04,-0.3659329374875208
6.073370165745857,-0.4389628005089506
6.1067403314917135,-0.4155134751164203
6.140110497237569,-0.28315249865154535
6.173480662983426,-0.06354316731441086
6.206850828729282,0.19355208571573215
6.240220994475139,0.4258292588682828
6.273591160220995,0.5787627907260369
6.306961325966851,0.6241344779380016
6.340331491712708,0.5702137849015715
6.373701657458564,0.4591921791794485
6.40707182320442,0.3517103186464021
6.440441988950277,0.3034851924252684
6.473812154696133,0.34297178504327136
6.50718232044199,0.45945663410982035
6.5405524861878455,0.607157148447427
6.573922651933702,0.7242094581938116
6.607292817679559,0.7589471352032148
6.640662983425415,0.6926269929150578
6.674033149171271,0.5490892241931697
6.707403314917127,0.3869538509069383
6.740773480662984,0.27667376223056445
6.774143646408841,0.27064961426402245
6.8075138121546965,0.3777317710465917
6.840883977900553,0.5526736689387853
6.874254143646409,0.7063556365738648
6.907624309392266,0.7350308497076755
6.9409944751381225,0.5589548206061941
6.974364640883978,0.15582831600818722
7.007734806629835,-0.4247678794527717
7.041104972375691,-1.072824554158389
7.074475138121548,-1.6515608888677966
7.107845303867403,-2.040274319227449
7.14121546961326,-2.1698882176057444
7.174585635359117,-2.0387132916426483
7.207955801104973,-1.705050767238221
7.241325966850829,-1.2625855288079426
7.274696132596685,-0.8097324117706088
7.308066298342542,-0.4238144802883493
7.341436464088399,-0.1467565934395592
7.3748066298342545,0.016315162033755916
7.408176795580111,0.0883742598973007
7.441546961325967,0.1067086032501709
7.474917127071824,0.10931652071167922
7.5082872928176805,0.12545161563390828
7.541657458563536,0.17200189135346555
7.575027624309393,0.25490104976657196
7.608397790055249,0.3729831759859899
7.641767955801106,0.5213047076772618
7.675138121546962,0.6920614272079593
7.708508287292818,0.8731736894098575
7.741878453038675,1.0463225318504308
7.775248618784531,1.1867952771506713
7.808618784530387,1.2667127708902377
7.841988950276244,1.2615354269018153
7.8753591160221,1.1579924692282269
7.908729281767957,0.9604815839091565
7.9420994475138125,0.6929997073944694
7.975469613259669,0.394923047281665
8.008839779005525,0.11119225699393501
8.042209944751383,-0.12008605523011767
8.075580110497238,-0.2780819910515112
8.108950276243094,-0.36358478270082023
8.14232044198895,-0.39554881250296803
8.175690607734808,-0.40158319727573993
8.209060773480664,-0.406765910419764
8.24243093922652,-0.4255728009024781
8.275801104972377,-0.45971579667636536
8.309171270718233,-0.5014909791569312
8.342541436464089,-0.5396832234055986
8.375911602209946,-0.5645053864873053
8.409281767955802,-0.5695408039435218
8.442651933701658,-0.5510423559316775
8.476022099447514,-0.5066140199628933
8.509392265193371,-0.43525739597973245
8.542762430939227,-0.3392098405027214
8.576132596685083,-0.22613971968051927
8.60950276243094,-0.10946142089669163
8.642872928176796,-0.005399897931976144
8.676243093922652,0.07254697353120669
8.709613259668508,0.11921408771236924
8.742983425414366,0.1403737173878001
8.776353591160222,0.15049501015408387
8.809723756906077,0.16618889599585587
8.843093922651935,0.19814656775048242
8.87646408839779,0.24536677174246824
8.909834254143647,0.2946211958859195
8.943204419889504,0.32577794462127857
8.97657458563536,0.3208528527215245
9.009944751381216,0.2727708064004946
9.043314917127072,0.1897123455144718
9.07668508287293,0.09272123849990904
9.110055248618785,0.007223536286256761
9.143425414364641,-0.0480174751403711
9.176795580110499,-0.06949589659299547
9.210165745856354,-0.07076499644426698
9.24353591160221,-0.07587840321727995
9.276906077348068,-0.10679164018543377
9.310276243093924,-0.17036087107287481
9.34364640883978,-0.25156121462185616
9.377016574585635,-0.31727268363704486
9.410386740331493,-0.3300821839214283
9.443756906077349,-0.26624422620311283
9.477127071823205,-0.12908464938132633
9.510497237569062,0.04936415780849645
9.543867403314918,0.2201732088900169
9.577237569060774,0.3375852557499903
9.610607734806631,0.3776854041531997
9.643977900552487,0.3465462144507413
9.677348066298343,0.27411166502876655
9.710718232044199,0.19745117744803112
9.744088397790057,0.14235415013639413
9.777458563535912,0.11271436533799184
9.810828729281768,0.09265025181833633
9.844198895027626,0.05937553936836149
9.877569060773482,-0.0007727792191583623
9.910939226519337,-0.08211580607172964
9.944309392265193,-0.16076718873415277
9.97767955801105,-0.20643696034520911
10.011049723756907,-0.19856680181792805
10.044419889502763,-0.13828016221210135
10.07779005524862,-0.04986842125698914
10.111160220994476,0.02915421108141378
10.144530386740332,0.06476094651494188
10.17790055248619,0.041983701823695194
10.211270718232045,-0.02796583337819836
10.244640883977901,-0.11231660000199886
10.278011049723757,-0.17091880112462826
10.311381215469615,-0.17348001028029097
10.34475138121547,-0.11217460241078062
10.378121546961326,-0.004345258818386796
10.411491712707184,0.11531692621257092
10.44486187845304,0.20911264147964811
10.478232044198895,0.25073252320137907
10.511602209944753,0.23382743777032186
10.544972375690609,0.1718960031734842
10.578342541436465,0.09054344232828965
10.61171270718232,0.016195121922058082
10.645082872928178,-0.0336927495577441
10.678453038674034,-0.05517895548069023
10.71182320441989,-0.05612634963163975
10.745193370165747,-0.05001610776969943
10.778563535911603,-0.048686827708787066
10.811933701657459,-0.057301422662959504
10.845303867403315,-0.07334524691477233
10.878674033149172,-0.08942559311991735
10.912044198895028,-0.0980147435718364
10.945414364640884,-0.09566775773764889
10.978784530386742,-0.08476952370561422
11.012154696132598,-0.0721890132739321
11.045524861878453,-0.06572413101687653
11.078895027624311,-0.07023899086184825
11.112265193370167,-0.08546558806671704
11.145635359116023,-0.10652697668262594
11.179005524861878,-0.1267886033788468
11.212375690607736,-0.14140978320963185
11.245745856353592,-0.1496163337131768
11.279116022099448,-0.1544508105201305
11.312486187845305,-0.16018063671875904
11.345856353591161,-0.1688694899873937
11.379226519337017,-0.1781073297327659
11.412596685082875,-0.181274436378102
11.44596685082873,-0.17031702725569828
11.479337016574586,-0.13958564499619006
11.512707182320442,-0.08859648122956244
11.5460773480663,-0.02201278016997781
11.579447513812156,0.05345213062119222
11.612817679558011,0.13377369012843496
11.646187845303869,0.22133566939243027
11.679558011049725,0.32494805293948614
11.71292817679558,0.4548959629430907
11.746298342541436,0.6142040342878194
11.779668508287294,0.7898015093283717
11.81303867403315,0.9485519036994472
11.846408839779006,1.0421420310233147
11.879779005524863,1.0214352612897937
11.91314917127072,0.8561619262671726
11.946519337016575,0.5519308345132727
11.979889502762433,0.1559012826358151
12.013259668508288,-0.25373662402591407
12.046629834254144,-0.5921954474227089
12.08,-0.7970857205291624
12.113370165745858,-0.8495398870411479
12.146740331491714,-0.778030791290777
12.18011049723757,-0.6432956687271941
12.213480662983427,-0.5114970716377325
12.246850828729283,-0.427912845318826
12.280220994475139,-0.40259018351912806
12.313591160220996,-0.4132114833743258
12.346961325966852,-0.4221555442907883
12.380331491712708,-0.39842524533531176
12.413701657458564,-0.3335834090846188
12.447071823204421,-0.2445038178330975
12.480441988950277,-0.1625813725094904
12.513812154696133,-0.11567096892072906
12.54718232044199,-0.11230763397818659
12.580552486187846,-0.13625125406189167
12.613922651933702,-0.1539669008164148
12.64729281767956,-0.13105262478517088
12.680662983425416,-0.04917592428392042
12.714033149171271,0.08498932744364691
12.747403314917127,0.24303461025323853
12.780773480662985,0.3881377249465274
12.81414364640884,0.49122993509172996
12.847513812154697,0.5417410180624727
12.880883977900554,0.5480195198053658
12.91425414364641,0.5283393499427935
12.947624309392266,0.4983881822896672
12.980994475138122,0.462572633805406
13.01436464088398,0.41372995619039393
13.047734806629835,0.3406522001007045
13.081104972375691,0.23828127259226708
13.114475138121549,0.11411933975090792
13.147845303867404,-0.013058975348862436
13.18121546961326,-0.12136704049022679
13.214585635359118,-0.19596062368690584
13.247955801104974,-0.23529095870743114
13.28132596685083,-0.2500305672604958
13.314696132596685,-0.2555837660854911
13.348066298342543,-0.2626883792312651
13.381436464088399,-0.2714543229112086
13.414806629834255,-0.2719819596737307
13.448176795580112,-0.25091817939314615
13.481546961325968,-0.20014382991036928
13.514917127071824,-0.12286631767808485
13.548287292817681,-0.03394999272582387
13.581657458563537,0.045700219077678864
13.615027624309393,0.09804609276181114
13.648397790055249,0.11599249635469086
13.681767955801106,0.10687909855157136
13.715138121546962,0.08955318550724287
13.748508287292818,0.08589141784724155
13.781878453038676,0.11012502882017323
13.815248618784532,0.16061032363442732
13.848618784530387,0.2181073697915688
13.881988950276245,0.25216661072818414
13.9153591160221,0.23368775564606756
13.948729281767957,0.14858386127078743
13.982099447513813,0.006331444192767011
14.01546961325967,-0.16110288909674736
14.048839779005526,-0.31034022786443943
14.082209944751382,-0.40329995733300744
14.11558011049724,-0.42217114475140566
14.148950276243095,-0.3757243365070882
14.182320441988951,-0.29394817937295625
14.215690607734807,-0.21352729806621062
14.249060773480664,-0.1610813403693929
14.28243093922652,-0.14211204495780633
14.315801104972376,-0.14070845327366707
14.349171270718234,-0.12970108817679496
14.38254143646409,-0.08585646786153328
14.415911602209945,-0.002432172649358337
14.449281767955803,0.10695482103316134
14.482651933701659,0.21462028596294747
14.516022099447515,0.29166992957134286
14.54939226519337,0.32083931216264494
14.582762430939228,0.303175714850769
14.616132596685084,0.25581008927981197
14.64950276243094,0.20252911064101137
14.682872928176797,0.1621927392826917
14.716243093922653,0.14076838961482624
14.749613259668509,0.13067051914324496
14.782983425414367,0.11728742343659346
14.816353591160222,0.08891440084423483
14.849723756906078,0.044615486979138495
14.883093922651934,-0.0043037106329436295
14.916464088397792,-0.04006040996515541
14.949834254143648,-0.04826371289080968
14.983204419889503,-0.02642293122391366
15.016574585635361,0.013706944954962302
15.049944751381217,0.0513768658080555
15.083314917127073,0.06692155399885177
15.116685082872928,0.05125829232663939
15.150055248618786,0.009840869008727608
15.183425414364642,-0.04071405228465971
15.216795580110498,-0.08112009837907688
15.250165745856355,-0.09833587034364519
15.283535911602211,-0.09049085269612878
15.316906077348067,-0.06604436708853366
15.350276243093925,-0.03863623757718901
15.38364640883978,-0.021026605795066537
15.417016574585636,-0.021231087985739826
15.450386740331492,-0.04193130548147421
15.48375690607735,-0.08196766745270838
15.517127071823205,-0.13768445169613927
15.550497237569061,-0.20265343495423752
15.583867403314919,-0.2661888640876707
15.617237569060775,-0.3126796115784185
15.65060773480663,-0.3238801472555664
15.683977900552488,-0.2846707683662749
15.717348066298344,-0.19033995994674835
15.7507182320442,-0.05172385909064551
15.784088397790056,0.10518745390347563
15.817458563535913,0.2461858784969074
15.85082872928177,0.34003004209920534
15.884198895027625,0.3691954512702463
15.917569060773483,0.3354298511148116
15.950939226519338,0.25771785812870907
15.984309392265194,0.1638341354072271
16.01767955801105,0.079568124442196
16.051049723756908,0.02045880404079832
16.084419889502765,-0.010791905510571074
16.11779005524862,-0.021130506369970065
16.151160220994477,-0.020861152839000485
16.18453038674033,-0.017974916690322647
16.21790055248619,-0.01577899902095514
16.251270718232046,-0.014179901548773797
16.2846408839779,-0.01280938460505768
16.318011049723758,-0.0133937514108345
16.351381215469615,-0.01966537061272602
16.38475138121547,-0.034987143382559885
16.418121546961327,-0.0594602640515101
16.451491712707185,-0.08862248973513429
16.48486187845304,-0.11477485867387999
16.518232044198896,-0.13024296664171991
16.551602209944754,-0.1306116640837442
16.584972375690608,-0.1159737907890859
16.618342541436466,-0.08950317910522465
16.651712707182323,-0.05440079130607777
16.685082872928177,-0.011359742009803647
16.718453038674035,0.041585935092084456
16.751823204419892,0.10650025990416495
16.785193370165747,0.18178783381478084
16.818563535911604,0.2597085154657049
16.851933701657458,0.3270262058477179
16.885303867403316,0.3688268609598441
16.918674033149173,0.3736442861818312
16.952044198895027,0.337262476981325
16.985414364640885,0.2633701296355744
17.018784530386743,0.16107794370228098
17.052154696132597,0.04104415500040167
17.085524861878454,-0.08740415604128746
17.118895027624312,-0.21655230950000073
17.152265193370166,-0.3381576559175727
17.185635359116024,-0.44084241049282413
17.21900552486188,-0.5096509231044828
17.252375690607735,-0.5293550043087845
