Time (s),Filtered Signal
0.0,0.03655703386121026
0.033370165745856356,0.010893089779355112
0.06674033149171271,-0.0009438056801942008
0.10011049723756907,0.012198080882214893
0.13348066298342542,0.056359944545130596
0.16685082872928178,0.13176198119446858
0.20022099447513814,0.2332473924774976
0.2335911602209945,0.3512008142386277
0.26696132596685085,0.4723151624329757
0.30033149171270723,0.5801558015490377
0.33370165745856356,0.6561836671388127
0.3670718232044199,0.6821764395134972
0.4004419889502763,0.6444512157556728
0.43381215469613266,0.539083261839555
0.467182320441989,0.3760961697227525
0.5005524861878453,0.1801936718246325
0.5339226519337017,-0.013514253179276703
0.5672928176795581,-0.16838073890577515
0.6006629834254145,-0.25708860189742105
0.6340331491712707,-0.27057772816106546
0.6674033149171271,-0.22139530552218925
0.7007734806629835,-0.13982846770644153
0.7341436464088398,-0.06408098678593742
0.7675138121546962,-0.028216945047192157
0.8008839779005525,-0.0523998942911586
0.8342541436464089,-0.13871034650924524
0.8676243093922653,-0.2731972139033582
0.9009944751381216,-0.4321780224754881
0.934364640883978,-0.589459342829697
0.9677348066298344,-0.7216405378502901
1.0011049723756906,-0.8104752436184746
1.0344751381215471,-0.8431721023792307
1.0678453038674034,-0.8123743138784657
1.1012154696132597,-0.7170116999590331
1.1345856353591162,-0.5638442494528995
1.1679558011049724,-0.36833444422754813
1.201325966850829,-0.15327303945912854
1.2346961325966852,0.05554344495941646
1.2680662983425415,0.23581445514622698
1.301436464088398,0.3753211396743524
1.3348066298342542,0.47594840366273067
1.3681767955801105,0.5530236354623345
1.401546961325967,0.6293773845404098
1.4349171270718233,0.7255804807213636
1.4682872928176796,0.8496179664720913
1.501657458563536,0.9900212522729075
1.5350276243093923,1.11572875287943
1.5683977900552488,1.1837987269511503
1.601767955801105,1.153226193543974
1.6351381215469614,1.000498163802928
1.6685082872928179,0.7311585532201075
1.7018784530386741,0.38229337464919494
1.7352486187845306,0.013678966478120795
1.768618784530387,-0.3103098082675257
1.8019889502762432,-0.5416780998555177
1.8353591160220997,-0.6642741107329676
1.868729281767956,-0.6970086442570141
1.9020994475138122,-0.6832548882698852
1.9354696132596687,-0.6711717472769506
1.968839779005525,-0.69388878777893
2.0022099447513813,-0.7582135353571438
2.0355801104972375,-0.8458797937401149
2.0689502762430942,-0.9249503626673564
2.1023204419889505,-0.9643956645194217
2.135690607734807,-0.9444979277843045
2.169060773480663,-0.8594006859997702
2.2024309392265193,-0.7132824625806028
2.235801104972376,-0.5150242514888241
2.2691712707182323,-0.27594187401323345
2.3025414364640886,-0.011712624860819913
2.335911602209945,0.25439533957865124
2.369281767955801,0.49161460100030463
2.402651933701658,0.6678726889899526
2.436022099447514,0.7606030680093988
2.4693922651933704,0.7668333249449059
2.5027624309392267,0.7064415142994007
2.536132596685083,0.6155393248122077
2.5695027624309392,0.5321780161129258
2.602872928176796,0.48093255643125266
2.636243093922652,0.4638515194312541
2.6696132596685085,0.4622136118231026
2.7029834254143648,0.4481741473415396
2.736353591160221,0.4005348938433018
2.7697237569060777,0.31691949818969684
2.803093922651934,0.21639767790393064
2.8364640883977903,0.13109698248355758
2.8698342541436466,0.09044690105009863
2.903204419889503,0.10518113901988116
2.936574585635359,0.1586374636741598
2.969944751381216,0.2100609593855246
3.003314917127072,0.20962378185541275
3.0366850828729284,0.11969288301318971
3.0700552486187846,-0.06633949001218875
3.103425414364641,-0.31610913449024874
3.1367955801104976,-0.5658122036420161
3.170165745856354,-0.7416789101763885
3.20353591160221,-0.7878018083831537
3.2369060773480665,-0.6892909373947248
3.2702762430939227,-0.48061895739545313
3.3036464088397794,-0.23439716980191289
3.3370165745856357,-0.03393830526095789
3.370386740331492,0.05949006687283727
3.4037569060773483,0.03049935079160392
3.4371270718232045,-0.08657132442910001
3.4704972375690613,-0.22596231268710673
3.5038674033149175,-0.3223713174448895
3.537237569060774,-0.340683295451993
3.57060773480663,-0.2885318182052831
3.6039779005524863,-0.20554275583327236
3.6373480662983426,-0.13589403503392314
3.6707182320441993,-0.10051104506752952
3.7040883977900556,-0.0858234400357068
3.737458563535912,-0.0563435623572135
3.770828729281768,0.016571071672559046
3.8041988950276244,0.12856110045818925
3.837569060773481,0.23729664544314724
3.8709392265193374,0.2847250050410999
3.9043093922651937,0.23480712344141996
3.93767955801105,0.10339067997896742
3.9710497237569062,-0.04041291959995948
4.0044198895027625,-0.10566554026597623
4.037790055248619,-0.028036574786084408
4.071160220994475,0.19187706056954365
4.104530386740332,0.48263874072000484
4.1379005524861885,0.7326544818780817
4.171270718232044,0.8412234518781335
4.204640883977901,0.7631051866080111
4.238011049723757,0.5246829790592459
4.271381215469614,0.20651809023990866
4.30475138121547,-0.09494309824198176
4.338121546961326,-0.3050012324448152
4.371491712707183,-0.39061129960002877
4.404861878453039,-0.3586189852673972
4.438232044198895,-0.24081096069867133
4.471602209944752,-0.07840613792569606
4.504972375690608,0.08646743614763261
4.538342541436465,0.2135089712351582
4.5717127071823205,0.2675228460189591
4.605082872928177,0.2266184787480406
4.638453038674034,0.09315045815197154
4.67182320441989,-0.10007725044419762
4.7051933701657465,-0.2953208231008188
4.738563535911602,-0.42792451583020535
4.771933701657459,-0.45012772020878505
4.805303867403316,-0.35003307826720786
4.8386740331491715,-0.1571271109149918
4.872044198895028,0.06798063918948165
4.905414364640884,0.25511586359255095
4.938784530386741,0.3487488366869358
4.972154696132597,0.3259229409812688
5.005524861878453,0.20196476214090892
5.03889502762431,0.02278006432392526
5.072265193370166,-0.15271658230133148
5.105635359116023,-0.27328834429455284
5.1390055248618784,-0.3117692687173794
5.172375690607735,-0.2717843838724065
5.205745856353592,-0.18330439197510232
5.239116022099448,-0.08972634706357478
5.272486187845304,-0.03198609420723363
5.30585635359116,-0.035627357674176685
5.339226519337017,-0.10484816552520927
5.372596685082874,-0.22438176144711738
5.4059668508287295,-0.3671077469636507
5.439337016574586,-0.503668479536948
5.472707182320442,-0.6104446530604895
5.506077348066299,-0.6735949522492382
5.5394475138121555,-0.6886422970742994
5.572817679558011,-0.6565418482702667
5.606187845303868,-0.5780191804008243
5.639558011049724,-0.44843257846141577
5.672928176795581,-0.25574305187823154
5.706298342541437,0.015919897159167216
5.739668508287293,0.3760071472094272
5.77303867403315,0.8128141055021736
5.806408839779006,1.28070883327068
5.839779005524862,1.6982446135580362
5.873149171270718,1.9637625225883295
5.906519337016575,1.9873031822051774
5.939889502762432,1.727652284829615
5.9732596685082875,1.2171930465850507
6.006629834254144,0.5599844696706938
6.04,-0.09977228345427847
6.073370165745857,-0.6268148881613095
6.1067403314917135,-0.9398589663381792
6.140110497237569,-1.032628334070939
6.173480662983426,-0.962908274238479
6.206850828729282,-0.8172932533326239
6.240220994475139,-0.670153673544355
6.273591160220995,-0.5561766539791736
6.306961325966851,-0.4671151937927093
6.340331491712708,-0.3704178358361397
6.373701657458564,-0.2370945639474739
6.40707182320442,-0.06331940166608728
6.440441988950277,0.12457027810087175
6.473812154696133,0.2823646554909076
6.50718232044199,0.3694611512379518
6.5405524861878455,0.36775694493587135
6.573922651933702,0.28874423778499797
6.607292817679559,0.16631547226108745
6.640662983425415,0.03992182502108131
6.674033149171271,-0.06305305671273995
6.707403314917127,-0.1371183748357342
6.740773480662984,-0.1963803488794952
6.774143646408841,-0.2619182058121973
6.8075138121546965,-0.3457199027979996
6.840883977900553,-0.43974496379685135
6.874254143646409,-0.5161409966999304
6.907624309392266,-0.5391232559051485
6.9409944751381225,-0.4832205838362378
6.974364640883978,-0.34924720074338145
7.007734806629835,-0.16996931196581774
7.041104972375691,-0.001676041837660736
7.074475138121548,0.09608166022683037
7.107845303867403,0.0849459920942751
7.14121546961326,-0.03368793320411973
7.174585635359117,-0.2144401398317232
7.207955801104973,-0.3811073207547562
7.241325966850829,-0.45318640323789616
7.274696132596685,-0.3758160841392732
7.308066298342542,-0.14115855002444244
7.341436464088399,0.20767701411596917
7.3748066298342545,0.5918814576581484
7.408176795580111,0.9248589885115799
7.441546961325967,1.1409111852162888
7.474917127071824,1.212920057837762
7.5082872928176805,1.1528784659723672
7.541657458563536,0.9973865633601661
7.575027624309393,0.7869849904243882
7.608397790055249,0.5501750718379168
7.641767955801106,0.2994670880756589
7.675138121546962,0.03979622516700722
7.708508287292818,-0.21727050155445657
7.741878453038675,-0.4434793471618598
7.775248618784531,-0.5959314320028121
7.808618784530387,-0.6325399759217257
7.841988950276244,-0.5341662160403527
7.8753591160221,-0.321564383418489
7.908729281767957,-0.05635246153280513
7.9420994475138125,0.177337603816504
7.975469613259669,0.30371053548765464
8.008839779005525,0.28460548635965144
8.042209944751383,0.13327753578505336
8.075580110497238,-0.09363215707288283
8.108950276243094,-0.32126358370983693
8.14232044198895,-0.4861397544318705
8.175690607734808,-0.5567146175770334
8.209060773480664,-0.5376213287835286
8.24243093922652,-0.45936886291228535
8.275801104972377,-0.3616309391832787
8.309171270718233,-0.27900034781801875
8.342541436464089,-0.23388852761381462
8.375911602209946,-0.23569043762441974
8.409281767955802,-0.28219136250453386
8.442651933701658,-0.3600719548281364
8.476022099447514,-0.4448931028803633
8.509392265193371,-0.5038909766731074
8.542762430939227,-0.5045273219652088
8.576132596685083,-0.4277510460887979
8.60950276243094,-0.27994614505083354
8.642872928176796,-0.09544276315991884
8.676243093922652,0.07529048975586217
8.709613259668508,0.18901142577437471
8.742983425414366,0.23399894589892478
8.776353591160222,0.24162228361092422
8.809723756906077,0.27610594264521
8.843093922651935,0.4040706309331961
8.87646408839779,0.6568556758688878
8.909834254143647,1.0044726237113506
8.943204419889504,1.3564322635326973
8.97657458563536,1.5925636417376352
9.009944751381216,1.6119245067879058
9.043314917127072,1.3776809347017176
9.07668508287293,0.9362407108561059
9.110055248618785,0.40057341279929737
9.143425414364641,-0.09495452449356553
9.176795580110499,-0.44684382049219795
9.210165745856354,-0.6174025376053079
9.24353591160221,-0.6375812555060231
9.276906077348068,-0.5797364434930983
9.310276243093924,-0.5169756643134161
9.34364640883978,-0.49052430648233625
9.377016574585635,-0.4998131746222711
9.410386740331493,-0.5163963620607426
9.443756906077349,-0.5102381248351839
9.477127071823205,-0.47187540892825414
9.510497237569062,-0.4183381363667665
9.543867403314918,-0.38119702736992717
9.577237569060774,-0.38545711662318943
9.610607734806631,-0.43256683287756126
9.643977900552487,-0.49750161648529784
9.677348066298343,-0.5411509783329154
9.710718232044199,-0.5304297275662125
9.744088397790057,-0.4546719282729467
9.777458563535912,-0.3297479016001002
9.810828729281768,-0.1887143863968496
9.844198895027626,-0.06505100983214739
9.877569060773482,0.02233848096630631
9.910939226519337,0.07528374741325446
9.944309392265193,0.11195068887339425
9.97767955801105,0.15543732932985685
10.011049723756907,0.22148187808015324
10.044419889502763,0.3106921940614667
10.07779005524862,0.407880691464181
10.111160220994476,0.48793039131493243
10.144530386740332,0.5254429080886693
10.17790055248619,0.5046471503653708
10.211270718232045,0.426404834207164
10.244640883977901,0.3101494066316962
10.278011049723757,0.1899159458640103
10.311381215469615,0.10514958776294123
10.34475138121547,0.08857776897467487
10.378121546961326,0.15469230451075827
10.411491712707184,0.2927228680241712
10.44486187845304,0.4670038180733926
10.478232044198895,0.6254847110721465
10.511602209944753,0.7144699798461216
10.544972375690609,0.6953617179074766
10.578342541436465,0.5579948908003961
10.61171270718232,0.3256222139538643
10.645082872928178,0.0488756515362005
10.678453038674034,-0.21031391369506305
10.71182320441989,-0.3999001227006655
10.745193370165747,-0.4963427639647508
10.778563535911603,-0.5129374087824419
10.811933701657459,-0.49334568643659865
10.845303867403315,-0.49160699130427166
10.878674033149172,-0.5461285205230588
10.912044198895028,-0.6589121255433464
10.945414364640884,-0.7902787352771953
10.978784530386742,-0.8732565138820175
11.012154696132598,-0.8428457640671417
11.045524861878453,-0.667654345836239
11.078895027624311,-0.3689798761559328
11.112265193370167,-0.01717460487494337
11.145635359116023,0.2945697758118411
11.179005524861878,0.4878019938400201
11.212375690607736,0.5304036159742513
11.245745856353592,0.44724389714082297
11.279116022099448,0.30507666803414957
11.312486187845305,0.17958461013078877
11.345856353591161,0.12107274854506941
11.379226519337017,0.13528351232139788
11.412596685082875,0.18741184600375696
11.44596685082873,0.22536792013170698
11.479337016574586,0.20906044796984044
11.512707182320442,0.1304969257798635
11.5460773480663,0.0152903889474402
11.579447513812156,-0.09374268659505197
11.612817679558011,-0.1611232409441576
11.646187845303869,-0.17795906080364787
11.679558011049725,-0.16575152530932566
11.71292817679558,-0.16293821825331972
11.746298342541436,-0.20147760789449118
11.779668508287294,-0.28611762313000466
11.81303867403315,-0.38777444022266394
11.846408839779006,-0.45515551619635863
11.879779005524863,-0.4390392215662159
11.91314917127072,-0.3166076004896556
11.946519337016575,-0.10288359548352861
11.979889502762433,0.1568498825050077
12.013259668508288,0.4093029403297478
12.046629834254144,0.6174906978770544
12.08,0.7733294019637784
12.113370165745858,0.8916381137626445
12.146740331491714,0.9897820330693077
12.18011049723757,1.0659938947602032
12.213480662983427,1.0905844767189043
12.246850828729283,1.016971552494289
12.280220994475139,0.8078715412449976
12.313591160220996,0.4627284860283681
12.346961325966852,0.030713456479233757
12.380331491712708,-0.39963207479727986
12.413701657458564,-0.7314000708713075
12.447071823204421,-0.8976885906871443
12.480441988950277,-0.8897578242728815
12.513812154696133,-0.7613753247003479
12.54718232044199,-0.6062079542747572
12.580552486187846,-0.5172966965239427
12.613922651933702,-0.5460350104191551
12.64729281767956,-0.6787720377374965
12.680662983425416,-0.8417070975546672
12.714033149171271,-0.9324024031211641
12.747403314917127,-0.8645896063353852
12.780773480662985,-0.6072201722898249
12.81414364640884,-0.20130922977094648
12.847513812154697,0.2523955569194558
12.880883977900554,0.6298520188491818
12.91425414364641,0.8296406632424748
12.947624309392266,0.8102684430526144
12.980994475138122,0.6044344669941069
13.01436464088398,0.3050120217340752
13.047734806629835,0.028631863895913278
13.081104972375691,-0.12844424475142896
13.114475138121549,-0.12452106789170955
13.147845303867404,0.0166004875910396
13.18121546961326,0.22129287300394548
13.214585635359118,0.4001800732286581
13.247955801104974,0.4846580000658212
13.28132596685083,0.4497139778223497
13.314696132596685,0.31456328847322806
13.348066298342543,0.12420192088934963
13.381436464088399,-0.07575062630541426
13.414806629834255,-0.25663046638649056
13.448176795580112,-0.4087015788075318
13.481546961325968,-0.5298984988751062
13.514917127071824,-0.6118275842929427
13.548287292817681,-0.6344456560442335
13.581657458563537,-0.5742523485632175
13.615027624309393,-0.42110115484114924
13.648397790055249,-0.19216231206107645
13.681767955801106,0.06752656364952206
13.715138121546962,0.3005059296622809
13.748508287292818,0.460790421037811
13.781878453038676,0.5328245152415126
13.815248618784532,0.5344321516096954
13.848618784530387,0.502001022276976
13.881988950276245,0.4668024335478989
13.9153591160221,0.43676781753465266
13.948729281767957,0.39478193576075443
13.982099447513813,0.31448499875188385
14.01546961325967,0.18375400453091414
14.048839779005526,0.02099966061046367
14.082209944751382,-0.1267398998753946
14.11558011049724,-0.20438935000980993
14.148950276243095,-0.1775022288652503
14.182320441988951,-0.05321681667765958
14.215690607734807,0.11856082985377335
14.249060773480664,0.2653474711724027
14.28243093922652,0.323954461988798
14.315801104972376,0.2683441115614806
14.349171270718234,0.119992251203859
14.38254143646409,-0.06383461170096665
14.415911602209945,-0.21771313672048415
14.449281767955803,-0.29809488909611176
14.482651933701659,-0.30158000563153126
14.516022099447515,-0.2632901187673002
14.54939226519337,-0.2368056919213659
14.582762430939228,-0.2657655862431764
14.616132596685084,-0.3608973848518764
14.64950276243094,-0.4933631872103358
14.682872928176797,-0.6073757291312247
14.716243093922653,-0.645907343253512
14.749613259668509,-0.5772857810895675
14.782983425414367,-0.4102758327843132
14.816353591160222,-0.19082051086726104
14.849723756906078,0.017766249187188828
14.883093922651934,0.16175375852424406
14.916464088397792,0.21858120600140601
14.949834254143648,0.20330049516202706
14.983204419889503,0.1573567556252942
15.016574585635361,0.1256031971581943
15.049944751381217,0.13311171948984465
15.083314917127073,0.17348307214660508
15.116685082872928,0.21463682481232602
15.150055248618786,0.2189740317622198
15.183425414364642,0.1668734453324487
15.216795580110498,0.07017136008168583
15.250165745856355,-0.03255906128628855
15.283535911602211,-0.09679914709735042
15.316906077348067,-0.09709420316611696
15.350276243093925,-0.04128611084082491
15.38364640883978,0.03515503842796965
15.417016574585636,0.0919719228857138
15.450386740331492,0.11058085203937239
15.48375690607735,0.10762063525676777
15.517127071823205,0.12622623935765495
15.550497237569061,0.20904458487797195
15.583867403314919,0.3685588459426344
15.617237569060775,0.5727324265030583
15.65060773480663,0.7554806725492228
15.683977900552488,0.8469848844733301
15.717348066298344,0.8071492359628669
15.7507182320442,0.6436518754218629
15.784088397790056,0.40506503177771236
15.817458563535913,0.15387173448967215
15.85082872928177,-0.06465307515832805
15.884198895027625,-0.24016384710085364
15.917569060773483,-0.39258710104615924
15.950939226519338,-0.549432418785339
15.984309392265194,-0.7196678178885311
16.01767955801105,-0.8802210379528179
16.051049723756908,-0.9834318240460116
16.084419889502765,-0.9815969758020582
16.11779005524862,-0.8550383591518425
16.151160220994477,-0.6280455172335493
16.18453038674033,-0.36339762616955507
16.21790055248619,-0.13730998072626302
16.251270718232046,-0.006685724778493388
16.2846408839779,0.015535454432332016
16.318011049723758,-0.03490843069507186
16.351381215469615,-0.09101693811823054
16.38475138121547,-0.08574355836511996
16.418121546961327,0.017616513515392077
16.451491712707185,0.20963960497691453
16.48486187845304,0.4399599353301828
16.518232044198896,0.6397229971371431
16.551602209944754,0.7499762386681822
16.584972375690608,0.7431564321526377
16.618342541436466,0.6296374752841155
16.651712707182323,0.44921671603697355
16.685082872928177,0.2539351919604767
16.718453038674035,0.09070221130868647
16.751823204419892,-0.0101944064987087
16.785193370165747,-0.039016727387687425
16.818563535911604,-0.004775858291969931
16.851933701657458,0.06938175498743518
16.885303867403316,0.1516534700139778
16.918674033149173,0.2075400496117195
16.952044198895027,0.20669298091213056
16.985414364640885,0.13054216736061203
17.018784530386743,-0.020823242574958947
17.052154696132597,-0.2253231903022927
17.085524861878454,-0.4418846844280145
17.118895027624312,-0.6206767333321267
17.152265193370166,-0.718321672946395
17.185635359116024,-0.7129039487829015
17.21900552486188,-0.612632401183331
17.252375690607735,-0.4538503756662727
17.285745856353593,-0.2881984977529176
17.31911602209945,-0.16342373825056122
