Frequency (Hz),Amplitude
0.0,2.4727889646017163
0.019867549668874173,2.4723749191078066
0.039735099337748346,2.4711339992746475
0.059602649006622516,2.469069854721126
0.07947019867549669,2.4661885670362484
0.09933774834437085,2.462498648046364
0.11920529801324503,2.4580110372495354
0.13907284768211922,2.4527390982750483
0.15894039735099338,2.446698614181107
0.17880794701986755,2.439907781356532
0.1986754966887417,2.4323872017415136
0.2185430463576159,2.4241598730277425
0.23841059602649006,2.415251176439151
0.2582781456953642,2.4056888616306864
0.27814569536423844,2.395503028173943
0.2980132450331126,2.384726103024821
0.31788079470198677,2.373392813289967
0.33774834437086093,2.36154015352609
0.3576158940397351,2.3492073467201586
0.3774834437086093,2.336435798009914
0.3973509933774834,2.3232690401152123
0.4172185430463576,2.3097526693634465
0.4370860927152318,2.2959342711094135
0.45695364238410596,2.281863333276114
0.4768211920529801,2.267591146680898
0.49668874172185434,2.253170690768651
0.5165562913907285,2.238656503353962
0.5364238410596026,2.2241045329868787
0.5562913907284769,2.209571972607576
0.5761589403973509,2.195117073253076
0.5960264900662252,2.1807989367324354
0.6158940397350993,2.1666772864026838
0.6357615894039735,2.152812215464289
0.6556291390728477,2.1392639125567183
0.6754966887417219,2.1260923648763153
0.695364238410596,2.1133570395585117
0.7152317880794702,2.1011165446624016
0.7350993377483444,2.089428271757416
0.7549668874172186,2.0783480228259608
0.7748344370860927,2.0679296249411756
0.7947019867549668,2.058224536929767
0.8145695364238411,2.04928145295343
0.8344370860927152,2.041145908602952
0.8543046357615894,2.0338598956570495
0.8741721854304636,2.0274614920737997
0.8940397350993378,2.0219845140187505
0.9139072847682119,2.0174581967590393
0.9337748344370861,2.013906911042961
0.9536423841059603,2.011349921128405
0.9735099337748344,2.009801189922678
0.9933774834437087,2.0092692357668893
1.0132450331125828,2.0097570442721193
1.033112582781457,2.0112620373356926
1.0529801324503312,2.013776100090634
1.0728476821192052,2.0172856651310522
1.0927152317880795,2.0217718519762506
1.1125827814569538,2.0272106584496394
1.1324503311258278,2.0335731995102315
1.1523178807947019,2.0408259881311386
1.1721854304635762,2.0489312521021907
1.1920529801324504,2.0578472801612486
1.2119205298013245,2.0675287906323243
1.2317880794701985,2.0779273157586395
1.2516556291390728,2.0889915951414477
1.271523178807947,2.100667972100312
1.2913907284768211,2.1129007873199
1.3112582781456954,2.1256327648030497
1.3311258278145695,2.1388053858703557
1.3509933774834437,2.1523592476962223
1.370860927152318,2.1662344036178567
1.390728476821192,2.1803706831703265
1.410596026490066,2.1947079904666715
1.4304635761589404,2.20918658014235
1.4503311258278146,2.2237473106088057
1.4701986754966887,2.238331874807396
1.4900662251655628,2.252883009022237
1.5099337748344372,2.267344680601824
1.5298013245033113,2.281662255659723
1.5496688741721854,2.295782647981886
1.5695364238410596,2.3096544504694267
1.5894039735099337,2.3232280504994347
1.609271523178808,2.3364557306012874
1.6291390728476822,2.3492917558284425
1.6490066225165563,2.361692449163865
1.6688741721854303,2.3736162562370455
1.6887417218543048,2.385023800556606
1.7086092715231789,2.3958779303807263
1.728476821192053,2.4061437582602916
1.7483443708609272,2.4157886942008178
1.7682119205298013,2.42478247330071
1.7880794701986755,2.4330971786369653
1.8079470198675496,2.4407072600866275
1.8278145695364238,2.4475895496935514
1.847682119205298,2.453723274116054
1.8675496688741722,2.4590900646220377
1.8874172185430464,2.4636739650341473
1.9072847682119205,2.4674614379678967
1.9271523178807946,2.4704413696509544
1.9470198675496688,2.4726050735604845
1.9668874172185429,2.4739462930679665
1.9867549668874174,2.474461203236123
2.0066225165562916,2.474148411870149
2.0264900662251657,2.4730089598846705
2.0463576158940397,2.471046321008107
2.066225165562914,2.4682664008067445
2.086092715231788,2.464677534971018
2.1059602649006623,2.460290486766265
2.1258278145695364,2.455118443507598
2.1456953642384105,2.4491770118746303
2.165562913907285,2.4424842118342873
2.185430463576159,2.4350604688897275
2.205298013245033,2.426928604318824
2.2251655629139075,2.4181138230071753
2.2450331125827816,2.4086436984170954
2.2649006622516556,2.3985481541661575
2.2847682119205297,2.3878594416155936
2.3046357615894038,2.3766121127911575
2.324503311258278,2.364842987877194
2.3443708609271523,2.352591116438894
2.364238410596027,2.3398977314402076
2.384105960264901,2.326806195036339
2.403973509933775,2.3133619350329955
2.423841059602649,2.2996123708224028
2.443708609271523,2.2856068275320345
2.463576158940397,2.2713964370604063
2.4834437086092715,2.257034024630672
2.5033112582781456,2.2425739794728394
2.52317880794702,2.228072108256391
2.543046357615894,2.2135854699441437
2.562913907284768,2.199172190833526
2.5827814569536423,2.1848912587013034
2.6026490066225163,2.1708022951794943
2.622516556291391,2.1569653057719558
2.642384105960265,2.143440407276941
2.662251655629139,2.1302875328159194
2.6821192052980134,2.117566115182
2.7019867549668874,2.1053347498093626
2.7218543046357615,2.0936508393195554
2.741721854304636,2.08257022230733
2.76158940397351,2.0721467897676193
2.781456953642384,2.0624320933112203
2.801324503311258,2.053474950037089
2.821192052980132,2.0453210495894907
2.8410596026490067,2.0380125694883544
2.8609271523178808,2.0315878052429475
2.8807947019867552,2.026080822004442
2.9006622516556293,2.0215211345506696
2.9205298013245033,2.0179334222021983
2.9403973509933774,2.015337284831121
2.9602649006622515,2.013747045442416
2.9801324503311255,2.0131716038989254
3.0,2.0136143452542763
3.0198675496688745,2.0150731048971435
3.0397350993377485,2.017540191349208
3.0596026490066226,2.021002466159817
3.0794701986754967,2.0254414789664175
3.0993377483443707,2.0308336545039594
3.119205298013245,2.037150527204665
3.1390728476821192,2.0443590180778264
3.1589403973509933,2.052421747829737
3.1788079470198674,2.0612973796964886
3.198675496688742,2.0709409852189595
3.218543046357616,2.081304426181616
3.23841059602649,2.0923367461422475
3.2582781456953644,2.103984565368018
3.2781456953642385,2.1161924735284727
3.2980132450331126,2.1289034151384483
3.3178807947019866,2.142059063454763
3.3377483443708607,2.1556001792736863
3.3576158940397347,2.1694669518179
3.3774834437086096,2.183599319616957
3.3973509933774837,2.197937269950618
3.4172185430463577,2.2124211160269205
3.437086092715232,2.2269917515951256
3.456953642384106,2.2415908831442977
3.47682119205298,2.2561612402098525
3.4966887417218544,2.2706467646067425
3.5165562913907285,2.2849927796332334
3.5364238410596025,2.2991461404510662
3.556291390728477,2.3130553669532823
3.576158940397351,2.326670760489483
3.596026490066225,2.3399445058356223
3.615894039735099,2.3528307597821723
3.6357615894039736,2.3652857276744474
3.6556291390728477,2.3772677291813262
3.6754966887417218,2.3887372544963483
3.695364238410596,2.3996570120945058
3.7152317880794703,2.409991969082245
3.7350993377483444,2.419709385089737
3.754966887417219,2.428778840566618
3.774834437086093,2.437172260256357
3.794701986754967,2.4448639325417645
3.814569536423841,2.4518305252752106
3.834437086092715,2.45805109863344
3.854304635761589,2.4635071154674506
3.8741721854304636,2.468182449553752
3.8940397350993377,2.4720633920935846
3.9139072847682117,2.475138656751519
3.9337748344370858,2.477399383473345
3.9536423841059607,2.478839141275644
3.9735099337748347,2.479453930154062
3.993377483443709,2.479242182214953
4.013245033112583,2.478204762094054
4.033112582781457,2.476344966685759
4.052980132450331,2.473668524167464
4.072847682119205,2.470183592263351
4.0927152317880795,2.4659007556516834
4.112582781456953,2.4608330223775416
4.132450331125828,2.454995819088654
4.152317880794702,2.4484069848651138
4.172185430463576,2.441086763363662
4.19205298013245,2.433057792943111
4.211920529801325,2.424345094379396
4.231788079470199,2.4149760557161244
4.251655629139073,2.4049804137288375
4.271523178807947,2.3943902314092202
4.291390728476821,2.3832398707984845
4.311258278145695,2.3715659604182906
4.33112582781457,2.3594073564632545
4.3509933774834435,2.3468050968322895
4.370860927152318,2.3338023469892684
4.390728476821192,2.3204443365577774
4.410596026490066,2.3067782854739085
4.43046357615894,2.292853318448102
4.450331125827815,2.2787203664266142
4.470198675496689,2.2644320537001486
4.490066225165563,2.250042569287815
4.509933774834438,2.2356075212352637
4.529801324503311,2.221183772514178
4.549668874172186,2.2068292573039696
4.569536423841059,2.192602776583841
4.589403973509934,2.178563772171351
4.6092715231788075,2.1647720786203
4.629139072847682,2.15128765274042
4.649006622516556,2.1381702809285605
4.66887417218543,2.125479265005168
4.688741721854305,2.113273087827793
4.708609271523179,2.101609060596911
4.728476821192054,2.090542954464551
4.748344370860927,2.080128619784193
4.768211920529802,2.070417597075227
4.788079470198675,2.061458724487346
4.80794701986755,2.053297747203321
4.827814569536423,2.0459769347756738
4.847682119205298,2.039534712814955
4.867549668874172,2.034005315697604
4.887417218543046,2.0294184670092927
4.9072847682119205,2.0257990942597512
4.927152317880794,2.0231670839866585
4.947019867549669,2.0215370827073973
4.966887417218543,2.020918348294183
4.986754966887418,2.021314655267785
5.006622516556291,2.022724256270789
5.026490066225166,2.025139900644487
5.04635761589404,2.0285489096550324
5.066225165562914,2.0329333065567536
5.086092715231788,2.038269998405127
5.105960264900662,2.044531005394238
5.125827814569536,2.0516837325397064
5.14569536423841,2.059691277790987
5.1655629139072845,2.0685127701561954
5.185430463576159,2.0781037311625985
5.205298013245033,2.088416452948695
5.225165562913908,2.099400386468046
5.245033112582782,2.1110025336525102
5.264900662251656,2.1231678378975047
5.28476821192053,2.1358395678560544
5.304635761589404,2.1489596902238772
5.324503311258278,2.1624692279276063
5.344370860927152,2.1763086008610584
5.364238410596027,2.190417947022434
5.3841059602649,2.204737422567437
5.403973509933775,2.2192074798942087
5.4238410596026485,2.2337691234052732
5.443708609271523,2.2483641430443853
5.463576158940397,2.262935326082214
5.483443708609272,2.277426647924801
5.503311258278146,2.2917834429498076
5.52317880794702,2.3059525565421866
5.543046357615895,2.319882479612134
5.562913907284768,2.3335234669409006
5.582781456953643,2.3468276407231574
5.602649006622516,2.3597490806642476
5.622516556291391,2.37224390195565
5.642384105960264,2.3842703223966546
5.662251655629139,2.395788719861436
5.682119205298013,2.406761681232033
5.701986754966887,2.417154043833892
5.7218543046357615,2.4269329303235354
5.741721854304636,2.4360677778915947
5.7615894039735105,2.444530362558708
5.781456953642384,2.4522948192600698
5.801324503311259,2.4593376583358495
5.821192052980132,2.4656377789710864
5.841059602649007,2.471176480059365
5.860927152317881,2.4759374689004585
5.880794701986755,2.4799068680821077
5.900662251655629,2.4830732208409927
5.920529801324503,2.485427495146018
5.940397350993377,2.4869630866993053
5.960264900662251,2.4876758210048338
5.980132450331126,2.4875639546118995
6.0,2.486628175599306
6.0198675496688745,2.4848716033262708
6.039735099337749,2.482299787436248
6.059602649006623,2.478920706060109
6.079470198675497,2.474744763124689
6.099337748344371,2.4697847846303533
6.119205298013245,2.464056013717489
6.139072847682119,2.457576104294938
6.158940397350993,2.450365112953511
6.178807947019867,2.442445488834351
6.198675496688741,2.4338420610641642
6.218543046357616,2.42458202330746
6.23841059602649,2.4146949149193664
6.258278145695365,2.404212598111342
6.2781456953642385,2.393169230466534
6.298013245033113,2.381601232062076
6.317880794701987,2.3695472463725564
6.337748344370861,2.3570480940444387
6.357615894039735,2.344146718545628
6.377483443708609,2.330888122611217
6.397350993377484,2.317319294327402
6.417218543046357,2.303489121624745
6.437086092715232,2.2894482938935616
6.456953642384105,2.2752491893928783
6.47682119205298,2.2609457471064154
6.496688741721854,2.246593321710711
6.516556291390729,2.232248520368784
6.5364238410596025,2.217969020156178
6.556291390728477,2.203813365070794
6.5761589403973515,2.1898407417834336
6.596026490066225,2.176110733556953
6.6158940397351,2.16268305210562
6.635761589403973,2.1496172475841338
6.655629139072848,2.1369723973896937
6.675496688741721,2.1248067750259305
6.695364238410596,2.1131775009069695
6.715231788079469,2.1021401776598205
6.735099337748344,2.091748513195393
6.754966887417219,2.0820539355379215
6.774834437086093,2.073105204099709
6.794701986754967,2.0649480227292565
6.814569536423841,2.057624660408827
6.8344370860927155,2.051173585895286
6.854304635761589,2.0456291228493133
6.874172185430464,2.0410211320523968
6.894039735099337,2.0373747271454663
6.913907284768212,2.034710029923153
6.933774834437086,2.033041970584919
6.95364238410596,2.032380137490453
6.973509933774834,2.032728679919616
6.993377483443709,2.034086266136704
7.013245033112583,2.0364460977554177
7.033112582781457,2.039795980052782
7.052980132450331,2.0441184465477726
7.072847682119205,2.049390934904704
7.0927152317880795,2.055586010095496
7.112582781456954,2.062671629805344
7.132450331125828,2.0706114463259686
7.152317880794702,2.0793651386693703
7.172185430463576,2.088888768358662
7.19205298013245,2.099135152304568
7.211920529801324,2.1100542463365195
7.231788079470198,2.121593533299786
7.251655629139073,2.133698410119717
7.271523178807947,2.1463125688348477
7.291390728476822,2.159378367274612
7.311258278145695,2.172837185769315
7.33112582781457,2.186629766997594
7.3509933774834435,2.200696536774025
7.370860927152318,2.2149779042334665
7.390728476821192,2.229414540465769
7.410596026490066,2.243947635181771
7.430463576158941,2.258519131445612
7.450331125827814,2.2730719388864866
7.470198675496689,2.287550126107829
7.490066225165562,2.3018990932475343
7.509933774834438,2.316065725815506
7.52980132450331,2.329998531051603
7.549668874172186,2.343647758116025
7.569536423841059,2.3569655034524994
7.589403973509934,2.3699058026600097
7.6092715231788075,2.3824247101781793
7.629139072847682,2.3944803680406013
7.649006622516557,2.4060330648852033
7.66887417218543,2.4170452863352856
7.6887417218543055,2.427481757783684
7.708609271523178,2.4373094805275572
7.728476821192054,2.446497762116703
7.748344370860927,2.455018241694125
7.768211920529802,2.4628449110264605
7.788079470198675,2.469954131844616
7.80794701986755,2.4763246500413265
7.827814569536423,2.4819376072036214
7.847682119205298,2.486776549894128
7.8675496688741715,2.4908274370351227
7.887417218543046,2.494078645693991
7.907284768211921,2.496520975516701
7.927152317880795,2.498147652007978
7.9470198675496695,2.4989543288109584
7.966887417218543,2.4989390890964494
7.986754966887418,2.49810244613009
8.006622516556291,2.496447343045559
8.026490066225167,2.493979151812285
8.046357615894038,2.4907056713459297
8.066225165562914,2.486637124669471
8.086092715231787,2.481786154990523
8.105960264900663,2.4761678205166184
8.125827814569536,2.469799587783685
8.14569536423841,2.4627013232233983
8.165562913907285,2.454895282642056
8.185430463576159,2.446406098226732
8.205298013245034,2.4372607626331684
8.225165562913906,2.4274886096445054
8.245033112582782,2.417121290819782
8.264900662251655,2.4061927474772586
8.28476821192053,2.394739177279538
8.304635761589404,2.3827989946066657
8.324503311258278,2.37041278382093
8.344370860927151,2.3576232444440013
8.364238410596027,2.3444751271864774
8.3841059602649,2.3310151596936453
8.403973509933774,2.3172919608032756
8.42384105960265,2.303355942055614
8.443708609271523,2.2892591951572645
8.463576158940398,2.2750553640846203
8.483443708609272,2.2607995005264727
8.503311258278146,2.2465479014143432
8.52317880794702,2.2323579273826892
8.543046357615895,2.2182878011445717
8.562913907284768,2.204396384970701
8.582781456953642,2.1907429367262776
8.602649006622515,2.177386844256266
8.62251655629139,2.1643873383187526
8.642384105960264,2.1518031847476817
8.66225165562914,2.1396923570776156
8.682119205298013,2.1281116914757376
8.701986754966887,2.11711652648817
8.721854304635762,2.106760330799866
8.741721854304636,2.097094322906802
8.76158940397351,2.08816708727729
8.781456953642383,2.080024192203045
8.801324503311259,2.0727078150747267
8.821192052980132,2.0662563812255814
8.841059602649008,2.060704222734882
8.86092715231788,2.0560812636414876
8.880794701986755,2.052412737863416
8.90066225165563,2.0497189457396505
8.920529801324504,2.0480150545037583
8.940397350993377,2.0473109471785533
8.960264900662251,2.047611123371337
8.980132450331126,2.0489146542893155
9.0,2.0512151930317133
9.019867549668875,2.0545010399053654
9.039735099337747,2.0587552612119837
9.059602649006623,2.0639558587265783
9.079470198675496,2.0700759859800226
9.099337748344372,2.0770842065193267
9.119205298013245,2.0849447885801786
9.139072847682119,2.0936180300874234
9.158940397350994,2.103060607608249
9.178807947019868,2.1132259428131372
9.198675496688743,2.124064580135072
9.218543046357615,2.1355245696311815
9.23841059602649,2.147551849512368
9.258278145695364,2.1600906233783306
9.27814569536424,2.1730837278438595
9.298013245033111,2.186472986930461
9.317880794701987,2.200199550296516
9.33774834437086,2.2142042130603232
9.357615894039736,2.228427715613947
9.37748344370861,2.2428110224146627
9.397350993377483,2.2572955792647638
9.417218543046358,2.2718235490433463
9.437086092715232,2.286338026233411
9.456953642384107,2.300783230896037
9.47682119205298,2.3151046829837445
9.496688741721854,2.3292493580636844
9.516556291390728,2.3431658256445784
9.536423841059603,2.3568043713762803
9.556291390728477,2.370117104426214
9.57615894039735,2.383058051337866
9.596026490066224,2.395583237651802
9.6158940397351,2.4076507585239835
9.635761589403973,2.419220839515355
9.655629139072847,2.4302558886554912
9.675496688741722,2.440720540804748
9.695364238410596,2.4505816952580597
9.715231788079471,2.4598085474502707
9.735099337748345,2.4683726155414107
9.754966887417218,2.476247762580208
9.774834437086092,2.483410214868032
9.794701986754967,2.489838577072611
9.814569536423841,2.4955138445728533
9.834437086092716,2.500419413451968
9.854304635761588,2.50454108849665
9.874172185430464,2.507867089504382
9.894039735099337,2.510388056149248
9.913907284768213,2.5120970516079604
9.933774834437086,2.5129895651023544
9.95364238410596,2.513063513470981
9.973509933774835,2.5123192418408555
9.993377483443709,2.510759523429864
10.013245033112582,2.5083895584701796
10.033112582781456,2.5052169722031468
10.052980132450331,2.5012518118550364
10.072847682119205,2.4965065424612445
10.09271523178808,2.4909960413624423
10.112582781456952,2.4847375911499774
10.132450331125828,2.4777508707886016
10.152317880794701,2.470057944592088
10.172185430463577,2.4616832486709215
10.192052980132452,2.452653574411211
10.211920529801324,2.4429980484792804
10.2317880794702,2.432748108777994
10.251655629139073,2.4219374757083934
10.271523178807948,2.4106021180142063
10.29139072847682,2.398780212408205
10.311258278145695,2.3865120960995316
10.331125827814569,2.3738402112606978
10.350993377483444,2.360809040395745
10.370860927152318,2.347465031497842
10.390728476821192,2.3338565118203207
10.410596026490065,2.3200335890327435
10.43046357615894,2.306048038498626
10.450331125827816,2.2919531753986666
10.470198675496688,2.2778037104394144
10.490066225165563,2.2636555879387332
10.509933774834437,2.2495658051730634
10.529801324503312,2.2355922120148417
10.549668874172186,2.221793290087867
10.56953642384106,2.2082279109307383
10.589403973509933,2.1949550729873395
10.609271523178808,2.182033617642909
10.629139072847682,2.16952192499306
10.649006622516556,2.157477590568951
10.66887417218543,2.1459570848362315
10.688741721854305,2.135015397926254
10.70860927152318,2.1247056727280755
10.728476821192054,2.115078830145933
10.748344370860927,2.106183190982054
10.7682119205298,2.09806409950733
10.788079470198676,2.09076355429893
