Time (s),Filtered Signal
0.0,0.05206797515607879
0.033370165745856356,0.0857940066289037
0.06674033149171271,0.14188417533233788
0.10011049723756907,0.22991785710733884
0.13348066298342542,0.34019753647389367
0.16685082872928178,0.4498826650006467
0.20022099447513814,0.5364912421121714
0.2335911602209945,0.5899487969448707
0.26696132596685085,0.6153482594341542
0.30033149171270723,0.6246588388229952
0.33370165745856356,0.6229946430638458
0.3670718232044199,0.599013318953853
0.4004419889502763,0.5269132210565066
0.43381215469613266,0.38047185364578306
0.467182320441989,0.1518618545239405
0.5005524861878453,-0.13570260592617095
0.5339226519337017,-0.4298047663163669
0.5672928176795581,-0.6659386273832685
0.6006629834254145,-0.792453908843548
0.6340331491712707,-0.7914652540429302
0.6674033149171271,-0.6856023176611832
0.7007734806629835,-0.5274197272343459
0.7341436464088398,-0.376755594719618
0.7675138121546962,-0.27695298834560056
0.8008839779005525,-0.24085153840283205
0.8342541436464089,-0.2520109056172488
0.8676243093922653,-0.27875321573636536
0.9009944751381216,-0.2924899136021117
0.934364640883978,-0.28053575252661717
0.9677348066298344,-0.2475947140005997
1.0011049723756906,-0.20686471180908658
1.0344751381215471,-0.16738645777982894
1.0678453038674034,-0.12579546432581235
1.1012154696132597,-0.06744350382445251
1.1345856353591162,0.023967382328825563
1.1679558011049724,0.1541173576454174
1.201325966850829,0.3105151221680097
1.2346961325966852,0.46432641828457
1.2680662983425415,0.5811370250262691
1.301436464088398,0.6355161006674609
1.3348066298342542,0.6223562685274646
1.3681767955801105,0.5595783910163195
1.401546961325967,0.4808397295178489
1.4349171270718233,0.42134919380099534
1.4682872928176796,0.40285173014152376
1.501657458563536,0.42421322039633297
1.5350276243093923,0.46177993896918546
1.5683977900552488,0.4796613418788413
1.601767955801105,0.4457786802218623
1.6351381215469614,0.3466904270124893
1.6685082872928179,0.19429447457226603
1.7018784530386741,0.020891079299153303
1.7352486187845306,-0.1354547709375526
1.768618784530387,-0.24834793687570864
1.8019889502762432,-0.31461088217141964
1.8353591160220997,-0.35393140158033926
1.868729281767956,-0.3966164660085697
1.9020994475138122,-0.46574462307000036
1.9354696132596687,-0.5631214956397899
1.968839779005525,-0.6665494467963791
2.0022099447513813,-0.739941287895996
2.0355801104972375,-0.7509732879287203
2.0689502762430942,-0.6870326471180592
2.1023204419889505,-0.5613047501859837
2.135690607734807,-0.40628192501801724
2.169060773480663,-0.258662295400605
2.2024309392265193,-0.14382515789163866
2.235801104972376,-0.06761128079676955
2.2691712707182323,-0.018539940112342404
2.3025414364640886,0.0222681857354443
2.335911602209945,0.06990491817113567
2.369281767955801,0.12931862596996185
2.402651933701658,0.1961097749465422
2.436022099447514,0.26222080404795406
2.4693922651933704,0.3217240695373475
2.5027624309392267,0.3727252947256852
2.536132596685083,0.41467883463534494
2.5695027624309392,0.44382486829247597
2.602872928176796,0.4508114137188214
2.636243093922652,0.4231255244216508
2.6696132596685085,0.35176358573528665
2.7029834254143648,0.23863831516489042
2.736353591160221,0.10028756041587787
2.7697237569060777,-0.03497712868702632
2.803093922651934,-0.13614500535901802
2.8364640883977903,-0.18129844489485455
2.8698342541436466,-0.1670082898323098
2.903204419889503,-0.11088663240196446
2.936574585635359,-0.04552512980009059
2.969944751381216,-0.005667601176253517
3.003314917127072,-0.013585258162921172
3.0366850828729284,-0.06887452004080015
3.0700552486187846,-0.14752142594552334
3.103425414364641,-0.21136452411014275
3.1367955801104976,-0.22446203160743303
3.170165745856354,-0.1693947725186021
3.20353591160221,-0.05598431584348974
3.2369060773480665,0.08218399505999038
3.2702762430939227,0.20274870476166387
3.3036464088397794,0.2749777211303539
3.3370165745856357,0.2964164508259595
3.370386740331492,0.2973789608458137
3.4037569060773483,0.32949460412466325
3.4371270718232045,0.44135843039212685
3.4704972375690613,0.6506886099317919
3.5038674033149175,0.9253932450778753
3.537237569060774,1.183728032311643
3.57060773480663,1.3164947074680482
3.6039779005524863,1.2246352904551
3.6373480662983426,0.8579050324932856
3.6707182320441993,0.238580709774507
3.7040883977900556,-0.540109267597339
3.737458563535912,-1.3402890351985122
3.770828729281768,-2.0193377178169563
3.8041988950276244,-2.467432303204534
3.837569060773481,-2.629888665474875
3.8709392265193374,-2.5099640498239673
3.9043093922651937,-2.1563461812700018
3.93767955801105,-1.6437947449972783
3.9710497237569062,-1.054490312935454
4.0044198895027625,-0.4639692245334016
4.037790055248619,0.0677934512946231
4.071160220994475,0.5009911711914469
4.104530386740332,0.817066615974927
4.1379005524861885,1.0167796409363763
4.171270718232044,1.1159321939484954
4.204640883977901,1.1397459925140876
4.238011049723757,1.1169130646652474
4.271381215469614,1.0740319027092946
4.30475138121547,1.0308893485472397
4.338121546961326,0.997142579193908
4.371491712707183,0.9712232224480939
4.404861878453039,0.9422163624111191
4.438232044198895,0.8946937181156005
4.471602209944752,0.8151851193169473
4.504972375690608,0.6978852811490196
4.538342541436465,0.5471442295004593
4.5717127071823205,0.3755974532503286
4.605082872928177,0.19891321030306336
4.638453038674034,0.029890459723789755
4.67182320441989,-0.12506163366058762
4.7051933701657465,-0.2654500215989252
4.738563535911602,-0.392941158508989
4.771933701657459,-0.5068719428461239
4.805303867403316,-0.6018484116581493
4.8386740331491715,-0.6688500420197057
4.872044198895028,-0.6990964578425453
4.905414364640884,-0.6883444586016574
4.938784530386741,-0.6391876396242345
4.972154696132597,-0.5602953625066416
5.005524861878453,-0.4634189488425391
5.03889502762431,-0.3601778480138067
5.072265193370166,-0.2603714651611034
5.105635359116023,-0.17208957612488235
5.1390055248618784,-0.1023330016099749
5.172375690607735,-0.05644364154450592
5.205745856353592,-0.03580535764751677
5.239116022099448,-0.03521020706701227
5.272486187845304,-0.04244707806220557
5.30585635359116,-0.04190830600662359
5.339226519337017,-0.021505035473272316
5.372596685082874,0.02050852958615372
5.4059668508287295,0.0731088749042479
5.439337016574586,0.11689427868519922
5.472707182320442,0.13383124713088546
5.506077348066299,0.11731875171279349
5.5394475138121555,0.07666923608609195
5.572817679558011,0.03284300719955545
5.606187845303868,0.00723484229394737
5.639558011049724,0.009577030370920983
5.672928176795581,0.03192354968332153
5.706298342541437,0.052514103780834674
5.739668508287293,0.04783740119187289
5.77303867403315,0.006567607346692611
5.806408839779006,-0.06212544902960126
5.839779005524862,-0.13048860339538995
5.873149171270718,-0.16361501320186206
5.906519337016575,-0.13488148473998637
5.939889502762432,-0.038042158301566625
5.9732596685082875,0.10948452518015221
6.006629834254144,0.273177012771944
6.04,0.4142956969248335
6.073370165745857,0.5031171036690296
6.1067403314917135,0.5271756598996531
6.140110497237569,0.4921693096151247
6.173480662983426,0.4166991619633604
6.206850828729282,0.32421755586529527
6.240220994475139,0.23567012909998517
6.273591160220995,0.16485800913562532
6.306961325966851,0.1167664519705733
6.340331491712708,0.08806235637201129
6.373701657458564,0.06891856331487561
6.40707182320442,0.04580165723176164
6.440441988950277,0.005163537170563653
6.473812154696133,-0.06227851452874079
6.50718232044199,-0.15764471834776864
6.5405524861878455,-0.27185738171407353
6.573922651933702,-0.38675981895541284
6.607292817679559,-0.4796608146105687
6.640662983425415,-0.5301273666875883
6.674033149171271,-0.5267146939706305
6.707403314917127,-0.47112699518410317
6.740773480662984,-0.3781740826650288
6.774143646408841,-0.2714190120907326
6.8075138121546965,-0.17593771777634
6.840883977900553,-0.11057847856458705
6.874254143646409,-0.0822585768197623
6.907624309392266,-0.08418473728177557
6.9409944751381225,-0.09863292347287968
6.974364640883978,-0.10341290597391326
7.007734806629835,-0.07983887689588137
7.041104972375691,-0.01942345757353839
7.074475138121548,0.0730745443071062
7.107845303867403,0.18126429479568698
7.14121546961326,0.2826415124450445
7.174585635359117,0.35582181578521416
7.207955801104973,0.3868217109262218
7.241325966850829,0.3723392991548653
7.274696132596685,0.3193254881357587
7.308066298342542,0.2415473778989107
7.341436464088399,0.15476779985590403
7.3748066298342545,0.07235694656716485
7.408176795580111,0.002699417586537527
7.441546961325967,-0.051068267573956855
7.474917127071824,-0.08935753220597586
7.5082872928176805,-0.11354191239341396
7.541657458563536,-0.1238465238951007
7.575027624309393,-0.11878124351465491
7.608397790055249,-0.09636592506113811
7.641767955801106,-0.05639492650800561
7.675138121546962,-0.0023536954314737095
7.708508287292818,0.05824466280299963
7.741878453038675,0.11543363780857586
7.775248618784531,0.15951696947290453
7.808618784530387,0.18360065830557706
7.841988950276244,0.1848642370245239
7.8753591160221,0.16436112491132865
7.908729281767957,0.12594549532002558
7.9420994475138125,0.07515856551533143
7.975469613259669,0.018520336141199634
8.008839779005525,-0.03694186507058012
8.042209944751383,-0.08443154955074121
8.075580110497238,-0.11869143781630427
8.108950276243094,-0.1376019802382685
8.14232044198895,-0.1432552854850347
8.175690607734808,-0.14162430842584955
8.209060773480664,-0.1404887936238137
8.24243093922652,-0.14618695409373908
8.275801104972377,-0.16053949268417
8.309171270718233,-0.17946568848636182
8.342541436464089,-0.19420163636088175
8.375911602209946,-0.19487427549300143
8.409281767955802,-0.17502245740271385
8.442651933701658,-0.13506377037697503
8.476022099447514,-0.0830127877799059
8.509392265193371,-0.03188501165291196
8.542762430939227,0.005299148577066361
8.576132596685083,0.02084106077081614
8.60950276243094,0.015702278685304785
8.642872928176796,-0.0006287463716647606
8.676243093922652,-0.013667828986010344
8.709613259668508,-0.009276851086497924
8.742983425414366,0.02146933656264363
8.776353591160222,0.07972412430471937
8.809723756906077,0.1591579939018487
8.843093922651935,0.24827660998817036
8.87646408839779,0.333300214664611
8.909834254143647,0.400483088399993
8.943204419889504,0.4377166660421213
8.97657458563536,0.43605128270381804
9.009944751381216,0.39173307238485894
9.043314917127072,0.3084565564578513
9.07668508287293,0.19846391974461464
9.110055248618785,0.0808377808933696
9.143425414364641,-0.023632119398038835
9.176795580110499,-0.09965285657689855
9.210165745856354,-0.1435994058391983
9.24353591160221,-0.16528694399666302
9.276906077348068,-0.1836932319526407
9.310276243093924,-0.21795822510604526
9.34364640883978,-0.27762808219514123
9.377016574585635,-0.35685117031760855
9.410386740331493,-0.4355243242870669
9.443756906077349,-0.4870684513930309
9.477127071823205,-0.4893376872979938
9.510497237569062,-0.43377529195172454
9.543867403314918,-0.32892750920005326
9.577237569060774,-0.19713594781283753
9.610607734806631,-0.06620101085997429
9.643977900552487,0.04031133045951666
9.677348066298343,0.1102789856701397
9.710718232044199,0.14524030697338866
9.744088397790057,0.1572288172239898
9.777458563535912,0.16193429894321604
9.810828729281768,0.17127413914964557
9.844198895027626,0.18861451826452036
9.877569060773482,0.20865961093368907
9.910939226519337,0.22181733796573114
9.944309392265193,0.22061680407048234
9.97767955801105,0.20466518449940796
10.011049723756907,0.18139256425181058
10.044419889502763,0.16213780715289194
10.07779005524862,0.15571942705248332
10.111160220994476,0.1630224986451289
10.144530386740332,0.17553725238362441
10.17790055248619,0.178633005666717
10.211270718232045,0.15794336999092487
10.244640883977901,0.10586317525605815
10.278011049723757,0.025331734043236107
10.311381215469615,-0.07056355801732572
10.34475138121547,-0.16287406514019773
10.378121546961326,-0.2332204079089902
10.411491712707184,-0.26986360144824145
10.44486187845304,-0.2710519960880587
10.478232044198895,-0.2443376846983486
10.511602209944753,-0.20226219459090441
10.544972375690609,-0.15648619498821806
10.578342541436465,-0.11320363690289931
10.61171270718232,-0.07199089096264927
10.645082872928178,-0.028363003942586954
10.678453038674034,0.02170229761759538
10.71182320441989,0.07794804964231773
10.745193370165747,0.1347328561832634
10.778563535911603,0.1828917085262208
10.811933701657459,0.2131859463777942
10.845303867403315,0.21943765425298525
10.878674033149172,0.20012794217433083
10.912044198895028,0.1584057729867281
10.945414364640884,0.1011901431579076
10.978784530386742,0.03795814039360376
11.012154696132598,-0.020759758916514496
11.045524861878453,-0.06549458189686767
11.078895027624311,-0.09053745594127366
11.112265193370167,-0.09636979202840498
11.145635359116023,-0.09037873088783056
11.179005524861878,-0.0847248088059327
11.212375690607736,-0.09153491598887298
11.245745856353592,-0.11722888781079048
11.279116022099448,-0.15871112759500036
11.312486187845305,-0.20363098274364513
11.345856353591161,-0.2350408414199347
11.379226519337017,-0.23851889331675094
11.412596685082875,-0.2084428133155306
11.44596685082873,-0.15041869816974876
11.479337016574586,-0.07876115278568746
11.512707182320442,-0.010382099794962756
11.5460773480663,0.04184092163172607
11.579447513812156,0.07308135268328506
11.612817679558011,0.0863955468115037
11.646187845303869,0.08908232941660915
11.679558011049725,0.08800292225813519
11.71292817679558,0.08654823386335979
11.746298342541436,0.08468443503867087
11.779668508287294,0.08153023438758947
11.81303867403315,0.07836797593749975
11.846408839779006,0.0797475177404579
11.879779005524863,0.09155659273456591
11.91314917127072,0.11692136023963537
11.946519337016575,0.1523935271572811
11.979889502762433,0.18707199983174722
12.013259668508288,0.20588103682498235
12.046629834254144,0.1959284634923275
12.08,0.1529895363478534
12.113370165745858,0.08479218676452152
12.146740331491714,0.009176086532547017
12.18011049723757,-0.05234270951706988
12.213480662983427,-0.0828141352155354
12.246850828729283,-0.07621485951127369
12.280220994475139,-0.03914002643269098
12.313591160220996,0.012723971572021667
12.346961325966852,0.06145105649495842
12.380331491712708,0.09371611920657665
12.413701657458564,0.10453453699972576
12.447071823204421,0.09656370119971072
12.480441988950277,0.07596489670300972
12.513812154696133,0.0475384412380466
12.54718232044199,0.012057868122661448
12.580552486187846,-0.03267314024794055
12.613922651933702,-0.08779348724489286
12.64729281767956,-0.14903971273828429
12.680662983425416,-0.20515203601138832
12.714033149171271,-0.24070393031797577
12.747403314917127,-0.2425231751728983
12.780773480662985,-0.20665315063963502
12.81414364640884,-0.14216269599536643
12.847513812154697,-0.06946836417930159
12.880883977900554,-0.013468986804971302
12.91425414364641,0.005699543678330946
12.947624309392266,-0.019630155791224395
12.980994475138122,-0.08167264527979043
13.01436464088398,-0.1600151481134313
13.047734806629835,-0.22894563984991287
13.081104972375691,-0.2663087563813962
13.114475138121549,-0.2605542642631552
13.147845303867404,-0.2135823987012855
13.18121546961326,-0.13874546733723084
13.214585635359118,-0.05520420050941237
13.247955801104974,0.018947892553656243
13.28132596685083,0.07221270199831634
13.314696132596685,0.10213849241822479
13.348066298342543,0.11435827323621899
13.381436464088399,0.1191531258249452
13.414806629834255,0.12712414220102844
13.448176795580112,0.1454764686448167
13.481546961325968,0.1758886322697495
13.514917127071824,0.21434101843373798
13.548287292817681,0.25281186729077304
13.581657458563537,0.2823718312718002
13.615027624309393,0.2967973849073395
13.648397790055249,0.2954177805729501
13.681767955801106,0.28378867514473266
13.715138121546962,0.2713018823471194
13.748508287292818,0.2661031666010495
13.781878453038676,0.2692995312167857
13.815248618784532,0.2715183467902424
13.848618784530387,0.25451140235460273
13.881988950276245,0.1983776054192685
13.9153591160221,0.09189362005558392
13.948729281767957,-0.058933167696402576
13.982099447513813,-0.22899636832777404
14.01546961325967,-0.38100599634117605
14.048839779005526,-0.4788878119683482
14.082209944751382,-0.5017707526270546
14.11558011049724,-0.45200137699965165
14.148950276243095,-0.3533973534809757
14.182320441988951,-0.2406997171940627
14.215690607734807,-0.14535623678358478
14.249060773480664,-0.08422590871307983
14.28243093922652,-0.055954427011624994
14.315801104972376,-0.04578626862583008
14.349171270718234,-0.03558001991361017
14.38254143646409,-0.013711062886570344
14.415911602209945,0.01981410396581899
14.449281767955803,0.05492001362051974
14.482651933701659,0.07817771009301255
14.516022099447515,0.08077911941276816
14.54939226519337,0.06357865647883232
14.582762430939228,0.03677883732721627
14.616132596685084,0.014691060646260754
14.64950276243094,0.00848904120216226
14.682872928176797,0.02076719264863452
14.716243093922653,0.0446231521799802
14.749613259668509,0.06752676111199792
14.782983425414367,0.0777375714735637
14.816353591160222,0.06981304180019783
14.849723756906078,0.046428273470379595
14.883093922651934,0.015877209622630072
14.916464088397792,-0.01299269978876473
14.949834254143648,-0.03538446376239051
14.983204419889503,-0.05216693618047279
15.016574585635361,-0.06788563399213965
15.049944751381217,-0.08671802779970637
15.083314917127073,-0.10907803747934733
15.116685082872928,-0.13106405289618842
15.150055248618786,-0.1470783948683192
15.183425414364642,-0.15383430784371466
15.216795580110498,-0.15290896634883958
15.250165745856355,-0.14973274237627673
15.283535911602211,-0.14910939922969615
15.316906077348067,-0.14976935133748165
15.350276243093925,-0.14155217125083672
15.38364640883978,-0.1077702286297406
15.417016574585636,-0.03256114996264999
15.450386740331492,0.08991346312890326
15.48375690607735,0.24904666217797963
15.517127071823205,0.4178888343502984
15.550497237569061,0.5606528953826693
15.583867403314919,0.6450212253659215
15.617237569060775,0.654228167420234
15.65060773480663,0.5936724455801753
15.683977900552488,0.48893726564029133
15.717348066298344,0.3756565824514849
15.7507182320442,0.2851408662347269
15.784088397790056,0.23159355744248655
15.817458563535913,0.20629794088847594
15.85082872928177,0.181473172291526
15.884198895027625,0.12259457763817753
15.917569060773483,0.004358321660741297
15.950939226519338,-0.17634902089002114
15.984309392265194,-0.39620348261350863
16.01767955801105,-0.6121390597315406
16.051049723756908,-0.7764787755463302
16.084419889502765,-0.8542102199276043
16.11779005524862,-0.8351579214937825
16.151160220994477,-0.7361948229366156
16.18453038674033,-0.593158442362705
16.21790055248619,-0.4465299004079227
16.251270718232046,-0.32715134187279094
16.2846408839779,-0.2475098620938822
16.318011049723758,-0.20111197305738002
16.351381215469615,-0.16886772403490674
16.38475138121547,-0.1288659394832954
16.418121546961327,-0.06533303775500056
16.451491712707185,0.026251024201273718
16.48486187845304,0.1388688849804334
16.518232044198896,0.25762445341340867
16.551602209944754,0.36534954793597696
16.584972375690608,0.44794606044299773
16.618342541436466,0.4977383033431046
16.651712707182323,0.5140471825493392
16.685082872928177,0.5013097687566803
16.718453038674035,0.4660091343720417
16.751823204419892,0.41406539891094607
16.785193370165747,0.349933394141894
16.818563535911604,0.2775835298538056
16.851933701657458,0.2023424502092889
16.885303867403316,0.13193704626675604
16.918674033149173,0.0754703987075671
16.952044198895027,0.04032969005314557
16.985414364640885,0.028465622489398847
17.018784530386743,0.03418521144665218
17.052154696132597,0.04505743918119807
17.085524861878454,0.04599391968152702
17.118895027624312,0.024896730474964164
17.152265193370166,-0.022607423157388604
17.185635359116024,-0.09145354652187877
17.21900552486188,-0.16916332799735145
17.252375690607735,-0.24064254300091
