Frequency (Hz),Amplitude
0.0,0.27417078330762656
0.020066889632107024,0.2747321939490134
0.04013377926421405,0.27640745245020976
0.060200668896321065,0.2791701836417915
0.0802675585284281,0.282978167303061
0.10033444816053512,0.2877756905618734
0.12040133779264213,0.293496394930941
0.14046822742474915,0.30006629715659133
0.1605351170568562,0.3074067012932982
0.1806020066889632,0.3154367943202154
0.20066889632107024,0.3240758043446497
0.22073578595317725,0.3332446790827469
0.24080267558528426,0.34286730168025287
0.2608695652173913,0.35287129811241635
0.2809364548494983,0.36318850801058766
0.3010033444816054,0.3737551939547322
0.3210702341137124,0.38451205846730774
0.34113712374581934,0.3954041276201924
0.3612040133779264,0.4063805484619092
0.3812709030100334,0.41739433628784994
0.4013377926421405,0.4284020980665199
0.42140468227424743,0.4393637504288637
0.4414715719063545,0.45024224448936223
0.4615384615384615,0.4610033051821679
0.4816053511705685,0.4716151894844497
0.5016722408026756,0.48204846558554293
0.5217391304347826,0.4922758135004971
0.5418060200668896,0.5022718466185644
0.5618729096989966,0.5120129530639668
0.5819397993311036,0.5214771554076579
0.6020066889632107,0.5306439871163692
0.6220735785953176,0.539494384095259
0.6421404682274248,0.5480105897278071
0.6622073578595318,0.5561760719092183
0.6822742474916387,0.5639754506871296
0.7023411371237458,0.5713944352508082
0.7224080267558528,0.5784197691388994
0.7424749163879598,0.5850391826598117
0.7625418060200668,0.5912413516358515
0.7826086956521738,0.5970158616891834
0.802675585284281,0.6023531773857477
0.8227424749163879,0.6072446156409421
0.8428093645484949,0.6116823228694828
0.862876254180602,0.6156592554324283
0.882943143812709,0.6191691629965685
0.903010033444816,0.6222065744772441
0.923076923076923,0.6247667862856154
0.9431438127090299,0.6268458526459212
0.963210702341137,0.6284405777887729
0.983277591973244,0.6295485098631824
1.0033444816053512,0.6301679364439051
1.0234113712374582,0.6302978815421426
1.0434782608695652,0.6299381040574299
1.0635451505016722,0.629089097637088
1.0836120401337792,0.6277520919376804
1.1036789297658862,0.6259290553106975
1.1237458193979932,0.6236226989632657
1.1438127090301002,0.6208364826734266
1.1638795986622072,0.6175746221711721
1.1839464882943145,0.6138420983284392
1.2040133779264215,0.6096446683376906
1.2240802675585283,0.6049888790972029
1.2441471571906353,0.5998820830646854
1.2642140468227423,0.5943324568886671
1.2842809364548495,0.5883490231808909
1.3043478260869565,0.5819416758532007
1.3244147157190636,0.5751212095102652
1.3444816053511706,0.5678993534652998
1.3645484949832773,0.5602888110316859
1.3846153846153846,0.5523033048381039
1.4046822742474916,0.5439576290203668
1.4247491638795986,0.53526770925847
1.4448160535117056,0.5262506717519926
1.4648829431438126,0.5169249223578708
1.4849498327759196,0.5073102372486482
1.5050167224080266,0.49742786657754956
1.5250836120401337,0.4873006527493325
1.5451505016722407,0.4769531649737929
1.5652173913043477,0.4664118517954231
1.5852842809364547,0.4557052132101806
1.605351170568562,0.44486399374236946
1.625418060200669,0.43392139738244817
1.6454849498327757,0.4229133244764451
1.6655518394648827,0.4118786293626636
1.6856187290969897,0.4008593955892593
1.705685618729097,0.3899012226832849
1.725752508361204,0.3790535144053243
1.745819397993311,0.3683697529190195
1.765886287625418,0.35790773606478055
1.7859531772575248,0.3477297458010512
1.806020066889632,0.3379026049953689
1.826086956521739,0.3284975677452025
1.846153846153846,0.31958997674816464
1.866220735785953,0.3112586125366624
1.8862876254180598,0.30358465764959935
1.9063545150501673,0.29665020929824926
1.926421404682274,0.29053630250030693
1.9464882943143813,0.2853204563025249
1.966555183946488,0.28107382860169283
1.9866220735785953,0.27785815274781117
2.0066889632107023,0.2757227148068987
2.026755852842809,0.2747016897720078
2.0468227424749164,0.2748121630799186
2.0668896321070234,0.27605310522026527
2.0869565217391304,0.2784054460398054
2.1070234113712374,0.28183323735807225
2.1270903010033444,0.2862857374993659
2.1471571906354514,0.29170013791893795
2.1672240802675584,0.29800460319625705
2.1872909698996654,0.3051213121875564
2.2073578595317724,0.3129692527294321
2.2274247491638794,0.3214666094537025
2.2474916387959865,0.33053267051504437
2.267558528428094,0.3400892489268159
2.2876254180602005,0.3500616615193343
2.3076923076923075,0.3603793340954539
2.3277591973244145,0.37097610979616724
2.3478260869565215,0.38179033471817436
2.367892976588629,0.39276478554973715
2.3879598662207355,0.4038464922064832
2.408026755852843,0.41498649658387055
2.4280936454849495,0.42613957792062024
2.4481605351170566,0.43726396643395565
2.468227424749164,0.4483210599227119
2.4882943143812706,0.4592751527653789
2.508361204013378,0.4700931828929908
2.5284280936454846,0.480744499599406
2.548494983277592,0.49120065319711054
2.568561872909699,0.5014352063095338
2.5886287625418056,0.5114235658344843
2.608695652173913,0.5211428341775634
2.6287625418060196,0.5305716781413173
2.648829431438127,0.5396902137869857
2.668896321070234,0.5484799056120696
2.688963210702341,0.5569234784688885
2.709030100334448,0.5650048407635488
2.7290969899665547,0.5727090176030915
2.749163879598662,0.5800220926915728
2.769230769230769,0.5869311579045448
2.789297658862876,0.593424269594788
2.809364548494983,0.5994904107945572
2.82943143812709,0.6051194585837467
2.849498327759197,0.6103021559858243
2.869565217391304,0.6150300878378079
2.8896321070234112,0.6192956601540295
2.9096989966555182,0.6230920825711589
2.9297658862876252,0.6264133535196298
2.9498327759197323,0.6292542478206117
2.9698996655518393,0.6316103064539971
2.9899665551839463,0.6334778282857275
3.0100334448160533,0.6348538635813235
3.0301003344481603,0.6357362091676294
3.0501672240802673,0.6361234051374546
3.0702341137123748,0.6360147330229606
3.0903010033444813,0.6354102153919887
3.1103678929765888,0.6343106168514394
3.1304347826086953,0.6327174464685995
3.1505016722408024,0.630632961650893
3.1705685618729094,0.6280601735532917
3.1906354515050164,0.6250028541132776
3.210702341137124,0.6214655448461281
3.2307692307692304,0.6174535675683512
3.250836120401338,0.6129730372554274
3.270903010033445,0.6080308772827775
3.2909698996655514,0.60263483734579
3.311036789297659,0.5967935144079415
3.3311036789297654,0.5905163770851147
3.351170568561873,0.5838137939415958
3.3712374581939795,0.5766970662482824
3.391304347826087,0.5691784658391073
3.411371237458194,0.5612712787968003
3.4314381270903005,0.5529898558057472
3.451505016722408,0.5443496701278396
3.471571906354515,0.5353673842861482
3.491638795986622,0.5260609266799106
3.511705685618729,0.5164495795000991
3.531772575250836,0.5065540794608385
3.551839464882943,0.49639673300048903
3.5719063545150496,0.48600154772155896
3.591973244147157,0.47539438190843575
3.612040133779264,0.46460311395352977
3.632107023411371,0.45365783338568866
3.652173913043478,0.44259105486218525
3.672240802675585,0.4314379558577068
3.692307692307692,0.4202366377309357
3.712374581939799,0.40902840819248065
3.732441471571906,0.39785808071239814
3.752508361204013,0.38677428281225
3.7725752508361197,0.3758297601665075
3.7926421404682276,0.3650816566642223
3.8127090301003346,0.3545917417944488
3.832775919732441,0.34442654585365245
3.852842809364548,0.33465735088384163
3.872909698996655,0.32535997200844713
3.8929765886287626,0.31661425211495653
3.9130434782608696,0.3085031862678693
3.933110367892976,0.30111159602265747
3.953177257525083,0.29452429424720544
3.9732441471571907,0.2888237240627624
3.9933110367892977,0.284087123903594
4.013377926421405,0.2803833605480884
4.033444816053511,0.2777696695267035
4.053511705685618,0.27628862373827817
4.073578595317726,0.27596568757664164
4.093645484949833,0.27680768204265055
4.113712374581939,0.2788023805285011
4.133779264214047,0.2819192942131964
4.153846153846153,0.28611152998770945
4.173913043478261,0.29131845823307295
4.193979933110368,0.2974688463723169
4.214046822742475,0.3044841072464666
4.234113712374581,0.3122813661066679
4.254180602006689,0.320776139786648
4.274247491638796,0.3298845184388321
4.294314381270903,0.3395248234942773
4.314381270903009,0.34961877510417155
4.334448160535117,0.36009223704067544
4.354515050167224,0.37087562110578165
4.374581939799331,0.38190403277713564
4.394648829431437,0.39311723110720437
4.414715719063545,0.404459463441763
4.434782608695651,0.4158792224250037
4.454849498327759,0.4273289607608161
4.474916387959866,0.4387647890896507
4.494983277591973,0.45014617430116177
4.5150501672240795,0.46143564948816995
4.535117056856188,0.4725985422663505
4.555183946488294,0.4836027250098084
4.575250836120401,0.49441838838071644
4.595317725752508,0.505017838101737
4.615384615384615,0.5153753140260414
4.635451505016722,0.525466830041453
4.655518394648829,0.5352700330842318
4.6755852842809364,0.544764079447177
4.695652173913043,0.5539295265853916
4.71571906354515,0.5627482387077635
4.735785953177258,0.5712033045640411
4.7558528428093645,0.5792789659771068
4.775919732441471,0.5869605558139767
4.795986622073578,0.5942344442309483
4.816053511705686,0.6010879921619762
4.8361204013377925,0.6075095111430964
4.856187290969899,0.6134882286789838
4.8762541806020065,0.6190142584587239
4.896321070234113,0.6240785748194303
4.916387959866221,0.6286729909369754
4.936454849498328,0.6327901402949709
4.956521739130435,0.6364234610472673
4.976588628762541,0.6395671829457216
4.996655518394649,0.6422163165558846
5.016722408026756,0.6443666445282884
5.036789297658863,0.6460147147345596
5.056856187290969,0.6471578351142793
5.076923076923077,0.6477940701134303
5.096989966555184,0.6479222386271656
5.117056856187291,0.6475419133903001
5.137123745819398,0.6466534217880665
5.157190635451505,0.64525784808919
5.177257525083611,0.643357037131862
5.197324414715719,0.640953599523323
5.217391304347826,0.6380509184445997
5.237458193979933,0.6346531581847882
5.257525083612039,0.6307652745647633
5.277591973244148,0.6263930274487515
5.297658862876254,0.6215429955846614
5.317725752508361,0.616222594061752
5.337792642140468,0.6104400947272457
5.357859531772575,0.6042046499633383
5.377926421404682,0.5975263202939293
5.397993311036789,0.5904161063671757
5.418060200668896,0.5828859859468037
5.438127090301003,0.57494895664334
5.458193979933109,0.5666190852274693
5.478260869565218,0.5579115644913798
5.498327759197324,0.548842778761992
5.518394648829431,0.5394303793204617
5.538461538461538,0.5296933711449551
5.558528428093646,0.5196522125631662
5.578595317725752,0.5093289295714875
5.598662207357859,0.4987472467365447
5.618729096989966,0.48793273672343895
5.638795986622073,0.47691299056519193
5.65886287625418,0.4657178107554797
5.678929765886288,0.45437942905001005
5.698996655518394,0.4429327504104163
5.719063545150501,0.43141562369281455
5.739130434782608,0.4198691382998807
5.759197324414716,0.4083379438526172
5.7792642140468224,0.39687058670590497
5.799331103678929,0.3855198524788383
5.8193979933110365,0.3743430973037864
5.839464882943144,0.36340254183955145
5.8595317725752505,0.35276549099295545
5.879598662207358,0.34250442882573273
5.8996655518394645,0.3326969230042243
5.919732441471571,0.3234252581532298
5.9397993311036785,0.31477570591931037
5.959866220735786,0.3068373366385065
5.9799331103678925,0.29970029021034794
5.999999999999999,0.29345345973131587
6.020066889632107,0.2881816063444344
6.040133779264214,0.28396201734890747
6.060200668896321,0.2808609311886974
6.080267558528428,0.2789300590604329
6.100334448160535,0.2782036004805338
6.120401337792642,0.27869614686880856
6.1404682274247495,0.2804017764312772
6.160535117056856,0.2832944766821003
6.180602006688963,0.2873298277347784
6.200668896321069,0.29244769451610503
6.2207357859531776,0.29857555633802785
6.240802675585284,0.3056320694872152
6.260869565217391,0.31353050461810433
6.280936454849498,0.32218179710301154
6.301003344481605,0.33149706089835435
6.321070234113712,0.3413895176108303
6.341137123745819,0.3517758673659153
6.361204013377926,0.362577173422344
6.381270903010033,0.37371935238195375
6.40133779264214,0.38513336359207506
6.421404682274248,0.3967551822613914
6.441471571906354,0.40852562672982895
6.461538461538461,0.4203900951629177
6.481605351170568,0.43229825292191465
6.501672240802676,0.44420370001778614
6.521739130434782,0.4560636386480036
6.54180602006689,0.46783855368003585
6.561872909698996,0.47949191374019373
6.581939799331103,0.4909898969011873
6.60200668896321,0.502301142470845
6.622073578595318,0.5133965287596058
6.642140468227424,0.5242489756996831
6.662207357859531,0.5348332706157011
6.682274247491639,0.5451259151660302
6.702341137123746,0.5551049913866166
6.722408026755852,0.5647500448016042
6.742474916387959,0.5740419826722626
6.762541806020066,0.5829629856000347
6.782608695652174,0.5914964308634593
6.80267558528428,0.5996268260347487
6.822742474916388,0.6073397515843783
6.842809364548494,0.6146218113333471
6.862876254180601,0.6214605897532984
6.882943143812709,0.6278446152405213
6.903010033444816,0.63376332860428
6.9230769230769225,0.6392070561099783
6.94314381270903,0.6441669865080599
6.963210702341137,0.6486351515581388
6.983277591973244,0.6526044096283153
7.0033444816053505,0.65606843201103
7.023411371237458,0.659021691652437
7.0434782608695645,0.6614594540408271
7.063545150501672,0.6633777700438187
7.083612040133779,0.6647734705243011
7.103678929765886,0.6656441626011176
7.123745819397993,0.6659882274550379
7.143812709030099,0.6658048196122474
7.1638795986622075,0.6650938676685775
7.183946488294314,0.6638560764476508
7.204013377926421,0.6620929306163765
7.224080267558528,0.6598066998117724
7.2441471571906355,0.6570004453647516
7.264214046822742,0.6536780287403412
7.2842809364548495,0.649844121850019
7.304347826086956,0.6455042194309375
7.324414715719063,0.6406646537308294
7.34448160535117,0.6353326117854708
7.364548494983278,0.6295161556306439
7.384615384615384,0.6232242458518071
7.404682274247491,0.6164667689450022
7.424749163879598,0.6092545690425363
7.444816053511706,0.6015994846473115
7.464882943143812,0.5935143911242333
7.48494983277592,0.5850132498142141
7.505016722408026,0.5761111647704139
7.525083612040134,0.5668244482663344
7.545150501672239,0.5571706963929325
7.565217391304348,0.5471688762466467
7.585284280936455,0.5368394264088657
7.605351170568561,0.5262043726263406
7.625418060200669,0.5152874608111827
7.645484949832775,0.5041143096741564
7.665551839464882,0.492712585459661
7.685618729096991,0.4811122013288354
7.705685618729096,0.46934554387947836
7.725752508361204,0.45744772901435554
7.74581939799331,0.4454568887506744
7.765886287625418,0.43341448943298516
7.785953177257525,0.4213656799347661
7.806020066889631,0.4093596655015913
7.826086956521739,0.39745009850675384
7.846153846153847,0.385695471089782
7.866220735785952,0.37415948591994297
7.88628762541806,0.362911369720576
7.906354515050166,0.3520260794937939
7.926421404682274,0.3415843339512537
7.946488294314381,0.33167238387041215
7.966555183946488,0.32238141799747205
7.986622073578595,0.3138064910036348
8.006688963210701,0.30604486467425074
8.02675585284281,0.2991936825765442
8.046822742474916,0.29334696090287965
8.066889632107022,0.288591977862191
8.08695652173913,0.2850052735738109
8.107023411371236,0.28264860863093744
8.127090301003344,0.2815653338636177
8.147157190635452,0.2817776527839217
8.167224080267557,0.2832851816920465
8.187290969899665,0.2860650327466294
8.207357859531772,0.2900734036684579
8.227424749163879,0.2952484210499511
8.247491638795987,0.30151381720277143
8.267558528428093,0.3087829590663143
8.2876254180602,0.3169627888392559
8.307692307692307,0.3259573465873051
8.327759197324415,0.335670681493201
8.347826086956522,0.3460090841203799
8.367892976588628,0.35688266625513165
8.387959866220736,0.36820637218030405
8.408026755852843,0.37990053044748195
8.42809364548495,0.39189105755914083
8.448160535117056,0.40410941380587556
8.468227424749163,0.4164923942308356
8.488294314381271,0.42898181922971207
8.508361204013378,0.4415241723982341
8.528428093645484,0.4540702191194221
8.548494983277592,0.4665746282965011
8.568561872909697,0.47899561133679647
8.588628762541806,0.4912945865196734
8.608695652173914,0.5034358727399206
8.628762541806019,0.5153864138536842
8.648829431438127,0.5271155330896584
8.668896321070234,0.538594715930617
8.68896321070234,0.549797419294499
8.709030100334449,0.5606989045916505
8.729096989966555,0.5712760921878411
8.749163879598662,0.5815074348831766
8.769230769230768,0.5913728081697978
8.789297658862875,0.6008534152206234
8.809364548494983,0.6099317047644467
8.82943143812709,0.6185913002038708
8.849498327759196,0.6268169385251656
8.869565217391303,0.6345944177264573
8.889632107023411,0.6419105516524666
8.909698996655518,0.6487531312690902
8.929765886287624,0.6551108915395432
8.949832775919733,0.6609734831780498
8.96989966555184,0.6663314486570199
8.989966555183946,0.6711762019317548
9.010033444816054,0.6755000114240785
9.030100334448159,0.6792959858744515
9.050167224080267,0.6825580627320282
9.070234113712376,0.685280998805764
9.09030100334448,0.6874603629469662
9.110367892976589,0.6890925305768558
9.130434782608695,0.6901746799118076
9.150501672240802,0.6907047897750034
9.17056856187291,0.6906816389172533
9.190635451505017,0.6901048068022705
9.210702341137123,0.6889746758428449
9.23076923076923,0.6872924351064265
9.250836120401337,0.6850600855399253
9.270903010033445,0.682280446796935
9.290969899665551,0.6789571657855087
9.311036789297658,0.6750947270918742
9.331103678929765,0.6706984654770164
9.351170568561873,0.6657745806877635
9.37123745819398,0.6603301548751708
9.391304347826086,0.6543731729699764
9.411371237458194,0.6479125464298797
9.4314381270903,0.6409581408474427
9.451505016722408,0.6335208079922979
9.471571906354516,0.6256124229588058
9.49163879598662,0.6172459272021816
9.511705685618729,0.6084353783743438
9.531772575250837,0.5991960080179247
9.551839464882942,0.589544288344414
9.57190635451505,0.5794980095120047
9.591973244147155,0.5690763690319607
9.612040133779264,0.5583000751678933
9.632107023411372,0.547191466447998
9.652173913043477,0.535774649679983
9.672240802675585,0.5240756591295606
9.692307692307692,0.5121226397752954
9.712374581939798,0.49994605775166323
9.732441471571907,0.48757894118482364
9.752508361204013,0.4750571545309027
9.77257525083612,0.4624197091241143
9.792642140468226,0.4497091117581721
9.812709030100335,0.4369717515110998
9.832775919732441,0.42425832234367944
9.852842809364548,0.4116242748057847
9.872909698996656,0.3991302839057666
9.89297658862876,0.38684271117408064
9.91304347826087,0.37483402649419756
9.933110367892976,0.3631831388492214
9.953177257525082,0.35197556468596
9.97324414715719,0.3413033391058297
9.993311036789297,0.3312645513361298
10.013377926421404,0.32196236742707113
10.033444816053512,0.31350339879892203
10.053511705685617,0.3059952972769953
10.073578595317725,0.2995435187283486
10.093645484949834,0.2942473072553972
10.113712374581938,0.2901951067563834
10.133779264214047,0.28745978281782825
10.153846153846153,0.28609418895559036
10.17391304347826,0.28612767809708156
10.193979933110368,0.28756409498049684
10.214046822742475,0.2903815793750714
10.234113712374581,0.29453420938310393
10.254180602006688,0.29995520521740165
10.274247491638796,0.3065611869760602
10.294314381270903,0.314256889306509
10.31438127090301,0.3229397817657308
10.334448160535118,0.3325041832281492
10.354515050167223,0.34284463302273016
10.37458193979933,0.3538584412306738
10.394648829431437,0.3654474582281027
10.414715719063544,0.3775191727910696
10.434782608695652,0.38998727620171586
10.454849498327757,0.4027718295075037
10.474916387959865,0.41579915479070173
10.494983277591974,0.42900154845155236
10.515050167224079,0.44231689110699896
10.535117056856187,0.4556882079283573
10.555183946488295,0.4690632163169827
10.5752508361204,0.4823938848400946
10.595317725752508,0.4956360178571834
10.615384615384615,0.5087488736029059
10.635451505016722,0.5216948189903833
10.65551839464883,0.534439021488421
10.675585284280936,0.5469491766411836
10.695652173913043,0.559195268790394
