Time (s),Filtered Signal
0.0,-0.016497568311507792
0.033370535714285714,-0.0736489369426108
0.06674107142857143,-0.1166432834260968
0.10011160714285713,-0.13425155744063516
0.13348214285714285,-0.12040166995940384
0.16685267857142858,-0.07548017638472711
0.20022321428571427,-0.00631142395963713
0.23359375,0.07519997694915112
0.2669642857142857,0.15442231467201953
0.30033482142857143,0.21674964416669526
0.33370535714285715,0.25015582544570025
0.36707589285714287,0.24720389729227554
0.40044642857142854,0.20646988755245146
0.43381696428571426,0.13340763113438417
0.4671875,0.04039326308520704
0.5005580357142857,-0.05470441525548421
0.5339285714285714,-0.13205498032768076
0.5672991071428571,-0.17530159029687004
0.6006696428571429,-0.1772995354397459
0.6340401785714286,-0.14346122751466675
0.6674107142857143,-0.09026754440482979
0.70078125,-0.038502157686193174
0.7341517857142857,-0.0037091259988517623
0.7675223214285715,0.011441086524559023
0.8008928571428571,0.018375813523040827
0.8342633928571428,0.03586961403106554
0.8676339285714285,0.0781276395085671
0.9010044642857142,0.14389243616157404
0.934375,0.21298709033333568
0.9677455357142857,0.25325779862673725
1.0011160714285714,0.2353891649998989
1.0344866071428571,0.14851963839625068
1.0678571428571428,0.008612252427643158
1.1012276785714286,-0.14516732439132568
1.1345982142857143,-0.26493696923849724
1.16796875,-0.3129710380567392
1.2013392857142857,-0.2764177089532033
1.2347098214285714,-0.17146147346093124
1.2680803571428572,-0.0356084916471228
1.3014508928571429,0.0878483252483286
1.3348214285714286,0.16599821251625754
1.3681919642857143,0.18630620272163992
1.4015625,0.1570191393523776
1.4349330357142858,0.09916534772577076
1.4683035714285715,0.034928214486921676
1.5016741071428572,-0.021759763736819267
1.535044642857143,-0.0682965323709171
1.5684151785714286,-0.10961219423083121
1.6017857142857141,-0.1505452390186409
1.6351562499999999,-0.18932807512342303
1.6685267857142856,-0.21630529192666356
1.7018973214285713,-0.2188811608034923
1.735267857142857,-0.18991981978069328
1.7686383928571427,-0.13453629478243834
1.8020089285714285,-0.07079478272430074
1.8353794642857142,-0.02304321898331435
1.86875,-0.010730315137841662
1.9021205357142856,-0.038311812075776275
1.9354910714285714,-0.0916860027012977
1.968861607142857,-0.14345957104121412
2.002232142857143,-0.1647988108629095
2.0356026785714287,-0.13810562375312718
2.0689732142857142,-0.06427171950638601
2.10234375,0.03885078971874331
2.1357142857142857,0.14549186017759105
2.169084821428571,0.23350784874625147
2.202455357142857,0.29259823710891625
2.2358258928571426,0.3257005769669285
2.2691964285714286,0.3439856532639347
2.302566964285714,0.35906388852461146
2.3359375,0.376823013039296
2.3693080357142855,0.3956303735434876
2.4026785714285714,0.40877686835533156
2.436049107142857,0.40882233251751726
2.469419642857143,0.39105335648008194
2.5027901785714284,0.3544566152432135
2.5361607142857143,0.30039460910161053
2.56953125,0.2304292128468301
2.6029017857142858,0.1449460870838499
2.6362723214285713,0.043536728676869585
2.669642857142857,-0.07300442364789517
2.7030133928571427,-0.20018015486266635
2.7363839285714286,-0.32832875267597256
2.769754464285714,-0.44341831678292704
2.803125,-0.5303293615051184
2.8364955357142856,-0.5776276981255963
2.8698660714285715,-0.5819427837563683
2.903236607142857,-0.5499778572517208
2.936607142857143,-0.49696637560784956
2.9699776785714285,-0.4417435189337483
3.0033482142857144,-0.4000027263680686
3.03671875,-0.3782363249645469
3.070089285714286,-0.3709187667715616
3.1034598214285714,-0.36249763079929215
3.1368303571428573,-0.3338979768122173
3.170200892857143,-0.27118995561057235
3.2035714285714283,-0.172797456750952
3.2369419642857142,-0.05191805663339741
3.2703124999999997,0.06726284112064486
3.3036830357142857,0.15825602147068007
3.337053571428571,0.2022974380513634
3.370424107142857,0.19550704973505123
3.4037946428571426,0.15023261889918899
3.4371651785714286,0.09025842380939726
3.470535714285714,0.04231089499588769
3.50390625,0.02785509380936236
3.5372767857142855,0.058756974210300114
3.5706473214285714,0.13814876118478184
3.604017857142857,0.26488162391292597
3.637388392857143,0.43780888490969627
3.6707589285714284,0.6560128600252381
3.7041294642857143,0.9132509532568245
3.7375,1.1885302251848526
3.7708705357142858,1.4381480089576666
3.8042410714285713,1.5958621808917735
3.837611607142857,1.5858088129477281
3.8709821428571427,1.3474645759877621
3.9043526785714286,0.8651359703903853
3.937723214285714,0.18929705699863814
3.97109375,-0.5629972065296119
4.004464285714286,-1.2346381512845954
4.0378348214285715,-1.6760635190493667
4.0712053571428575,-1.7965444573326563
4.1045758928571425,-1.5973475138671842
4.1379464285714285,-1.171292271039033
4.171316964285714,-0.6679344493918524
4.2046875,-0.2391815469115301
4.238058035714285,0.011574523643727476
4.271428571428571,0.056690283925062764
4.304799107142857,-0.06029991170407037
4.338169642857142,-0.25487551285139015
4.371540178571428,-0.4412763816318818
4.404910714285714,-0.5640727597237596
4.43828125,-0.6099027312802897
4.471651785714285,-0.5979140225947367
4.505022321428571,-0.5570429554956478
4.538392857142857,-0.5033571288698299
4.571763392857143,-0.42943009150177164
4.605133928571428,-0.310862827783772
4.638504464285714,-0.1257765309761865
4.671875,0.12418017219087
4.705245535714286,0.40421036566486
4.738616071428571,0.6554414499331445
4.771986607142857,0.8198207704377329
4.805357142857143,0.868479908030875
4.838727678571429,0.8178927029763027
4.872098214285714,0.7234954628014034
4.90546875,0.6521825358066053
4.938839285714286,0.6470689975684978
4.972209821428572,0.7032904864557589
5.005580357142857,0.7687876946215632
5.038950892857143,0.7709987991791635
5.072321428571429,0.656068977086543
5.105691964285715,0.4197242839339855
5.1390625,0.11294227422536778
5.172433035714286,-0.18094424212241475
5.2058035714285715,-0.3856001279614351
5.2391741071428575,-0.46669138878353866
5.2725446428571425,-0.4445682997063456
5.3059151785714285,-0.37910590888802265
5.339285714285714,-0.3360425771808286
5.3726562499999995,-0.3533076707749314
5.406026785714285,-0.42473526258625316
5.439397321428571,-0.5084196487262885
5.472767857142857,-0.5536020887762085
5.506138392857142,-0.5304854019499896
5.539508928571428,-0.44648112423137065
5.572879464285714,-0.3402507149666791
5.60625,-0.2571947986511021
5.639620535714285,-0.22027511807193548
5.672991071428571,-0.2128606982857885
5.706361607142857,-0.18417799836434529
5.739732142857143,-0.07603745737391883
5.773102678571428,0.14207729334329783
5.806473214285714,0.4477531547282338
5.83984375,0.7645460863265628
5.873214285714286,0.9880080592098535
5.906584821428571,1.0284197055076914
5.939955357142857,0.8509688547546798
5.973325892857143,0.49441947456638774
6.006696428571429,0.05892846971532777
6.040066964285714,-0.33196764810290946
6.0734375,-0.5781705884379807
6.106808035714286,-0.6379527535367007
6.140178571428572,-0.5366424464118786
6.173549107142857,-0.3475313161530341
6.206919642857143,-0.1561845803847015
6.240290178571429,-0.025744074130832274
6.273660714285715,0.021699259060726835
6.30703125,0.002013946242658325
6.340401785714286,-0.050362859299114375
6.3737723214285715,-0.10559543804176844
6.407142857142857,-0.152849182954145
6.4405133928571425,-0.19969882113346027
6.4738839285714285,-0.25919886676535386
6.507254464285714,-0.333932022052517
6.5406249999999995,-0.4074968721586824
6.573995535714285,-0.44920666654126035
6.607366071428571,-0.4299371487774154
6.640736607142857,-0.3403456419434721
6.674107142857142,-0.2007104286275409
6.707477678571428,-0.05551704138097937
6.740848214285714,0.046304569581857795
6.77421875,0.07683714202705602
6.807589285714285,0.04781479675392379
6.840959821428571,0.011957752723325644
6.874330357142857,0.04377382728295541
6.907700892857143,0.20612117353252554
6.941071428571428,0.5164595909635734
6.974441964285714,0.928678027589683
7.0078125,1.3409933278777635
7.041183035714286,1.6293161960780487
7.074553571428571,1.6934703946614345
7.107924107142857,1.4966736653353938
7.141294642857143,1.0807434426415952
7.174665178571429,0.5501569999959256
7.208035714285714,0.03231190572504346
7.24140625,-0.36811575763897236
7.274776785714286,-0.6012976732608553
7.308147321428572,-0.679339652052613
7.341517857142857,-0.6593368666608476
7.374888392857143,-0.6136654897590066
7.408258928571429,-0.6018861051108239
7.441629464285715,-0.6543123522057419
7.475,-0.7693716471486001
7.508370535714286,-0.9204605414851449
7.5417410714285715,-1.066284655358838
7.575111607142857,-1.161271952625418
7.6084821428571425,-1.1661929225477583
7.6418526785714285,-1.0599223175390247
7.675223214285714,-0.8503103888976163
7.7085937499999995,-0.5781444075660598
7.741964285714285,-0.3077153360861306
7.775334821428571,-0.10302734282663491
7.808705357142857,0.0021062475858381054
7.842075892857142,0.025067799220807235
7.875446428571428,0.0328768508067647
7.908816964285714,0.11468671976981647
7.9421875,0.33893650117512814
7.975558035714285,0.7152398046656948
8.008928571428571,1.1801687686543856
8.042299107142856,1.6149596071377321
8.075669642857143,1.887916745132392
8.109040178571428,1.9030389735561644
8.142410714285715,1.634499444970909
8.17578125,1.134112674464725
8.209151785714285,0.5112655212939
8.242522321428572,-0.10418439601877365
8.275892857142857,-0.6004626650045615
8.309263392857142,-0.9104439984829358
8.342633928571429,-1.019967062142016
8.376004464285714,-0.9597037066750701
8.409375,-0.7875558513682186
8.442745535714286,-0.5693205950791331
8.47611607142857,-0.3629063212743029
8.509486607142858,-0.2082179474314257
8.542857142857143,-0.1228655589430172
8.576227678571428,-0.10328066841996368
8.609598214285715,-0.1305627394432239
8.64296875,-0.17946201454848945
8.676339285714285,-0.2275544854637897
8.709709821428572,-0.26110659785719686
8.743080357142857,-0.2754112592785629
8.776450892857143,-0.2702734662865141
8.809821428571428,-0.24422003751094537
8.843191964285714,-0.1919116257729143
8.8765625,-0.107207838327963
8.909933035714285,0.009650908660838472
8.94330357142857,0.14574879673044605
8.976674107142857,0.275568670761764
9.010044642857142,0.36962873089343673
9.04341517857143,0.4084689560084375
9.076785714285714,0.3945108226237278
9.11015625,0.35413123511174255
9.143526785714286,0.3268699335419503
9.176897321428571,0.3457841507978448
9.210267857142856,0.4185512918803907
9.243638392857143,0.5195573557575156
9.277008928571428,0.5981684599056323
9.310379464285715,0.6002013345991047
9.34375,0.492676609485611
9.377120535714285,0.2800044551070226
9.410491071428572,0.0038469199917357437
9.443861607142857,-0.2731548569022777
9.477232142857142,-0.4919405998912999
9.510602678571429,-0.6185009220592073
9.543973214285714,-0.6530447393201212
9.57734375,-0.6240875071318999
9.610714285714286,-0.57189964645555
9.64408482142857,-0.530124655901803
9.677455357142858,-0.5140014746680306
9.710825892857143,-0.5191793155636192
9.744196428571428,-0.5293170287831235
9.777566964285715,-0.5267002910055982
9.8109375,-0.49986430072970855
9.844308035714285,-0.44528160231656577
9.877678571428572,-0.3643107177431247
9.911049107142857,-0.2591866931812583
9.944419642857143,-0.131508817692375
9.977790178571428,0.015936247987654403
10.011160714285714,0.17605397096683506
10.04453125,0.3361875320399521
10.077901785714285,0.4806046179030779
10.11127232142857,0.5959216323617216
10.144642857142857,0.6764742919888085
10.178013392857142,0.72636086793069
10.21138392857143,0.7566040876120945
10.244754464285714,0.7785177061349788
10.278125,0.7964666433522134
10.311495535714286,0.8037377775178366
10.344866071428571,0.7839495075374938
10.378236607142856,0.7178656305628305
10.411607142857143,0.5927578526990146
10.444977678571428,0.4098945056773126
10.478348214285715,0.18627948053022314
10.51171875,-0.05056293719456184
10.545089285714285,-0.2723615965192586
10.578459821428572,-0.4594757133859637
10.611830357142857,-0.6050412497332723
10.645200892857142,-0.7120146045783303
10.678571428571429,-0.7854269793274523
10.711941964285714,-0.8250587292721075
10.745312499999999,-0.8235049128958931
10.778683035714286,-0.7712435322314054
10.81205357142857,-0.6657726878633133
10.845424107142858,-0.5189174958006219
10.878794642857143,-0.3569760978871129
10.912165178571428,-0.21235950386924304
10.945535714285715,-0.11051092854807912
10.97890625,-0.05902279830121955
11.012276785714285,-0.044959764709402966
11.045647321428572,-0.04189346849064822
11.079017857142857,-0.022789841120583926
11.112388392857143,0.028084048943524877
11.145758928571428,0.10997676463387665
11.179129464285714,0.20869968418087112
11.2125,0.3048200950386372
11.245870535714285,0.381755713211104
11.27924107142857,0.42981232948515297
11.312611607142857,0.44566137112033993
11.345982142857142,0.42981127629160276
11.37935267857143,0.3852328207254105
11.412723214285714,0.3182935715932403
11.44609375,0.24030602915583066
11.479464285714286,0.1666665468019807
11.512834821428571,0.11197458251210135
11.546205357142856,0.08280315267017467
11.579575892857143,0.07255050906399622
11.612946428571428,0.0627961896601058
11.646316964285715,0.032308947581069176
11.6796875,-0.029991921581885808
11.713058035714285,-0.11527720963801778
11.746428571428572,-0.19500772195743815
11.779799107142857,-0.2331819019914969
11.813169642857142,-0.20589345281741334
11.846540178571429,-0.11820370159726218
11.879910714285714,-0.008033544524689656
11.913281249999999,0.06755944436679025
11.946651785714286,0.05910462187725717
11.98002232142857,-0.048144733239634675
12.013392857142858,-0.22116812161378224
12.046763392857143,-0.3888053321181871
12.080133928571428,-0.4714285539058917
12.113504464285715,-0.41735021193893607
12.146875,-0.22835609163605855
12.180245535714285,0.03856045956279991
12.213616071428572,0.2947082439075496
12.246986607142857,0.457501746690231
12.280357142857143,0.4846969591847195
12.313727678571428,0.38925651204051587
12.347098214285714,0.22884147810802374
12.38046875,0.07631225475505238
12.413839285714285,-0.013666449072633247
12.44720982142857,-0.0259074539332428
12.480580357142857,0.01519107362738955
12.513950892857142,0.0647557029595232
12.54732142857143,0.08433762404074067
12.580691964285714,0.06190519580832536
12.6140625,0.014639672955592532
12.647433035714286,-0.026074864177118646
12.680803571428571,-0.03821946002916005
12.714174107142856,-0.027206694331260356
12.747544642857143,-0.02724403221720123
12.780915178571428,-0.08389198542665947
12.814285714285713,-0.2262516621125758
12.84765625,-0.4435470501211752
12.881026785714285,-0.6795434968841452
12.914397321428572,-0.8498299219831092
12.947767857142857,-0.8756827649399085
12.981138392857142,-0.7196071858736616
13.014508928571429,-0.40592134045161876
13.047879464285714,-0.015837890186118798
13.081249999999999,0.34227337027334104
13.114620535714286,0.575434792905888
13.14799107142857,0.6431813004987009
13.181361607142858,0.5728351347516766
13.214732142857143,0.44574261378582103
13.248102678571428,0.35988778007996475
13.281473214285715,0.3847572363149939
13.31484375,0.5280830706633879
13.348214285714285,0.7294653107474027
13.381584821428572,0.8846845464896138
13.414955357142857,0.8912896640546483
13.448325892857143,0.6963160543084425
13.481696428571428,0.32513833171155127
13.515066964285714,-0.12223930507238559
13.5484375,-0.5074452657150914
13.581808035714285,-0.7082769074618421
13.61517857142857,-0.668768243839523
13.648549107142857,-0.42330718215059665
13.681919642857142,-0.08399137696112755
13.71529017857143,0.20392745325310402
13.748660714285714,0.31973899294141933
13.78203125,0.21345829434828983
13.815401785714286,-0.07893263129150475
13.848772321428571,-0.4563122724026619
13.882142857142856,-0.7977828039354616
13.915513392857143,-1.0104131552436018
13.948883928571428,-1.0580976185455762
13.982254464285713,-0.9617989384122617
14.015625,-0.7766818635296385
14.048995535714285,-0.5618410875746063
14.082366071428572,-0.3584473580352702
14.115736607142857,-0.18373847085190378
14.149107142857142,-0.03785065883921249
14.182477678571429,0.08537194211668746
14.215848214285714,0.19129676583745225
14.249218749999999,0.2832769997319593
14.282589285714286,0.364317549325613
14.31595982142857,0.4375205702701605
14.349330357142858,0.5038825517133618
14.382700892857143,0.5596180945201454
14.416071428571428,0.5965318237830183
14.449441964285715,0.6069521758163343
14.4828125,0.5909606401836015
14.516183035714285,0.5610269592802096
14.549553571428572,0.5398064799389883
14.582924107142857,0.5506041644609785
14.616294642857143,0.604587065227156
14.649665178571428,0.6913976493594701
14.683035714285714,0.778769046590546
14.71640625,0.8225548277412281
14.749776785714285,0.7834357982629142
14.78314732142857,0.6430720016986278
14.816517857142857,0.4123757340580518
14.849888392857142,0.12797402674633918
14.88325892857143,-0.16178152330107146
14.916629464285714,-0.4152084066649839
14.95,-0.6121308303296021
14.983370535714286,-0.7588831021208632
15.016741071428571,-0.881588029466434
15.050111607142856,-1.010875727839203
15.083482142857143,-1.1647750217578274
15.116852678571428,-1.3372346627826917
15.150223214285713,-1.497460961937077
15.18359375,-1.6008711221285756
15.216964285714285,-1.6074734512979125
15.250334821428572,-1.499728624067635
15.283705357142857,-1.2912273532579528
15.317075892857142,-1.020913762517508
15.350446428571429,-0.7344138172461476
15.383816964285714,-0.4613528443878616
15.417187499999999,-0.20112595218746296
15.450558035714286,0.07365241594938587
15.48392857142857,0.3962245132059923
15.517299107142858,0.7782586677776662
15.550669642857143,1.1923189338419162
15.584040178571428,1.5765350607374395
15.617410714285715,1.861520319610621
15.65078125,2.0059370736604145
15.684151785714285,2.020317947894937
15.717522321428572,1.9635115558935983
15.750892857142857,1.9105247169486752
15.784263392857143,1.9069018194668805
15.817633928571428,1.933924515590274
15.851004464285714,1.9053067103010217
15.884375,1.7010043644882018
15.917745535714285,1.2247860902459613
15.95111607142857,0.4591140471542976
15.984486607142857,-0.5094087170676165
16.017857142857142,-1.5078331077879166
16.05122767857143,-2.3318903649985883
16.084598214285712,-2.815359012433531
16.11796875,-2.8850567493148827
16.151339285714286,-2.580182830677249
16.18470982142857,-2.0309733861569015
16.218080357142856,-1.4084406085284555
16.251450892857143,-0.86690371685143
16.28482142857143,-0.5008154168415414
16.318191964285713,-0.3286998199486696
16.3515625,-0.3048045544010049
16.384933035714287,-0.34885973003182075
16.41830357142857,-0.3797975159830347
16.451674107142857,-0.3410588849812102
16.485044642857144,-0.2111569546533131
16.518415178571427,-0.0001545264595611504
16.551785714285714,0.2623279457120399
16.58515625,0.540505333961821
16.618526785714284,0.8018900946031807
16.65189732142857,1.0208568428147
16.685267857142858,1.1775433587679065
16.71863839285714,1.255185945883707
16.752008928571428,1.2391728379101634
16.785379464285715,1.1198068518707427
16.81875,0.8984761084926062
16.852120535714285,0.5944429365375054
16.88549107142857,0.24794492339746496
16.91886160714286,-0.08412929391171313
16.95223214285714,-0.3408245616982632
16.98560267857143,-0.47469100541717335
17.018973214285715,-0.4678617137730682
17.05234375,-0.3397387571512881
17.085714285714285,-0.14228050516350568
17.119084821428572,0.05612682273161496
17.152455357142856,0.19244036676580004
17.185825892857142,0.2282447237275084
17.21919642857143,0.1595823609036454
17.252566964285712,0.014456026650132075
17.2859375,-0.1598422166145912
17.319308035714286,-0.3138182540327914
17.35267857142857,-0.4108046783585683
17.386049107142856,-0.4354460203437958
17.419419642857143,-0.39436267934958374
17.45279017857143,-0.3104483948327771
17.486160714285713,-0.21364372096173131
17.51953125,-0.13122786773435097
17.552901785714287,-0.08027956725214808
17.58627232142857,-0.06429697682734116
17.619642857142857,-0.07490516388421212
17.653013392857144,-0.09795170511156967
17.686383928571427,-0.12142135033082053
17.719754464285714,-0.1413835742691852
