Frequency (Hz),Amplitude
0.0,10.364590962491327
0.019823788546255508,10.360400176434363
0.039647577092511016,10.347834191700239
0.059471365638766524,10.32691214075073
0.07929515418502203,10.297665951785788
0.09911894273127755,10.260140410797534
0.11894273127753305,10.214393250282711
0.13876651982378857,10.1604952664944
0.15859030837004406,10.098530467716932
0.17841409691629956,10.028596256701103
0.1982378854625551,9.95080365111299
0.2180616740088106,9.865277546645945
0.2378854625550661,9.772157028334071
0.25770925110132165,9.671595736606507
0.27753303964757714,9.563762295753088
0.29735682819383263,9.448840813752259
0.31718061674008813,9.327031463865165
0.3370044052863437,9.198551160041868
0.3568281938325991,9.063634340042041
0.37665198237885467,8.922533872251675
0.3964757709251102,8.77552210449526
0.41629955947136565,8.62289207568567
0.4361233480176212,8.464958913902693
0.4559471365638767,8.302061447377381
0.4757709251101322,8.13456405777269
0.49559471365638774,7.962858807894028
0.5154185022026433,7.7873678782249565
0.5352422907488987,7.608546347980645
0.5550660792951543,7.426885355976972
0.5748898678414097,7.2429156734630515
0.5947136563876653,7.0572117136229515
0.6145374449339208,6.870395988568903
0.6343612334801763,6.683144001363421
0.6541850220264318,6.496189523990378
0.6740088105726874,6.310330157193147
0.6938325991189428,6.126432988579749
0.7136563876651982,5.945440054487145
0.7334801762114539,5.768373162172648
0.7533039647577093,5.596337437591562
0.7731277533039648,5.430522731798241
0.7929515418502204,5.272201758784359
0.8127753303964759,5.122723581344383
0.8325991189427313,4.983500868953572
0.8524229074889869,4.855989315963292
0.8722466960352424,4.741657853648908
0.8920704845814978,4.641948949071758
0.9118942731277534,4.558229451555122
0.931718061674009,4.491734104564841
0.9515418502202644,4.443505775734408
0.9713656387665199,4.414338233736347
0.9911894273127755,4.404728325395831
1.0110132158590308,4.4148441328401615
1.0308370044052866,4.44451388888425
1.0506607929515421,4.493237383746451
1.0704845814977975,4.56021807604793
1.090308370044053,4.644411090969597
1.1101321585903086,4.744580510683016
1.1299559471365639,4.859359112293234
1.1497797356828194,4.987304749689989
1.1696035242290752,5.126949358098771
1.1894273127753305,5.276838492867164
1.209251101321586,5.4355609637361875
1.2290748898678416,5.601769284972153
1.248898678414097,5.7741923134995154
1.2687224669603525,5.951641686910188
1.288546255506608,6.133013634297492
1.3083700440528636,6.317287538816442
1.3281938325991192,6.503522374411142
1.3480176211453747,6.690851879368496
1.36784140969163,6.878479097872008
1.3876651982378856,7.065670730212952
1.4074889867841411,7.2517515841149525
1.4273127753303965,7.436099309320773
1.4471365638766522,7.618139518540906
1.4669603524229078,7.797341343212348
1.4867841409691631,7.973213436148993
1.5066079295154187,8.145300410056349
1.5264317180616742,8.313179687115323
1.5462555066079295,8.476458727475237
1.5660792951541853,8.634772601390715
1.5859030837004409,8.78778186937002
1.6057268722466962,8.935170736012072
1.6255506607929517,9.076645445475195
1.6453744493392073,9.211932889263498
1.6651982378854626,9.340779399924642
1.6850220264317182,9.462949707134959
1.7048458149779737,9.578226035387809
1.7246696035242293,9.686407325039697
1.7444933920704848,9.787308560778119
1.7643171806167404,9.880760193649984
1.7841409691629957,9.966607644639662
1.8039647577092512,10.044710879423532
1.8237885462555068,10.114944045376625
1.8436123348017623,10.177195163184006
1.863436123348018,10.23136586653763
1.8832599118942732,10.277371184397744
1.9030837004405288,10.315139361185391
1.9229074889867843,10.344611711066236
1.9427312775330399,10.365742503201615
1.9625550660792954,10.378498875495035
1.982378854625551,10.382860774964447
2.002202643171806,10.378820923434377
2.0220264317180616,10.366384807780252
2.041850220264317,10.34557069447887
2.061674008810573,10.316409668736563
2.0814977973568287,10.278945698989796
2.1013215859030843,10.233235728112485
2.1211453744493394,10.179349793230635
2.140969162995595,10.117371176651975
2.1607929515418505,10.04739659107434
2.180616740088106,9.969536402960108
2.2004405286343616,9.883914898765005
2.220264317180617,9.79067059960811
2.2400881057268722,9.68995663097974
2.2599118942731278,9.581941155228513
2.2797356828193833,9.466807875863996
2.299559471365639,9.34475662418274
2.319383259911895,9.216004040391336
2.3392070484581504,9.080784363283383
2.3590308370044055,8.93935034464205
2.378854625550661,8.79197430689806
2.3986784140969166,8.638949365168102
2.418502202643172,8.480590837607677
2.4383259911894277,8.317237870973168
2.4581497797356833,8.149255311289147
2.4779735682819384,7.977035852363616
2.497797356828194,7.801002497275605
2.5176211453744495,7.621611369391163
2.537444933920705,7.439354909215979
2.5572687224669606,7.254765490389903
2.577092511013216,7.06841948082113
2.5969162995594717,6.880941761162557
2.6167400881057272,6.693010689545337
2.6365638766519828,6.50536346469478
2.6563876651982383,6.318801784099372
2.676211453744494,6.1341976134893255
2.6960352422907494,5.9524987714190765
2.715859030837005,5.774733881342046
2.73568281938326,5.602016048557164
2.7555066079295156,5.435544382029059
2.775330396475771,5.276602214216322
2.7951541850220267,5.126550608108615
2.8149779735682823,4.986815540524757
2.834801762114538,4.858867110054592
2.854625550660793,4.744189364532784
2.874449339207049,4.6442400144530795
2.8942731277533045,4.56040049337969
2.91409691629956,4.493918525442742
2.9339207048458156,4.445847346193287
2.953744493392071,4.416987545368546
2.9735682819383262,4.407838546690693
2.993392070484582,4.418566446885802
3.0132158590308373,4.448993070434792
3.033039647577093,4.498607958377819
3.0528634361233484,4.566601397748671
3.072687224669604,4.651913509006404
3.092511013215859,4.753292620752556
3.1123348017621146,4.8693559451374275
3.1321585903083706,4.998646667165983
3.151982378854626,5.13968340391522
3.1718061674008817,5.290999968371929
3.1916299559471373,5.45117504782612
3.2114537444933924,5.618852573115917
3.231277533039648,5.7927542017995135
3.2511013215859035,5.971685567177344
3.270925110132159,6.154537894060004
3.2907488986784146,6.340286377480549
3.31057268722467,6.527986455933045
3.3303964757709252,6.716768845322839
3.350220264317181,6.905833964831879
3.3700440528634363,7.094446193451432
3.389867841409692,7.2819282468503355
3.4096916299559474,7.467655853707538
3.4295154185022034,7.651052831721629
3.4493392070484585,7.831586609170726
3.469162995594714,8.00876420190564
3.4889867841409696,8.182128632925812
3.508810572687225,8.351255768263549
3.5286343612334807,8.515751535833122
3.5484581497797363,8.675249491044296
3.5682819383259914,8.829408692814946
3.588105726872247,8.977911855089214
3.6079295154185025,9.120463741362302
3.627753303964758,9.25678977255666
3.6475770925110136,9.386634821581401
3.667400881057269,9.509762170849465
3.6872246696035247,9.625952611814895
3.7070484581497802,9.735003668167689
3.726872246696036,9.83672892666031
3.7466960352422913,9.930957461638194
3.7665198237885464,10.017533341211214
3.7863436123348024,10.096315204655696
3.8061674008810575,10.167175902093641
3.8259911894273135,10.23000218878182
3.8458149779735686,10.284694467476175
3.8656387665198246,10.331166573341187
3.8854625550660797,10.369345596764685
3.905286343612335,10.399171740235046
3.925110132158591,10.42059820615724
3.9449339207048464,10.433591113137748
3.964757709251102,10.438129438873732
3.9845814977973575,10.43420498834782
4.004405286343612,10.421822386570248
4.024229074889869,10.40099909563514
4.044052863436123,10.371765456378235
4.06387665198238,10.334164755450532
4.083700440528634,10.288253319165882
4.103524229074891,10.234100636053352
4.123348017621146,10.171789510657412
4.143171806167401,10.101416251794692
4.162995594713657,10.02309089920809
4.182819383259912,9.936937493372778
4.2026431718061685,9.843094394121628
4.222466960352423,9.741714654786037
4.242290748898679,9.632966459714362
4.262114537444934,9.517033634354156
4.28193832599119,9.394116238588204
4.301762114537445,9.264431255724357
4.321585903083701,9.128213391472503
4.3414096916299565,8.985715999422508
4.361233480176212,8.837212151973098
4.381057268722468,8.682995878354895
4.400881057268723,8.523383594318393
4.420704845814979,8.358715751163984
4.440528634361234,8.189358734967815
4.46035242290749,8.01570704991491
4.4801762114537445,7.838185822281327
4.500000000000001,7.657253663326983
4.5198237885462555,7.473405929437251
4.539647577092512,7.287178415196731
4.559471365638767,7.099151508118065
4.579295154185023,6.909954820250376
4.599118942731278,6.720272288767787
4.618942731277533,6.530847700741352
4.63876651982379,6.342490541254068
4.658590308370044,6.156081982220696
4.678414096916301,5.972580714196269
4.6982378854625555,5.793028167640203
4.718061674008811,5.618552468227848
4.737885462555067,5.450370223481691
4.757709251101322,5.289784957798695
4.777533039647578,5.138180732799378
4.797356828193833,4.997009272706888
4.817180616740089,4.867768860286433
4.837004405286344,4.751973512755281
4.856828193832599,4.651111636508512
4.876651982378855,4.566594601885465
4.896475770925111,4.499697459261482
4.9162995594713665,4.451496109011246
4.936123348017622,4.42280716280325
4.955947136563877,4.4141378405581495
4.975770925110133,4.4256529345256395
4.995594713656388,4.457163892379973
5.015418502202644,4.508141750875335
5.035242290748899,4.577751848543496
5.055066079295155,4.664905021524901
5.07488986784141,4.768318158710196
5.094713656387666,4.886576829328981
5.114537444933921,5.018193905564216
5.134361233480177,5.161660066116416
5.154185022026432,5.315484142005037
5.174008810572688,5.478222998966449
5.193832599118943,5.648501838204538
5.213656387665199,5.825026439118029
5.2334801762114544,6.0065890779275595
5.25330396475771,6.192069782525944
5.2731277533039655,6.380434358357415
5.292951541850221,6.570730338988288
5.312775330396477,6.762081737848316
5.332599118942731,6.953683234981169
5.352422907488988,7.144794235684939
5.372246696035242,7.334733086526563
5.392070484581499,7.522871622772447
5.4118942731277535,7.70863014229538
5.43171806167401,7.891472847060447
5.451541850220265,8.070903757884487
5.47136563876652,8.246463086066214
5.491189427312777,8.417724032671309
5.511013215859031,8.584289979734049
5.530837004405288,8.745792035249593
5.550660792951542,8.901886894056336
5.570484581497798,9.0522549784999
5.5903083700440535,9.196598825422681
5.610132158590309,9.334641689072058
5.6299559471365646,9.466126332670804
5.64977973568282,9.590813984464488
5.669603524229076,9.708483436949445
5.689427312775331,9.818930270638889
5.709251101321586,9.921966186123885
5.729074889867842,10.017418430331585
5.748898678414098,10.105129304786518
5.768722466960353,10.184955745362458
5.788546255506609,10.256768964492876
5.808370044052864,10.320454148111828
5.82819383259912,10.375910200745539
5.848017621145375,10.423049533189083
5.867841409691631,10.461797888104229
5.887665198237886,10.492094199677794
5.907488986784142,10.513890484205856
5.927312775330397,10.527151759128786
5.9471365638766525,10.531855988652252
5.966960352422908,10.527994054659741
5.986784140969164,10.515569752168052
6.00660792951542,10.494599809106587
6.026431718061675,10.465113930727519
6.04625550660793,10.427154869486856
6.066079295154186,10.380778521787345
6.085903083700441,10.326054053555058
6.105726872246697,10.263064057243353
6.125550660792952,10.191904743536139
6.145374449339208,10.112686171768082
6.1651982378854635,10.025532523911757
6.185022026431718,9.93058242791604
6.204845814977975,9.827989337235323
6.224669603524229,9.717921974588807
6.244493392070486,9.600564849353587
6.264317180616741,9.476118859550452
6.284140969162996,9.344801991153261
6.303964757709252,9.206850129464577
6.323788546255507,9.062517999576936
6.3436123348017635,8.912080255494221
6.363436123348018,8.755832740328495
6.3832599118942746,8.594093943096198
6.403083700440529,8.427206680966389
6.422907488986785,8.255540039261005
6.44273127753304,8.079491604891182
6.462555066079296,7.899490031933324
6.482378854625551,7.715997980224428
6.502202643171807,7.529515468451108
6.5220264317180625,7.340583681121489
6.541850220264318,7.1497892624312
6.561674008810574,6.957769117065917
6.581497797356829,6.765215715211959
6.601321585903085,6.572882862122015
6.62114537444934,6.3815918358124435
6.640969162995596,6.192237712758655
6.6607929515418505,6.005795582599615
6.680616740088107,5.823326190492018
6.700440528634362,5.645980333472265
6.720264317180618,5.475001074524867
6.740088105726873,5.311722536939885
6.759911894273129,5.157563735448591
6.779735682819384,5.014015655392532
6.799559471365639,4.882619713675671
6.819383259911895,4.764935972084339
6.83920704845815,4.662500187962739
6.859030837004407,4.576770102303942
6.8788546255506615,4.509063272751877
6.898678414096917,4.460491018925945
6.918502202643173,4.431895140495705
6.938325991189428,4.423795277949294
6.958149779735684,4.436354447189693
6.977973568281939,4.4693681206195786
6.997797356828195,4.522278615307316
7.01762114537445,4.594212437240408
7.037444933920705,4.684034787698615
7.0572687224669615,4.7904135454035135
7.077092511013216,4.911884960196562
7.096916299559473,5.046914679468874
7.116740088105728,5.1939498844169165
7.136563876651983,5.351460541776363
7.156387665198239,5.517969600379739
7.176211453744494,5.692073181259756
7.19603524229075,5.872452443038376
7.215859030837005,6.057878984719202
7.235682819383261,6.247215538591757
7.255506607929516,6.439413447724317
7.275330396475772,6.633508115595903
7.295154185022027,6.828613319967633
7.314977973568283,7.023915028654348
7.334801762114538,7.218665151005677
7.354625550660794,7.41217550400301
7.374449339207049,7.60381215909681
7.394273127753305,7.792990256862257
7.4140969162995605,7.979169323206604
7.433920704845816,8.161849086364313
7.453744493392072,8.34056577280698
7.473568281938327,8.514888848325718
7.493392070484583,8.68441816486391
7.513215859030838,8.848781472011476
7.533039647577093,9.007632252898778
7.552863436123348,9.160647846510756
7.572687224669605,9.307527821490448
7.59251101321586,9.447992569865791
7.612334801762115,9.581782092534784
7.6321585903083715,9.708654951612834
7.651982378854627,9.828387367789828
7.671806167400882,9.940772443620391
7.691629955947137,10.045619496165461
7.711453744493394,10.142753484623302
7.731277533039649,10.232014520549969
7.751101321585904,10.313257449996435
7.7709251101321595,10.38635149840723
7.790748898678416,10.451179970455797
7.81057268722467,10.507639998163858
7.830396475770926,10.555642331684226
7.850220264317182,10.595111168041548
7.870044052863436,10.625984013941565
7.889867841409693,10.648211579494633
7.909691629955948,10.661757700368053
7.929515418502204,10.666599286498661
7.9493392070484585,10.662726296075167
7.969162995594715,10.650141734052346
7.9889867841409705,10.62886167499557
8.008810572687224,10.598915310587811
8.02863436123348,10.560345022672742
8.048458149779737,10.513206483268045
8.068281938325994,10.457568783575034
8.088105726872246,10.393514594645964
8.107929515418503,10.321140363064705
8.12775330396476,10.240556545762034
8.147577092511014,10.15188788894252
8.167400881057269,10.055273757064157
8.187224669603525,9.950868518903441
8.207048458149782,9.838841998982796
8.226872246696036,9.719380004057198
8.246696035242293,9.592684935981545
8.266519823788547,9.458976504136796
8.286343612334802,9.318492552711493
8.306167400881058,9.17149002054354
8.325991189427315,9.018246053945935
8.345814977973568,8.859059295983611
8.365638766519824,8.694251379027236
8.38546255506608,8.5241686510477
8.405286343612337,8.34918416993773
8.42511013215859,8.169700003990284
8.444933920704846,7.986149880230413
8.464757709251103,7.799002225119666
8.484581497797357,7.608763643492159
8.504405286343614,7.415982880319971
8.524229074889869,7.221255304392865
8.544052863436125,7.025227940837668
8.56387665198238,6.828605057228378
8.583700440528636,6.632154271214323
8.60352422907489,6.436713089983708
8.623348017621145,6.243195705711627
8.643171806167402,6.052599747228032
8.662995594713658,5.866012516796399
8.682819383259913,5.684616014112989
8.702643171806168,5.509689765294571
8.722466960352424,5.342610143524983
8.74229074889868,5.184844524202313
8.762114537444935,5.037938330691995
8.78193832599119,4.903492913620466
8.801762114537446,4.783132430585224
8.821585903083701,4.678458640934031
8.841409691629957,4.590993949073041
8.861233480176212,4.5221151228870315
8.881057268722468,4.472982622594805
8.900881057268723,4.444472818204931
8.92070484581498,4.43712173615875
8.940528634361234,4.45108859720725
8.960352422907489,4.486144980223488
8.980176211453745,4.541691399080808
9.000000000000002,4.616798512870455
9.019823788546258,4.710266432354684
9.039647577092511,4.820693612254183
9.059471365638768,4.946546880739918
9.079295154185024,5.08622581054576
9.099118942731279,5.238117075292658
9.118942731277533,5.400636881849051
9.13876651982379,5.572261516863966
9.158590308370046,5.751547303045317
9.1784140969163,5.937141874536778
9.198237885462555,6.127788814042931
9.218061674008812,6.322327531711523
9.237885462555067,6.519689960402112
9.257709251101323,6.718895298769623
9.27753303964758,6.9190437129998905
9.297356828193834,7.1193096377484615
9.317180616740089,7.3189351040069806
9.337004405286345,7.517223362389524
9.356828193832602,7.713532956120743
9.376651982378855,7.907272319194503
9.396475770925111,8.097894922903178
9.416299559471367,8.284894960858145
9.436123348017622,8.4678035429806
9.455947136563877,8.646185358440857
9.475770925110133,8.819635763045978
9.49559471365639,8.987778245926457
9.515418502202644,9.1502622320382
9.5352422907489,9.306761179959855
9.555066079295155,9.456970938059067
9.57488986784141,9.600608325899282
9.594713656387666,9.737409911501405
9.614537444933923,9.86713095861176
9.634361233480178,9.9895445213816
9.654185022026432,10.104440666803745
9.674008810572689,10.211625807874483
9.693832599118945,10.3109221327691
9.713656387665198,10.402167117359252
9.733480176211454,10.48521311018941
9.75330396475771,10.559926980593083
9.773127753303967,10.626189822000274
9.792951541850222,10.683896703686969
9.812775330396477,10.732956465274567
9.832599118942733,10.773291549220431
9.852422907488988,10.804837867372969
9.872246696035244,10.827544698412348
9.892070484581499,10.841374613677441
9.911894273127754,10.846303429506847
9.93171806167401,10.84232018480909
9.951541850220266,10.829427143137528
9.971365638766521,10.807639819091978
9.991189427312776,10.776987029411941
10.011013215859032,10.737510969678176
10.030837004405289,10.689267318112913
10.050660792951543,10.632325368574032
10.070484581497798,10.566768195492735
10.090308370044054,10.492692854217061
10.11013215859031,10.410210621016025
10.129955947136565,10.319447277884757
10.14977973568282,10.22054344829286
10.169603524229077,10.113654991157253
10.189427312775331,9.998953461621765
10.209251101321588,9.876626648718375
10.229074889867842,9.746879201697917
10.248898678414099,9.609933358786048
10.268722466960353,9.466029794376874
10.28854625550661,9.315428603256018
10.308370044052865,9.15841044337872
10.32819383259912,8.995277862036616
10.348017621145376,8.826356833936222
10.367841409691632,8.651998543755738
10.387665198237887,8.472581450071543
10.407488986784141,8.288513671997121
10.427312775330398,8.10023574418166
10.447136563876654,7.908223789511077
10.466960352422909,7.712993161209287
10.486784140969164,7.515102605916425
10.50660792951542,7.315158995020061
10.526431718061675,7.1138226605323025
10.546255506607931,6.911813350558444
10.566079295154186,6.709916782897264
10.585903083700442,6.508991716817891
10.605726872246697,6.309977373885512
10.625550660792953,6.113900908327361
10.645374449339208,5.921884444316116
10.665198237885463,5.735150951398397
10.685022026431719,5.555027915533523
10.704845814977975,5.382947390822373
10.724669603524232,5.22044062041729
10.744493392070485,5.069125069281953
10.764317180616741,4.930681546074878
10.784140969162998,4.80681929395222
10.803964757709252,4.69922772127808
10.823788546255507,4.609515006047546
