Frequency (Hz),Amplitude
0.0,2.1187109718441226
0.04,2.1177685570065976
0.08,2.1149424767807545
0.12,2.1102362253682636
0.16,2.1036556309531633
0.19999999999999998,2.095208862625767
0.24,2.084906440384393
0.27999999999999997,2.0727612485339235
0.32,2.0587885529064773
0.36,2.043006022448783
0.39999999999999997,2.0254337558558575
0.44,2.006094314086635
0.48,1.9850127597789928
0.52,1.9622167047958174
0.5599999999999999,1.9377363673882175
0.6,1.9116046407662686
0.64,1.8838571752335385
0.6799999999999999,1.8545324764841937
0.72,1.8236720231983312
0.76,1.7913204077257607
0.7999999999999999,1.7575255044484503
0.84,1.722338671392591
0.88,1.6858149918661394
0.9199999999999999,1.648013564380608
0.96,1.6089978509419125
1.0,1.568836096044553
1.04,1.5276018314698692
1.0799999999999998,1.4853744853821023
1.1199999999999999,1.4422401183553668
1.1600000000000001,1.3982923139713859
1.2,1.353633257602897
1.24,1.3083750439789512
1.28,1.2626412620129286
1.3199999999999998,1.2165689137775224
1.3599999999999999,1.1703107325252682
1.4,1.1240379704403651
1.44,1.0779437269395131
1.48,1.032246876773793
1.52,0.9871966237699842
1.5599999999999998,0.943077634580156
1.5999999999999999,0.9002155730008061
1.64,0.8589826261827176
1.68,0.8198022513222485
1.72,0.783151847216469
1.76,0.7495613878758061
1.7999999999999998,0.7196053770821458
1.8399999999999999,0.6938851263709875
1.88,0.6729989035155477
1.92,0.6574996234034677
1.9599999999999997,0.6478437337941796
2.0,0.6443398862461929
2.0399999999999996,0.6471094567775254
2.08,0.6560701205269567
2.12,0.6709475669258402
2.1599999999999997,0.6913116613118472
2.2,0.7166265361147084
2.2399999999999998,0.7463023443501727
2.28,0.7797393396242882
2.3200000000000003,0.8163598338207385
2.36,0.8556278160105889
2.4,0.8970584452111362
2.44,0.9402203911306718
2.48,0.9847337467891083
2.5199999999999996,1.0302655862449634
2.56,1.0765245616488603
2.6,1.1232553850423839
2.6399999999999997,1.1702336535706426
2.68,1.2172612287825435
2.7199999999999998,1.264162233855141
2.76,1.310779652717065
2.8,1.3569724765346507
2.84,1.4026133285236557
2.88,1.447586496591948
2.92,1.4917863083167864
2.96,1.5351157904432053
2.9999999999999996,1.5774855634098135
3.04,1.6188129293356235
3.08,1.6590211189814819
3.1199999999999997,1.6980386692918992
3.16,1.735798908245716
3.1999999999999997,1.7722395279891892
3.2399999999999998,1.8073022307098203
3.28,1.8409324345540081
3.32,1.873079029205257
3.36,1.9036941726194436
3.4,1.9327331219395991
3.44,1.9601540928527996
3.4799999999999995,1.9859181426609769
3.52,2.0099890731602215
3.5599999999999996,2.0323333500960756
3.5999999999999996,2.052920036514002
3.64,2.0717207377782687
3.6799999999999997,2.0887095564079203
3.7199999999999998,2.1038630551898985
3.76,2.11716022728967
3.7999999999999994,2.1285824722982336
3.84,2.138113577339396
3.88,2.145739702519422
3.9199999999999995,2.151449370137727
3.96,2.1552334571970246
4.0,2.1570851908577904
4.04,2.1570001465786786
4.079999999999999,2.1549762487741746
4.12,2.1510137739063353
4.16,2.1451153560108405
4.199999999999999,2.137285994742008
4.24,2.127533066108353
4.28,2.1158663361631818
4.319999999999999,2.102297978015857
4.36,2.08684259264223
4.4,2.0695172341008936
4.4399999999999995,2.050341439909978
4.4799999999999995,2.029337267512071
4.5200000000000005,2.006529337959704
4.56,1.9819448881979114
4.6,1.955613833614082
4.640000000000001,1.9275688428810651
4.68,1.8978454275525394
4.72,1.8664820494001544
4.76,1.833520249134361
4.8,1.7990048009571826
4.84,1.7629838983954174
4.88,1.7255093781083826
4.92,1.6866369899204217
4.96,1.6464267232783805
5.0,1.6049432027835695
5.039999999999999,1.5622561685295229
5.08,1.518441060858226
5.12,1.473579734033541
5.159999999999999,1.4277613294697158
5.2,1.3810833468313741
5.24,1.3336529608500727
5.279999999999999,1.285588643370504
5.319999999999999,1.2370221641201098
5.36,1.1881010598499444
5.3999999999999995,1.1389916789975745
5.4399999999999995,1.0898829256750584
5.48,1.0409908377933021
5.52,0.9925641300339646
5.56,0.9448907957014819
5.6,0.8983057618426206
5.64,0.8531993799976205
5.68,0.8100261374326626
5.72,0.7693122987755425
5.76,0.731660158184202
5.8,0.6977452290278091
5.84,0.668301350467083
5.879999999999999,0.6440882242935091
5.92,0.625837806572297
5.96,0.6141817442830596
5.999999999999999,0.6095713603364472
6.04,0.6122105212155458
6.08,0.6220232005545829
6.119999999999999,0.6386675445774278
6.16,0.6615910549117718
6.2,0.6901077030968581
6.239999999999999,0.7234749038109626
6.279999999999999,0.7609550352591078
6.32,0.8018559669165375
6.359999999999999,0.845552368614892
6.3999999999999995,0.891492847372675
6.44,0.9391982284512881
6.4799999999999995,0.9882551734456942
6.52,1.0383079331611527
6.56,1.0890498760440521
6.6,1.1402156336665257
6.64,1.1915742140029295
6.68,1.242923159950875
6.72,1.2940836939584548
6.76,1.3448967321238774
6.8,1.3952196360779603
6.84,1.4449235766968591
6.88,1.4938913981865305
6.92,1.542015888035602
6.959999999999999,1.5891983747093437
7.0,1.6353475894774165
7.04,1.6803787410618627
7.08,1.7242127619219543
7.119999999999999,1.7667756932036052
7.16,1.8079981819700213
7.199999999999999,1.8478150695867093
7.239999999999999,1.8861650543149437
7.28,1.9229904144896284
7.32,1.9582367812976926
7.359999999999999,1.991852952274564
7.3999999999999995,2.023790738311856
7.4399999999999995,2.0540048383097362
7.4799999999999995,2.0824527366820402
7.52,2.1090946197874354
7.5600000000000005,2.133893308058602
7.599999999999999,2.1568142011683475
7.64,2.1778252340330493
7.68,2.196896841831846
7.719999999999999,2.214001932530552
7.76,2.229115865656507
7.800000000000001,2.2422164362845405
7.839999999999999,2.2532838633738277
7.88,2.2623007817472915
7.92,2.269252237135346
7.959999999999999,2.274125683818177
8.0,2.276910984500064
8.040000000000001,2.2776004121378928
8.08,2.276188653527525
8.12,2.272672814528082
8.159999999999998,2.2670524268781294
8.2,2.25932945663134
8.24,2.2495083143146135
8.28,2.2375958669913913
8.32,2.2236014524996537
8.36,2.2075368962302218
8.399999999999999,2.189416530920944
8.44,2.1692572200689195
8.48,2.147078385712446
8.52,2.1229020415117112
8.56,2.096752832271317
8.6,2.0686580813072593
8.639999999999999,2.038647847379149
8.68,2.0067549933006217
8.72,1.9730152688281661
8.76,1.9374674110371113
8.8,1.90015326615866
8.84,1.861117937819166
8.879999999999999,1.8204099678528713
8.92,1.778081557432289
8.959999999999999,1.7341888382833555
9.0,1.6887922063683007
9.040000000000001,1.641956733820897
9.079999999999998,1.593752679365284
9.12,1.5442561232924192
9.16,1.49354976078155
9.2,1.4417238975792832
9.24,1.388877705647566
9.280000000000001,1.3351208145114324
9.32,1.2805753381768594
9.36,1.2253784695435053
9.399999999999999,1.1696858164561648
9.44,1.1136757082578883
9.48,1.0575547705399218
9.52,1.0015651476204859
9.559999999999999,0.9459938387976861
9.6,0.8911846805746935
9.639999999999999,0.837553492291129
9.68,0.785606676440578
9.72,0.7359628721548549
9.76,0.6893756572591048
9.8,0.646752150848126
9.84,0.6091571678127278
9.879999999999999,0.5777859817974241
9.92,0.553884773149603
9.959999999999999,0.5386055587742767
10.0,0.5328113797756343
10.04,0.5368913710456757
10.079999999999998,0.5506686337026696
10.12,0.5734493685298936
10.16,0.6041860665622428
10.2,0.6416758329981249
10.24,0.6847232051024845
10.280000000000001,0.7322390017891426
10.319999999999999,0.7832818496194933
10.36,0.8370623831291668
10.4,0.8929285894630788
10.44,0.9503444469988029
10.48,1.0088683100190952
10.52,1.0681338084702907
10.559999999999999,1.1278340542216132
10.6,1.1877090367606757
10.639999999999999,1.2475357545288115
10.68,1.3071205620299606
10.72,1.366293258038302
10.76,1.4249025201491623
10.799999999999999,1.4828123723827726
10.84,1.5398994433313091
10.879999999999999,1.596050829578886
10.92,1.65116242372326
10.96,1.7051376003872276
11.0,1.7578861793450289
11.04,1.8093236042448422
11.08,1.8593702899481166
11.12,1.9079511024415408
11.16,1.954994943524131
11.2,2.0004344187148435
11.24,2.0442055715733214
11.28,2.0862476712538767
11.319999999999999,2.12650304289931
11.36,2.1649169326327615
11.4,2.201437400576545
11.44,2.236015236630993
11.48,2.2686038947700973
11.52,2.2991594424185284
11.559999999999999,2.327640522115709
11.6,2.354008323183919
11.64,2.3782265615277596
11.68,2.4002614660231765
11.72,2.420081770222837
11.759999999999998,2.437658708323859
11.799999999999999,2.4529660145241086
11.84,2.4659799250424874
11.879999999999999,2.4766791822031946
11.92,2.485045040088971
11.96,2.4910612713580043
11.999999999999998,2.4947141748965813
12.04,2.4959925840478827
12.08,2.494887875218393
12.12,2.491393976719759
12.16,2.4855073777569565
12.200000000000001,2.4772271375254507
12.239999999999998,2.466554894431822
12.28,2.4534948755063235
12.32,2.4380539061335327
12.36,2.4202414202905937
12.4,2.4000694715545325
12.44,2.3775527452227423
12.479999999999999,2.352708571988429
12.52,2.3255569437292554
12.559999999999999,2.296120532108672
12.6,2.264424710862539
12.64,2.230497582857915
12.68,2.19437001327875
12.719999999999999,2.1560756706305244
12.76,2.1156510776846
12.799999999999999,2.0731356750316707
12.84,2.0285719006217002
12.88,1.9820052895882598
12.92,1.9334845998619083
12.959999999999999,1.8830619706720395
12.999999999999998,1.8307931231625008
13.04,1.7767376152054102
13.08,1.720959166378666
13.12,1.6635260743928582
13.16,1.6045117516201974
13.2,1.5439954206892321
13.239999999999998,1.4820630227021072
13.28,1.4188084125243567
13.32,1.3543349458710305
13.36,1.2887576073181133
13.4,1.222205894307219
13.44,1.1548277713110147
13.479999999999999,1.086795158934625
13.52,1.0183116537560903
13.559999999999999,0.949623531126641
13.6,0.8810356324098794
13.64,0.8129345726219325
13.68,0.7458229208029311
13.719999999999999,0.6803695978620038
13.76,0.6174832175768242
13.799999999999999,0.5584143651818675
13.84,0.5048833568495258
13.88,0.45919639815519875
13.919999999999998,0.4242336861379076
13.959999999999999,0.403089207677739
14.0,0.3982022279426511
14.04,0.41031413456608024
14.08,0.438105908758659
14.120000000000001,0.4788801831058861
14.16,0.5296183326481981
14.2,0.5876732264708947
14.239999999999998,0.6509833880414466
14.28,0.7180252645328924
14.32,0.7876894469521383
14.36,0.8591631681216854
14.399999999999999,0.9318405033245052
14.44,1.0052590753796458
14.479999999999999,1.0790567798243624
14.52,1.1529424181243715
14.56,1.2266756932625118
14.6,1.3000534550155256
14.64,1.3729001293395013
14.68,1.4450609733963757
14.719999999999999,1.51639726095079
14.76,1.5867828035238487
14.799999999999999,1.6561014081254264
14.84,1.7242450003161502
14.879999999999999,1.7911122259268353
14.919999999999998,1.85660740132031
14.959999999999999,1.920639720359606
15.0,1.983122652472974
15.04,2.043973484393013
15.079999999999998,2.1031129709083283
15.120000000000001,2.1604650690221674
15.159999999999998,2.2159567364098076
15.199999999999998,2.2695177797766286
15.24,2.3210807421675983
15.28,2.370580820828168
15.319999999999999,2.4179558091178404
15.36,2.463146057408191
15.399999999999999,2.5060944489820156
15.439999999999998,2.546746387779754
15.48,2.585049795478227
15.52,2.6209551158823157
15.559999999999999,2.654415324997512
15.600000000000001,2.6853859454557645
15.639999999999999,2.713825064208201
15.679999999999998,2.739693352590438
15.72,2.7629540880202965
15.76,2.7835731767120717
15.799999999999999,2.801519176892654
15.84,2.816763322087339
15.879999999999999,2.8292795441113996
15.919999999999998,2.839044495460004
15.96,2.846037570836453
16.0,2.8502409275988465
16.04,2.8516395049395307
16.080000000000002,2.8502210416415146
16.12,2.845976092282154
16.16,2.8388980417780147
16.200000000000003,2.82898311818632
16.24,2.8162304036987726
16.279999999999998,2.8006418437830654
16.319999999999997,2.782222254447026
16.36,2.7609793276205568
16.4,2.7369236346717907
16.439999999999998,2.7100686280975665
16.48,2.6804306414546217
16.52,2.6480288876286595
16.56,2.612885455574605
16.6,2.575025305705112
16.64,2.5344762641580187
16.68,2.4912690162403295
16.72,2.4454370994307393
16.759999999999998,2.3970168964305594
16.799999999999997,2.346047628892665
16.84,2.292571352640415
16.88,2.236632955429899
16.919999999999998,2.1782801586312908
16.96,2.1175635246407087
17.0,2.0545364724296364
17.04,1.98925530446284
17.080000000000002,1.9217792493702364
17.12,1.8521705263978399
17.16,1.7804944400257856
17.2,1.7068195165999958
17.24,1.6312176999729804
17.279999999999998,1.5537646309574522
17.32,1.4745400474780288
17.36,1.3936283614196374
17.4,1.3111194991578612
17.44,1.2271101443756531
17.48,1.1417056104109475
17.52,1.0550227268660066
17.56,0.9671944160003049
17.6,0.8783771953962003
17.64,0.7887639811802817
17.68,0.6986070108521655
17.72,0.6082613191416276
17.759999999999998,0.5182731152393479
17.799999999999997,0.4295749480017843
17.84,0.34395962702186483
17.88,0.2653392339430099
17.919999999999998,0.20305897603034184
17.96,0.17643572026501883
18.0,0.20089556195511044
18.04,0.26288974066642024
18.080000000000002,0.3427816425699087
18.12,0.43076727190049896
18.159999999999997,0.5227365291389465
18.2,0.6168135758026505
18.24,0.7120246814786272
18.279999999999998,0.8077981384320458
18.32,0.9037594055696917
18.36,0.9996388176894379
18.4,1.0952263909018178
18.44,1.190348090841565
18.48,1.2848526289634339
18.52,1.3786037562620816
18.560000000000002,1.471475584334045
18.6,1.56334965119084
18.64,1.6541130328990026
18.679999999999996,1.7436571038646802
18.72,1.8318767116098011
18.759999999999998,1.9186696234531786
18.799999999999997,2.00393615573335
18.84,2.0875789281052115
18.88,2.169502705085951
18.919999999999998,2.2496142994249193
18.96,2.3278225198747466
19.0,2.4040381512113744
19.04,2.4781739578867277
19.080000000000002,2.550144705110109
19.119999999999997,2.6198671928268165
19.159999999999997,2.6872602992378276
19.2,2.7522450313423925
19.24,2.8147445805898332
19.279999999999998,2.874684382168047
19.32,2.9319921767821793
19.36,2.986598074019722
19.4,3.0384346165815552
19.44,3.0874368447976743
19.48,3.1335423609533404
19.52,3.1766913930344116
19.560000000000002,3.216826857565527
19.6,3.2538944212661147
19.639999999999997,3.287842561290257
19.68,3.318622623849496
19.72,3.3461888810446534
19.759999999999998,3.370498585755203
19.8,3.3915120244534163
19.84,3.4091925678265413
19.88,3.4235067191042345
19.919999999999998,3.4344241600007823
19.96,3.4419177941927783
20.0,3.445963788263494
20.04,3.446541610054882
20.08,3.4436340643780814
20.119999999999997,3.4372273260429664
20.159999999999997,3.427310970177421
20.2,3.4138779998178665
20.24,3.3969248707641206
20.279999999999998,3.3764515137047946
20.32,3.3524613536340913
20.36,3.3249613265979328
20.4,3.293961893827351
20.44,3.259477053340876
20.48,3.2215243491264705
20.52,3.1801248780488143
20.560000000000002,3.135303294671261
20.599999999999998,3.087087814236381
20.639999999999997,3.035510214117924
20.68,2.9806058341450608
20.72,2.922413576313377
20.759999999999998,2.860975904545011
20.8,2.7963388453551308
20.84,2.728551990540852
20.88,2.6576685033568013
20.92,2.583745130114416
20.96,2.5068422197924654
21.0,2.4270237551513563
21.04,2.3443574001203613
21.08,2.2589145700527795
21.119999999999997,2.170770534095015
21.159999999999997,2.0800045628285897
21.2,1.98670014022277
21.24,1.8909452679406904
21.279999999999998,1.7928329041333115
21.32,1.692461601429851
21.36,1.5899364459524659
21.4,1.4853704620192596
21.44,1.3788867571019237
21.48,1.270621881058958
21.52,1.1607312511999295
21.56,1.0493982447486092
21.599999999999998,0.9368501361405972
21.639999999999997,0.8233875919998531
21.68,0.7094430054331319
21.72,0.5957057065114537
21.759999999999998,0.48341930744938555
21.8,0.37517912746806226
21.84,0.27734973498285687
21.88,0.20722277676281803
21.92,0.19864897730659622
21.96,0.25887567107788495
22.0,0.35499765225933677
22.04,0.4655944987857084
22.08,0.5826282568905886
22.119999999999997,0.7029265206895519
22.16,0.8250165781938502
22.2,0.9480995427957507
22.24,1.0716791996630546
22.28,1.1954098682826977
22.32,1.3190270802238193
22.36,1.442313164715571
22.4,1.5650789394383782
22.44,1.6871534075161057
22.48,1.8083776897526609
22.519999999999996,1.928601317652011
22.56,2.0476799023277703
22.599999999999998,2.1654736366270435
22.639999999999997,2.2818463189030025
22.68,2.3966647130146295
22.72,2.5097981306547226
22.759999999999998,2.621118164044978
22.8,2.730498522373062
22.84,2.837814941067093
22.88,2.9429451429946547
22.92,3.0457688371635534
22.96,3.1461677448014465
23.0,3.2440256455920293
23.04,3.3392284388351383
23.08,3.431664215683563
23.119999999999997,3.5212233395883383
23.16,3.6077985327848467
23.2,3.6912849671599037
23.24,3.771580358212459
23.28,3.848585061096777
23.32,3.9222021679440826
23.36,3.992337605815861
23.400000000000002,4.05890023476221
23.44,4.121801945552243
23.479999999999997,4.180957756716651
23.519999999999996,4.236285910601058
23.56,4.287707968175799
23.599999999999998,4.335148902386728
23.639999999999997,4.378537189864053
23.68,4.417804900834404
23.72,4.452887787106006
23.759999999999998,4.483725368019403
23.8,4.510261014277546
23.84,4.532442029589569
23.88,4.550219730083564
23.92,4.563549521465248
23.96,4.572390973922386
23.999999999999996,4.5767078948003395
24.04,4.576468399102139
24.08,4.571644977898785
24.119999999999997,4.562214564772577
24.16,4.548158600459776
24.2,4.52946309591015
24.24,4.5061186940425575
24.28,4.478120730549221
24.32,4.4454692941912395
24.36,4.408169287137113
24.400000000000002,4.366230486030828
24.439999999999998,4.319667604642739
24.479999999999997,4.2685003591646264
24.52,4.21275353747117
24.56,4.152457074000303
24.599999999999998,4.087646132324667
24.64,4.018361198024888
24.68,3.9446481851704642
24.72,3.8665585606189135
24.759999999999998,3.7841494915307305
24.8,3.697484023068351
24.84,3.6066312953439774
24.88,3.511666811506904
24.92,3.4126727727073245
24.959999999999997,3.309738500964958
24.999999999999996,3.202960978332911
25.04,3.0924455411134693
25.08,2.9783067826680956
25.119999999999997,2.8606697397432437
25.16,2.7396714686044965
25.2,2.6154631640335557
25.24,2.488213045130065
25.28,2.3581103412774174
25.32,2.2253708838058737
25.36,2.090245085422048
25.4,1.9530295433268854
25.439999999999998,1.814084263690543
25.479999999999997,1.673858812818517
25.52,1.5329329935026428
25.56,1.3920817361526443
25.599999999999998,1.2523812438581194
25.64,1.1153864007543022
25.68,0.9834305080356674
25.72,0.8601230516274821
25.76,0.7511041913024887
25.8,0.6648613469007039
25.84,0.6124896474811277
25.880000000000003,0.6041146798895973
25.919999999999998,0.6424627675897073
25.959999999999997,0.7208526111307949
25.999999999999996,0.8285041144603701
26.04,0.9559072117055492
26.08,1.096377525976578
26.119999999999997,1.245565685278899
26.16,1.4006596149201926
26.2,1.559794030491722
26.24,1.7216822891915848
26.28,1.8853969245045505
26.32,2.050238846288738
26.36,2.215658046940666
26.4,2.381204400178221
26.439999999999998,2.546496368038508
26.479999999999997,2.711200614186604
26.52,2.875018422435808
26.56,3.037676463832092
26.599999999999998,3.198920406106477
26.64,3.3585104207550494
26.68,3.5162179821513964
26.72,3.671823562471178
26.76,3.825114958191306
26.8,3.9758860687783244
26.84,4.12393600374956
26.88,4.269068431316836
26.919999999999998,4.411091106894588
26.959999999999997,4.549815536989433
27.0,4.685056746003608
27.04,4.816633121972196
27.08,4.944366323323436
27.119999999999997,5.06808123314197
27.16,5.187605950625403
27.2,5.302771811796358
27.24,5.4134134333009625
27.28,5.519368774456024
27.32,5.620479213717636
27.36,5.716589636517278
27.4,5.807548532007809
27.439999999999998,5.893208096725338
27.479999999999997,5.973424343535328
27.52,6.048057214517464
27.56,6.116970696670278
27.599999999999998,6.180032939497966
27.64,6.237116373687542
27.68,6.288097830202585
27.72,6.332858659216339
27.76,6.371284848386385
27.8,6.403267140038915
27.839999999999996,6.428701146886264
27.88,6.447487465948275
27.919999999999998,6.459531790388707
27.959999999999997,6.464745019013749
28.0,6.463043363211368
28.04,6.454348451139987
28.08,6.438587429002553
28.12,6.415693059269442
28.16,6.385603815741325
28.2,6.34826397537187
