Frequency (Hz),Amplitude
0.0,7.561670528294513
0.04,7.565750473028681
0.08,7.577961175667641
0.12,7.598215771404243
0.16,7.626371228157337
0.19999999999999998,7.662230879528874
0.24,7.705547815813851
0.27999999999999997,7.7560289928090915
0.32,7.813339897268364
0.36,7.877109598096367
0.39999999999999997,7.946936013336995
0.44,8.02239123331408
0.48,8.103026757887287
0.52,8.188378528333693
0.5599999999999999,8.277971659486552
0.6,8.37132480332926
0.64,8.467954099529333
0.6799999999999999,8.567376690158955
0.72,8.669113794321923
0.76,8.772693353254473
0.7999999999999999,8.877652267697634
0.84,8.983538257207105
0.88,9.08991137598567
0.9199999999999999,9.196345222284007
0.96,9.302427878925746
1.0,9.407762621554344
1.04,9.511968429201866
1.0799999999999998,9.614680329107257
1.1199999999999999,9.715549604658094
1.1600000000000001,9.814243892123516
1.2,9.91044718865511
1.24,10.003859790975476
1.28,10.09419818132778
1.3199999999999998,10.181194874668634
1.3599999999999999,10.264598238771631
1.4,10.344172296872769
1.44,10.419696520722747
1.48,10.490965620397649
1.52,10.55778933593772
1.5599999999999998,10.6199922348097
1.5999999999999999,10.677413518298264
1.64,10.729906839202359
1.68,10.777340132621239
1.72,10.81959546114288
1.76,10.856568875374991
1.7999999999999998,10.888170290471605
1.8399999999999999,10.914323379090174
1.88,10.934965481054505
1.92,10.950047529885476
1.9599999999999997,10.959533996285913
2.0,10.963402848619195
2.0399999999999996,10.96164553039634
2.08,10.954266954776367
2.12,10.941285516083838
2.1599999999999997,10.92273311834974
2.2,10.898655220881624
2.2399999999999998,10.869110900860258
2.28,10.834172932937072
2.3200000000000003,10.793927885762633
2.36,10.748476235304187
2.4,10.697932494701382
2.44,10.64242536025483
2.48,10.58209787293085
2.5199999999999996,10.517107594485662
2.56,10.447626796949466
2.6,10.373842663748805
2.6399999999999997,10.29595750016687
2.68,10.214188950125854
2.7199999999999998,10.128770215400827
2.76,10.039950272318224
2.8,9.947994079729051
2.84,9.853182770554202
2.88,9.755813817453905
2.92,9.656201161158714
2.96,9.554675287703873
2.9999999999999996,9.451583238234598
3.04,9.347288532214222
3.08,9.242170981811697
3.1199999999999997,9.136626372042864
3.16,9.031065978003758
3.1999999999999997,8.925915887426607
3.2399999999999998,8.821616094031485
3.28,8.718619325025509
3.32,8.61738956497407
3.36,8.518400238558781
3.4,8.4221320169228
3.44,8.329070216895891
3.4799999999999995,8.23970176988605
3.52,8.154511748051
3.5599999999999996,8.073979449802756
3.5999999999999996,7.998574064796503
3.64,7.928749960022723
3.6799999999999997,7.864941652750519
3.7199999999999998,7.8075585616738215
3.76,7.756979653019285
3.7999999999999994,7.713548121494666
3.84,7.677566264432037
3.88,7.649290718927308
3.9199999999999995,7.628928234093516
3.96,7.616632142244258
4.0,7.6124996733418895
4.04,7.616570226951206
4.079999999999999,7.6288246769911
4.12,7.649185739593963
4.16,7.677519386940348
4.199999999999999,7.713637243923236
4.24,7.757299863615364
4.28,7.8082207448187555
4.319999999999999,7.866070932524336
4.36,7.930484030785351
4.4,8.001061457032748
4.4399999999999995,8.07737777596816
4.4799999999999995,8.158985967893772
4.5200000000000005,8.245422508343289
4.56,8.3362121607806
4.6,8.43087240975947
4.640000000000001,8.528917486502218
4.68,8.629861961044096
4.72,8.733223894074325
4.76,8.838527556991545
4.8,8.945305740445164
4.84,9.053101679980346
4.88,9.161470632737045
4.92,9.269981141956123
4.96,9.37821602682466
5.0,9.485773134435746
5.039999999999999,9.592265888782464
5.08,9.697323669124868
5.12,9.800592047066408
5.159999999999999,9.901732908489754
5.2,10.000424483307869
5.24,10.096361302909514
5.279999999999999,10.18925410230177
5.319999999999999,10.278829681324517
5.36,10.36483073695764
5.3999999999999995,10.447015676665382
5.4399999999999995,10.52515842091741
5.48,10.599048201475956
5.52,10.668489360723253
5.56,10.733301156198678
5.6,10.793317573598216
5.64,10.848387150735421
5.68,10.89837281435152
5.72,10.943151731172403
5.76,10.98261517422289
5.8,11.016668405108584
5.84,11.04523057274703
5.879999999999999,11.068234628861495
5.92,11.08562726043001
5.96,11.097368839201048
5.999999999999999,11.103433388335642
6.04,11.103808566207356
6.08,11.09849566737872
6.119999999999999,11.08750964077004
6.16,11.070879125037202
6.2,11.04864650117399
6.239999999999999,11.020867962345893
6.279999999999999,10.987613600938772
6.32,10.948967512763012
6.359999999999999,10.905027918281638
6.3999999999999995,10.855907300623754
6.44,10.801732559990922
6.4799999999999995,10.742645183854968
6.52,10.678801432067216
6.56,10.610372535638309
6.6,10.537544907488133
6.64,10.460520362888902
6.68,10.379516346611142
6.72,10.294766162910129
6.76,10.20651920343587
6.8,10.115041166888522
6.84,10.02061426274882
6.88,9.923537389667684
6.92,9.824126277081598
6.959999999999999,9.722713576319894
7.0,9.619648884886177
7.04,9.515298684745849
7.08,9.410046172373699
7.119999999999999,9.304290955081372
7.16,9.198448584862996
7.199999999999999,9.09294989782865
7.239999999999999,8.988240124456237
7.28,8.884777733666843
7.32,8.78303297246957
7.359999999999999,8.68348606305115
7.3999999999999995,8.586625021181565
7.4399999999999995,8.492943064181311
7.4799999999999995,8.402935583954232
7.52,8.317096671173822
7.5600000000000005,8.235915190922995
7.599999999999999,8.159870428000573
7.64,8.089427341469472
7.68,8.02503149216467
7.719999999999999,7.967103732659874
7.76,7.916034774976227
7.800000000000001,7.872179775039571
7.839999999999999,7.835853092199811
7.88,7.807323394607637
7.92,7.786809284736469
7.959999999999999,7.774475612261508
8.0,7.770430623179149
8.040000000000001,7.774724064904651
8.08,7.787346328755908
8.12,7.8082286664393905
8.159999999999998,7.837244469424555
8.2,7.8742115533211035
8.24,7.918895347329329
8.28,7.97101285468697
8.32,8.030237225991236
8.36,8.096202774371111
8.399999999999999,8.168510259587322
8.44,8.246732276088473
8.48,8.330418595953416
8.52,8.41910133918826
8.56,8.512299868620826
8.6,8.60952533242433
8.639999999999999,8.710284802252744
8.68,8.814084977697185
8.72,8.92043544737563
8.76,9.028851512995798
8.8,9.138856595099416
8.84,9.249984248098436
8.879999999999999,9.361779818024758
8.92,9.473801779609035
8.959999999999999,9.585622790388763
9.0,9.696830499013851
9.040000000000001,9.80702814321692
9.079999999999998,9.915834970429454
9.12,10.022886511070098
9.16,10.127834731355183
9.2,10.230348089270992
9.24,10.330111514235169
9.280000000000001,10.42682632805054
9.32,10.520210122073085
9.36,10.609996603104412
9.399999999999999,10.695935418386243
9.44,10.777791968215176
9.48,10.855347213094843
9.52,10.928397480980815
9.559999999999999,10.996754279027106
9.6,11.060244113289077
9.639999999999999,11.118708319051597
9.68,11.17200290381174
9.72,11.219998404431037
9.76,11.262579759564737
9.8,11.299646198157781
9.84,11.331111144554558
9.879999999999999,11.356902140588856
9.92,11.37696078489007
9.959999999999999,11.391242689552461
10.0,11.399717454256248
10.04,11.402368657895567
10.079999999999998,11.399193867751785
10.12,11.390204666244085
10.16,11.375426695287677
10.2,11.35489971828655
10.24,11.328677699776824
10.280000000000001,11.29682890271169
10.319999999999999,11.259436003333784
10.36,11.216596223506743
10.4,11.168421480267561
10.44,11.115038552204634
10.48,11.056589262052755
10.52,10.993230674612807
10.559999999999999,10.925135308736406
10.6,10.85249136164797
10.639999999999999,10.775502943290096
10.68,10.69439031765258
10.72,10.609390147158274
10.76,10.520755735106546
10.799999999999999,10.428757259892485
10.84,10.33368199320254
10.879999999999999,10.235834492611904
10.92,10.13553675695714
10.96,10.03312833051677
11.0,9.928966339403164
11.04,9.823425440666401
11.08,9.71689766147438
11.12,9.60979210243337
11.16,9.502534475759566
11.2,9.395566445764286
11.24,9.289344736191538
11.28,9.184339966631399
11.319999999999999,9.08103517888138
11.36,8.979924014165663
11.4,8.881508504031636
11.44,8.78629644204334
11.48,8.694798310596553
11.52,8.607523747744052
11.559999999999999,8.524977553159605
11.6,8.447655250376354
11.64,8.376038243976877
11.68,8.310588634841675
11.72,8.25174378275438
11.759999999999998,8.199910731993814
11.799999999999999,8.15546063994961
11.84,8.118723368910715
11.879999999999999,8.089982414547583
11.92,8.069470349018339
11.96,8.057364950417567
11.999999999999998,8.053786172676377
12.04,8.058794081352865
12.08,8.07238784257033
12.12,8.094505807329657
12.16,8.125026685047347
12.200000000000001,8.163771752375233
12.239999999999998,8.210507999986483
12.28,8.264952084347778
12.32,8.326774925879132
12.36,8.395606780508462
12.4,8.47104260844366
12.44,8.552647570946162
12.479999999999999,8.639962501147819
12.52,8.732509216205948
12.559999999999999,8.829795562910354
12.6,8.93132011496852
12.64,9.036576465676994
12.68,9.145057083078951
12.719999999999999,9.256256715040367
12.76,9.369675348437092
12.799999999999999,9.4848207397034
12.84,9.601210543510062
12.88,9.718374072672967
12.92,9.835853726009374
12.959999999999999,9.95320612226729
12.999999999999998,10.070002977954909
13.04,10.185831765350258
13.08,10.300296184573424
13.12,10.413016480684488
13.16,10.523629633588873
13.2,10.631789445287149
13.239999999999998,10.737166545839663
13.28,10.839448336425486
13.32,10.9383388851202
13.36,11.033558788530526
13.4,11.124845010217028
13.44,11.211950704906435
13.479999999999999,11.294645035828879
13.52,11.372712991093849
13.559999999999999,11.445955203819278
13.6,11.514187779726532
13.64,11.577242135087463
13.68,11.634964847234345
13.719999999999999,11.687217519298953
13.76,11.733876660413683
13.799999999999999,11.774833582268359
13.84,11.809994312655675
13.88,11.839279526442631
13.919999999999998,11.862624494263068
13.959999999999999,11.879979049126863
14.0,11.89130757107555
14.04,11.896588989973917
14.08,11.895816806504701
14.120000000000001,11.88899913142317
14.16,11.876158743122092
14.2,11.857333163550921
14.239999999999998,11.83257475251785
14.28,11.801950820374625
14.32,11.765543759033399
14.36,11.723451191185154
14.399999999999999,11.675786137471418
14.44,11.622677201195039
14.479999999999999,11.564268769930417
14.52,11.50072123309548
14.56,11.432211214162221
14.6,11.358931815692802
14.64,11.281092874774696
14.68,11.198921225670448
14.719999999999999,11.112660965571813
14.76,11.022573718229879
14.799999999999999,10.928938888896338
14.84,10.832053902431422
14.879999999999999,10.732234414586939
14.919999999999998,10.629814484339752
14.959999999999999,10.525146692719145
15.0,10.418602190841549
15.04,10.310570656854058
15.079999999999998,10.201460138235689
15.120000000000001,10.091696752484742
15.159999999999998,9.981724215746095
15.199999999999998,9.872003165568113
15.24,9.76301024095072
15.28,9.65523688044644
15.319999999999999,9.549187797671244
15.36,9.445379093608368
15.399999999999999,9.34433596704208
15.439999999999998,9.246589988872175
15.48,9.15267591346233
15.52,9.063128011032267
15.559999999999999,8.97847591974295
15.600000000000001,8.899240034641455
15.639999999999999,8.825926472795892
15.679999999999998,8.75902167910402
15.72,8.698986764259674
15.76,8.646251693556454
15.799999999999999,8.601209470493641
15.84,8.56421048010348
15.879999999999999,8.535557171035043
15.919999999999998,8.515499260420349
15.96,8.504229639687649
16.0,8.501881141938068
16.04,8.508524302558818
16.080000000000002,8.524166205934863
16.12,8.54875046511152
16.16,8.582158331600612
16.200000000000003,8.624210883209857
16.24,8.674672192755631
16.279999999999998,8.733253343194837
16.319999999999997,8.799617127542632
16.36,8.873383256218403
16.4,8.954133890253617
16.439999999999998,9.041419325090608
16.48,9.134763664668078
16.52,9.23367034680592
16.56,9.33762740609335
16.6,9.446112387208911
16.64,9.558596847860388
16.68,9.674550414790707
16.72,9.793444377514476
16.759999999999998,9.914754822060402
16.799999999999997,10.037965320826887
16.84,10.162569204845889
16.88,10.288071451637133
16.919999999999998,10.413990225886364
16.96,10.539858111912487
17.0,10.66522307681189
17.04,10.789649201756054
17.080000000000002,10.912717216585003
17.12,11.034024869927046
17.16,11.15318716386006
17.2,11.269836478820395
17.24,11.383622611215436
17.279999999999998,11.494212743110246
17.32,11.60129136050409
17.36,11.704560134126812
17.4,11.80373777438243
17.44,11.898559870047478
17.48,11.988778718582653
17.52,12.074163154420077
17.56,12.154498380322302
17.6,12.229585805849338
17.64,12.299242896092215
17.68,12.36330303311277
17.72,12.421615391947432
17.759999999999998,12.474044832568325
17.799999999999997,12.520471808829319
17.84,12.560792295142626
17.88,12.594917731417777
17.919999999999998,12.622774986638698
17.96,12.644306341342686
18.0,12.659469489190222
18.04,12.668237557766297
18.080000000000002,12.67059914872506
18.12,12.666558397373171
18.159999999999997,12.656135051775887
18.2,12.639364571456971
18.24,12.616298245742527
18.279999999999998,12.58700333176221
18.32,12.551563212061437
18.36,12.510077571686896
18.4,12.462662594474924
18.44,12.409451178087899
18.48,12.350593167094763
18.52,12.286255603064944
18.560000000000002,12.216622990223236
18.6,12.141897574679456
18.64,12.06229963458002
18.679999999999996,11.978067777706407
18.72,11.889459242043534
18.759999999999998,11.796750193632915
18.799999999999997,11.700236014584092
18.84,11.600231572416872
18.88,11.497071459921502
18.919999999999998,11.391110192434786
18.96,11.282722346825402
19.0,11.17230262356301
19.04,11.060265810032494
19.080000000000002,10.947046619793277
19.119999999999997,10.8330993788532
19.159999999999997,10.718897526351485
19.2,10.604932893503168
19.24,10.491714721489624
19.279999999999998,10.379768376499998
19.32,10.26963371872493
19.36,10.161863082240048
19.4,10.057018824914646
19.44,9.955670412299202
19.48,9.858391007434223
19.52,9.76575355016197
19.560000000000002,9.678326325142928
19.6,9.596668037462951
19.639999999999997,9.5213224382
19.68,9.45281256889235
19.72,9.391634722293862
19.759999999999998,9.33825224537247
19.8,9.293089336993356
19.84,9.256525014598258
19.88,9.228887438839177
19.919999999999998,9.21044879017972
19.96,9.20142088516638
20.0,9.201951701549945
20.04,9.212122951034093
20.08,9.231948797748593
20.119999999999997,9.261375772375692
20.159999999999997,9.300283879887886
20.2,9.348488847233593
20.24,9.405745410128844
20.279999999999998,9.471751498909592
20.32,9.546153154732975
20.36,9.628549990639604
20.4,9.71850100720017
20.44,9.815530578644125
20.48,9.919134440628861
20.52,10.028785532763877
20.560000000000002,10.14393957509719
20.599999999999998,10.264040285568605
20.639999999999997,10.388524172852911
20.68,10.516824864440697
20.72,10.648376952135793
20.759999999999998,10.782619355769853
20.8,10.918998220645987
20.84,11.056969375142824
20.88,11.196000382378644
20.92,11.335572224323727
20.96,11.475180658786398
21.0,11.614337289813548
21.04,11.752570390731773
21.08,11.889425516742534
21.119999999999997,12.02446594103589
21.159999999999997,12.157272945092746
21.2,12.287445990428617
21.24,12.414602795656549
21.279999999999998,12.538379339527488
21.32,12.658429807616615
21.36,12.774426497606399
21.4,12.886059695689749
21.44,12.993037534481065
21.48,13.095085840969105
21.52,13.191947981455433
21.56,13.28338470907307
21.599999999999998,13.36917401834864
21.639999999999997,13.44911101033159
21.68,13.523007771043458
21.72,13.590693265374869
21.759999999999998,13.652013248058108
21.8,13.706830192949168
21.84,13.75502324154921
21.88,13.796488171465304
21.92,13.831137385342368
21.96,13.85889992067957
22.0,13.879721480865694
22.04,13.893564487719296
22.08,13.900408155793068
22.119999999999997,13.9002485886895
22.16,13.893098897629477
22.2,13.87898934250979
22.24,13.857967495671959
22.28,13.83009842857543
22.32,13.795464921515379
22.36,13.754167696438468
22.4,13.706325672779665
22.44,13.652076246056847
22.48,13.591575588703495
22.519999999999996,13.52499897227837
22.56,13.452541109745006
22.599999999999998,13.37441651594384
22.639999999999997,13.290859883661009
22.68,13.202126471804908
22.72,13.108492501104877
22.759999999999998,13.010255551414764
22.8,12.907734953104729
22.84,12.801272163124297
22.88,12.691231114086568
22.92,12.577998522130233
22.96,12.461984136343883
23.0,12.3436209091789
23.04,12.223365063548055
23.08,12.101696028247423
23.119999999999997,11.979116209029561
23.16,11.856150558225277
23.2,11.73334590144996
23.24,11.611269975904028
23.28,11.490510131435029
23.32,11.37167164331349
23.36,11.255375585119756
23.400000000000002,11.142256211859028
23.44,11.032957808085913
23.479999999999997,10.928130964103882
23.519999999999996,10.82842825582542
23.56,10.734499321094164
23.599999999999998,10.646985347374262
23.639999999999997,10.566513012501334
23.68,10.493687950948594
23.72,10.429087851469188
23.759999999999998,10.373255326068287
23.8,10.326690722483248
23.84,10.289845079720163
23.88,10.263113445565413
23.92,10.246828783429242
23.96,10.241256691094595
23.999999999999996,10.246591134709478
24.04,10.262951367826894
24.08,10.290380159151383
24.119999999999997,10.328843397039474
24.16,10.37823107801349
24.2,10.43835962550585
24.24,10.508975428687311
24.28,10.58975944386727
24.32,10.680332665784915
24.36,10.78026225490004
24.400000000000002,10.88906809979232
24.439999999999998,11.006229599872123
24.479999999999997,11.131192470627946
24.52,11.263375398773071
24.56,11.402176404868783
24.599999999999998,11.546978803389898
24.64,11.697156682262577
24.68,11.85207985370309
24.72,12.01111825439332
24.759999999999998,12.173645794896878
24.8,12.339043675500246
24.84,12.506703198489593
24.88,12.676028115645892
24.92,12.846436555014217
24.959999999999997,13.01736257340199
24.999999999999996,13.188257381209462
25.04,13.358590284673374
25.08,13.527849387919602
25.119999999999997,13.695542093797153
25.16,13.861195438643566
25.2,14.024356292171452
25.24,14.18459144975794
25.28,14.341487640695131
25.32,14.494651472505115
25.36,14.643709328285475
25.4,14.788307231250844
25.439999999999998,14.928110688173616
25.479999999999997,15.062804521289287
25.52,15.192092696397886
25.56,15.315698153335646
25.599999999999998,15.433362643682269
25.64,15.544846579479266
25.68,15.649928895836569
25.72,15.748406929570459
25.76,15.840096315423185
25.8,15.924830900939613
25.84,16.002462680701456
25.880000000000003,16.072861750326084
25.919999999999998,16.135916280410555
25.959999999999997,16.19153251042844
25.999999999999996,16.239634762455736
26.04,16.280165474502347
26.08,16.313085253147676
26.119999999999997,16.338372945114795
26.16,16.356025727359654
26.2,16.36605921519184
26.24,16.368507587875712
26.28,16.363423731076413
26.32,16.350879395409017
26.36,16.330965370211086
26.4,16.30379167148367
26.439999999999998,16.269487742721488
26.479999999999997,16.22820266707337
26.52,16.18010538892605
26.56,16.12538494257842
26.599999999999998,16.064250685156768
26.64,15.996932530301212
26.68,15.923681178416349
26.72,15.844768338410873
26.76,15.76048693483771
26.8,15.671151293175688
26.84,15.577097294653878
26.88,15.478682490503502
26.919999999999998,15.376286163825164
26.959999999999997,15.270309325385831
27.0,15.16117462762238
27.04,15.049326178952834
27.08,14.93522923822382
27.119999999999997,14.819369766815385
27.16,14.702253813667543
27.2,14.584406706402328
27.24,14.4663720199362
27.28,14.348710292692452
27.32,14.231997459947449
27.36,14.116822974227032
27.4,14.003787584284092
27.439999999999998,13.893500747323387
27.479999999999997,13.786577654076734
27.52,13.683635853323137
27.56,13.585291471679612
27.599999999999998,13.492155036044405
27.64,13.404826919891548
27.68,13.323892450444726
27.72,13.249916731126046
27.76,13.18343925186809
27.8,13.12496837793877
27.839999999999996,13.074975824697
27.88,13.033891239868302
27.919999999999998,13.002097025160285
27.959999999999997,12.979923534077317
28.0,12.96764478162762
28.04,12.965474793614911
28.08,12.973564708243657
28.12,12.992000721291245
28.16,13.020802939145845
28.2,13.059925173127064
28.240000000000002,13.109255675633364
28.28,13.168618785924668
28.32,13.237777422856938
28.359999999999996,13.316436335508527
28.4,13.404246001833794
