Frequency (Hz),Amplitude
0.0,0.44163858225707986
0.019801980198019802,0.4448972355382311
0.039603960396039604,0.45452052657911624
0.0594059405940594,0.4700815033966873
0.07920792079207921,0.49095825484819755
0.09900990099009901,0.5164300940379554
0.1188118811881188,0.545761527074198
0.13861386138613863,0.5782595350109404
0.15841584158415842,0.6133037486861628
0.1782178217821782,0.6503563263636856
0.19801980198019803,0.6889595347629207
0.21782178217821782,0.7287273106920031
0.2376237623762376,0.7693347936832631
0.25742574257425743,0.8105079902319227
0.27722772277227725,0.8520145474461639
0.297029702970297,0.8936559480657358
0.31683168316831684,0.9352611074831817
0.33663366336633666,0.976681213376833
0.3564356435643564,1.0177856078571674
0.37623762376237624,1.0584585177906822
0.39603960396039606,1.0985964631723157
0.4158415841584158,1.1381062022849262
0.43564356435643564,1.1769030997677252
0.45544554455445546,1.2149098273311536
0.4752475247524752,1.2520553262453102
0.495049504950495,1.2882739762152757
0.5148514851485149,1.3235049274291162
0.5346534653465347,1.357691562046749
0.5544554455445545,1.390781058750415
0.5742574257425742,1.4227240396695036
0.594059405940594,1.4534742833999708
0.613861386138614,1.4829884912573297
0.6336633663366337,1.511226096560671
0.6534653465346534,1.5381491088195578
0.6732673267326733,1.5637219863200418
0.6930693069306931,1.587911531883419
0.7128712871287128,1.6106868075802914
0.7326732673267327,1.6320190649828141
0.7524752475247525,1.6518816881759628
0.7722772277227723,1.6702501472597515
0.7920792079207921,1.6871019604856663
0.8118811881188118,1.702416663503468
0.8316831683168316,1.716175784465675
0.8514851485148516,1.7283628239588438
0.8712871287128713,1.738963238913899
0.891089108910891,1.747964429799785
0.9108910891089109,1.7553557305323348
0.9306930693069307,1.7611284006382706
0.9504950495049505,1.7652756193070884
0.9702970297029703,1.7677924810444305
0.99009900990099,1.7686759927122313
1.00990099009901,1.7679250718061525
1.0297029702970297,1.7655405458810847
1.0495049504950495,1.761525153093452
1.0693069306930694,1.7558835438856806
1.0891089108910892,1.7486222838959504
1.108910891089109,1.7397498582364668
1.1287128712871286,1.7292766773479706
1.1485148514851484,1.7172150847094685
1.1683168316831685,1.7035793667619474
1.188118811881188,1.688385765496674
1.2079207920792079,1.671652494265143
1.227722772277228,1.653399757493559
1.2475247524752475,1.633649775134646
1.2673267326732673,1.6124268128696397
1.2871287128712872,1.5897572192919631
1.3069306930693068,1.565669471570628
1.3267326732673268,1.5401942314190704
1.3465346534653466,1.5133644135998248
1.3663366336633662,1.4852152696979517
1.3861386138613863,1.4557844905237938
1.405940594059406,1.4251123312928187
1.4257425742574257,1.3932417647227082
1.4455445544554455,1.3602186684445496
1.4653465346534653,1.3260920547234152
1.4851485148514851,1.2909143525252762
1.504950495049505,1.2547417545847
1.5247524752475248,1.217634645495612
1.5445544554455446,1.1796581311917946
1.5643564356435644,1.1408826957991152
1.5841584158415842,1.10138501910321
1.6039603960396038,1.0612489972547174
1.6237623762376237,1.020567021397625
1.6435643564356437,0.9794415842948803
1.6633663366336633,0.9379873043682375
1.683168316831683,0.896333480264342
1.7029702970297032,0.854627316795777
1.7227722772277227,0.8130379928707624
1.7425742574257426,0.7717617681542889
1.7623762376237624,0.731028334735336
1.782178217821782,0.6911085862960025
1.801980198019802,0.6523238492352968
1.8217821782178218,0.6150563080757532
1.8415841584158414,0.5797597189843195
1.8613861386138615,0.5469683533841069
1.881188118811881,0.517300299254932
1.900990099009901,0.4914489147068375
1.920792079207921,0.4701543233436333
1.9405940594059405,0.4541476652010264
1.9603960396039604,0.44406761684191226
1.98019801980198,0.44036267741837115
2.0,0.44320810556243534
2.01980198019802,0.45247016906022747
2.0396039603960396,0.467733676407482
2.0594059405940595,0.48838038818500057
2.0792079207920793,0.5136866873949415
2.099009900990099,0.5429101267202632
2.118811881188119,0.5753491273705701
2.1386138613861387,0.6103748123189698
2.1584158415841586,0.6474417568842628
2.1782178217821784,0.6860858805177699
2.1980198019801978,0.7259160003623535
2.217821782178218,0.7666032122647105
2.237623762376238,0.8078703615346973
2.257425742574257,0.8494826307885233
2.2772277227722775,0.8912395760595525
2.297029702970297,0.932968595787129
2.3168316831683167,0.9745196706844417
2.336633663366337,1.0157611696167357
2.3564356435643563,1.056576522233334
2.376237623762376,1.0968615839285314
2.3960396039603964,1.1365225483959234
2.4158415841584158,1.1754742912007001
2.4356435643564356,1.2136390520605538
2.455445544554456,1.2509453834289377
2.4752475247524752,1.2873273088529629
2.495049504950495,1.3227236470449133
2.514851485148515,1.3570774673071033
2.5346534653465347,1.3903356494637689
2.5544554455445545,1.4224485272645222
2.5742574257425743,1.453369598719125
2.594059405940594,1.4830552903066703
2.6138613861386135,1.5114647647089294
2.633663366336634,1.5385597638274
2.6534653465346536,1.5643044804947372
2.673267326732673,1.5886654535885538
2.6930693069306932,1.6116114822793126
2.712871287128713,1.6331135559559466
2.7326732673267324,1.6531447970191424
2.7524752475247527,1.6716804142499735
2.7722772277227725,1.6886976648777656
2.792079207920792,1.704175823807962
2.811881188118812,1.7180961587446226
2.8316831683168315,1.7304419101662643
2.8514851485148514,1.7411982752987165
2.8712871287128716,1.7503523953817592
2.891089108910891,1.7578933456549295
2.910891089108911,1.7638121275966738
2.9306930693069306,1.7681016630441426
2.9504950495049505,1.7707567899021122
2.9702970297029703,1.7717742592213945
2.99009900990099,1.771152733492028
3.00990099009901,1.7688927860568595
3.0297029702970297,1.7649969016085778
3.0495049504950495,1.7594694777894935
3.0693069306930694,1.7523168279704877
3.089108910891089,1.7435471853446873
3.108910891089109,1.7331707085351953
3.128712871287129,1.7211994889859423
3.148514851485148,1.7076475604831944
3.1683168316831685,1.6925309112451306
3.1881188118811883,1.6758674991212736
3.2079207920792077,1.657677270566693
3.227722772277228,1.6379821842024584
3.2475247524752473,1.6168062399502372
3.267326732673267,1.5941755149426589
3.2871287128712874,1.5701182076720106
3.3069306930693068,1.5446646921605827
3.3267326732673266,1.5178475843322472
3.346534653465347,1.4897018232573234
3.366336633663366,1.4602647705579377
3.386138613861386,1.429576332033547
3.4059405940594063,1.3976791065405814
3.4257425742574257,1.364618568395318
3.4455445544554455,1.330443291141907
3.4653465346534653,1.2952052225388246
3.485148514851485,1.2589600232001146
3.504950495049505,1.2217674846567943
3.5247524752475248,1.1836920469079504
3.5445544554455446,1.1448034411084844
3.564356435643564,1.1051774902759297
3.5841584158415842,1.0648971102799094
3.603960396039604,1.0240535655031395
3.6237623762376234,0.9827480491288522
3.6435643564356437,0.94109367774001
3.6633663366336635,0.899218014374652
3.683168316831683,0.8572662633353508
3.702970297029703,0.8154053123433027
3.722772277227723,0.7738288281213259
3.7425742574257423,0.732763628316205
3.762376237623762,0.6924775305965716
3.7821782178217824,0.6532887694186382
3.801980198019802,0.615576783037674
3.8217821782178216,0.5797935617958562
3.841584158415842,0.5464736114684109
3.8613861386138613,0.5162387355394151
3.881188118811881,0.4897913525255313
3.9009900990099013,0.46788780841299693
3.9207920792079207,0.45128344629757194
3.9405940594059405,0.44064763097687065
3.96039603960396,0.43646138158046927
3.98019801980198,0.43892736985660685
4.0,0.4479278298821115
4.01980198019802,0.4630494780112429
4.03960396039604,0.4836639415587147
4.0594059405940595,0.5090302744589259
4.079207920792079,0.5383865098652291
4.099009900990099,0.5710128518437453
4.118811881188119,0.6062652001071456
4.138613861386139,0.6435862753044133
4.158415841584159,0.6825031831840404
4.178217821782178,0.7226183850141134
4.198019801980198,0.7635984832888822
4.217821782178218,0.8051631857889406
4.237623762376238,0.8470754990553943
4.257425742574258,0.8891334726713873
4.2772277227722775,0.931163458729393
4.297029702970297,0.9730147040480376
4.316831683168317,1.0145550532164198
4.336633663366336,1.0556675501604311
4.356435643564357,1.096247754272296
4.376237623762377,1.1362016195825062
4.3960396039603955,1.175443815642202
4.415841584158416,1.2138963944997676
4.435643564356436,1.2514877290762598
4.455445544554455,1.2881516648296318
4.475247524752476,1.3238268395531099
4.4950495049504955,1.3584561361907888
4.514851485148514,1.3919862412998314
4.534653465346535,1.4243672877601543
4.554455445544555,1.4555525649386474
4.574257425742574,1.4854982830754353
4.594059405940594,1.5141633814197821
4.613861386138614,1.5415093717904256
4.633663366336633,1.5675002109122487
4.653465346534653,1.5921021961965764
4.673267326732674,1.6152838806690644
4.693069306930693,1.6370160035695025
4.712871287128713,1.6572714338007375
4.732673267326733,1.6760251239254946
4.752475247524752,1.6932540728292662
4.772277227722772,1.7089372955060855
4.792079207920793,1.7230557986990733
4.811881188118812,1.7355925613526988
4.8316831683168315,1.7465325190187515
4.851485148514852,1.7558625515114994
4.871287128712871,1.7635714732359935
4.891089108910891,1.76965002572198
4.910891089108912,1.7740908719887956
4.930693069306931,1.7768885924473732
4.9504950495049505,1.7780396821165956
4.97029702970297,1.777542548995889
4.99009900990099,1.7753975134952187
5.00990099009901,1.7716068088803634
5.02970297029703,1.766174582746606
5.0495049504950495,1.759106899589835
5.069306930693069,1.750411744601938
5.089108910891089,1.7400990288795952
5.108910891089109,1.7281805963032941
5.128712871287129,1.714670232419952
5.148514851485149,1.6995836757496545
5.1683168316831685,1.6829386320384736
5.188118811881188,1.66475479209888
5.207920792079208,1.645053854021532
5.227722772277227,1.62385955071363
5.247524752475248,1.6011976839265711
5.267326732673268,1.5770961661895797
5.2871287128712865,1.5515850723778428
5.306930693069307,1.5246967030297938
5.326732673267327,1.4964656620082184
5.346534653465346,1.4669289517005009
5.366336633663367,1.4361260897083172
5.3861386138613865,1.404099251931015
5.405940594059405,1.370893448158568
5.425742574257426,1.33655673783577
5.445544554455446,1.301140495641065
5.465346534653465,1.264699739074954
5.485148514851486,1.227293533552116
5.504950495049505,1.1889854947719847
5.524752475247524,1.1498444137134505
5.544554455445545,1.109945036863401
5.564356435643565,1.0693690437646934
5.584158415841584,1.0282062763101611
5.603960396039604,0.9865562902033768
5.623762376237624,0.9445303195322607
5.643564356435643,0.9022537712791486
5.663366336633663,0.8598693982043106
5.683168316831684,0.8175413350025972
5.702970297029703,0.7754602200336966
5.7227722772277225,0.7338496528764488
5.742574257425743,0.6929742330960535
5.762376237623762,0.6531493402461518
5.782178217821782,0.6147525594432132
5.801980198019803,0.5782360769776648
5.821782178217822,0.5441382386162663
5.841584158415841,0.5130905328119685
5.861386138613861,0.48581350388428746
5.881188118811881,0.4630922842133348
5.900990099009901,0.4457219665171015
5.920792079207921,0.43441906610125064
5.9405940594059405,0.42971080959424085
5.96039603960396,0.4318340382502882
5.98019801980198,0.4406843115038839
6.0,0.45583901184478315
6.01980198019802,0.4766433633296748
6.03960396039604,0.5023220567056971
6.0594059405940595,0.532078888064942
6.079207920792079,0.5651647559312167
6.099009900990099,0.6009128479778808
6.118811881188119,0.6387494608767158
6.138613861386139,0.6781904154917315
6.158415841584159,0.7188307311117293
6.178217821782178,0.7603322832403552
6.198019801980198,0.8024118966146737
6.217821782178218,0.8448309094651218
6.237623762376237,0.8873864815302283
6.257425742574258,0.929904559101904
6.2772277227722775,0.9722342723784685
6.297029702970296,1.0142435115944308
6.316831683168317,1.0558154472321575
6.336633663366337,1.0968457949805854
6.356435643564356,1.137240663553873
6.376237623762377,1.1769148571271744
6.396039603960396,1.2157905321985125
6.415841584158415,1.2537961311672967
6.435643564356436,1.290865532541225
6.455445544554456,1.3269373713235213
6.475247524752475,1.361954493622337
6.495049504950495,1.3958635175682905
6.514851485148515,1.4286144787937407
6.534653465346534,1.4601605434624887
6.554455445544554,1.4904577754833903
6.574257425742575,1.5194649473566766
6.594059405940594,1.5471433862842807
6.6138613861386135,1.5734568488755023
6.633663366336634,1.598371419108815
6.653465346534653,1.6218554252560031
6.673267326732673,1.643879372300004
6.693069306930694,1.6644158870333419
6.712871287128713,1.6834396735466384
6.732673267326732,1.7009274772361886
6.752475247524753,1.716858055797435
6.772277227722772,1.7312121559457945
6.792079207920792,1.743972494829836
6.811881188118813,1.7551237452858663
6.8316831683168315,1.7646525242352502
6.851485148514851,1.7725473836528733
6.871287128712871,1.7787988036424935
6.891089108910891,1.7833991872464832
6.910891089108911,1.7863428566967041
6.930693069306931,1.7876260508833726
6.9504950495049505,1.7872469238818591
6.97029702970297,1.7852055444355397
6.99009900990099,1.781503896347704
7.00990099009901,1.776145879789572
7.02970297029703,1.76913731358527
7.0495049504950495,1.760485938590758
7.069306930693069,1.750201422343563
7.089108910891089,1.7382953652254913
7.108910891089109,1.7247813084539938
7.128712871287128,1.7096747443017546
7.148514851485149,1.6929931290414146
7.1683168316831685,1.6747558992272555
7.188118811881187,1.654984492062566
7.207920792079208,1.633702370766102
7.227722772277228,1.610935056051003
7.247524752475247,1.5867101650742022
7.267326732673268,1.5610574595154416
7.287128712871287,1.5340089048178709
7.306930693069306,1.5055987430873072
7.326732673267327,1.475863582729273
7.346534653465347,1.4448425086369743
7.366336633663366,1.4125772176725837
7.3861386138613865,1.3791121853673998
7.405940594059406,1.3444948712809663
7.425742574257425,1.3087759724067782
7.445544554455446,1.2720097365300742
7.465346534653466,1.2342543507124555
7.485148514851485,1.195572424341857
7.504950495049505,1.1560315917680442
7.524752475247524,1.1157052668722698
7.544554455445544,1.0746735915588443
7.564356435643565,1.0330246328362513
7.584158415841584,0.9908558997921144
7.603960396039604,0.9482762734552791
7.623762376237624,0.9054084704553333
7.643564356435643,0.8623921965039254
7.663366336633663,0.8193881880759927
7.683168316831684,0.7765833877914977
7.702970297029703,0.7341975425850641
7.7227722772277225,0.6924915331203246
7.742574257425743,0.6517776928510663
7.762376237623762,0.6124321653781621
7.782178217821782,0.5749088147098672
7.801980198019803,0.5397530803006253
7.821782178217822,0.5076121226739166
7.841584158415841,0.47923445055009506
7.861386138613862,0.45544855714560173
7.881188118811881,0.43710842849178666
7.900990099009901,0.4249991555887855
7.92079207920792,0.41971300955269086
7.9405940594059405,0.4215311933469217
7.96039603960396,0.43036015191590865
7.980198019801979,0.44575363823291747
8.0,0.4670093386277756
8.01980198019802,0.49329567162680715
8.03960396039604,0.5237637447884562
8.05940594059406,0.5576217632564525
8.07920792079208,0.5941716101835997
8.099009900990099,0.6328182831754324
8.118811881188119,0.6730639901177012
8.138613861386139,0.714495574250987
8.158415841584159,0.7567703694894751
8.178217821782178,0.799602983942438
8.198019801980198,0.8427539668622027
8.217821782178218,0.886020524996998
8.237623762376238,0.9292291084220762
8.257425742574258,0.9722295707435924
8.277227722772277,1.0148906007377725
8.297029702970297,1.0570961574440032
8.316831683168317,1.0987426874970998
8.336633663366337,1.1397369486526996
8.356435643564357,1.1799943021976103
8.376237623762377,1.2194373682992965
8.396039603960396,1.2579949629608158
8.415841584158416,1.2956012542327804
8.435643564356436,1.3321950898427943
8.455445544554456,1.3677194594439495
8.475247524752476,1.4021210630759597
8.495049504950495,1.4353499638184033
8.514851485148515,1.4673593074855782
8.534653465346535,1.4981050959401194
8.554455445544555,1.5275460034664063
8.574257425742575,1.5556432278557462
8.594059405940595,1.5823603695696022
8.613861386138613,1.6076633336835402
8.633663366336634,1.631520250361311
8.653465346534654,1.6539014104327772
8.673267326732672,1.674779213301778
8.693069306930694,1.6941281249293219
8.712871287128714,1.7119246440528335
8.732673267326732,1.7281472751365314
8.752475247524753,1.7427765068183823
8.772277227722773,1.755794794839641
8.792079207920791,1.7671865486233755
8.811881188118813,1.7769381208178918
8.831683168316832,1.7850377992452076
8.85148514851485,1.7914758007996328
8.871287128712872,1.7962442669305443
8.891089108910892,1.7993372604209583
8.91089108910891,1.8007507632409827
8.930693069306932,1.8004826753164402
8.950495049504951,1.7985328141088721
8.97029702970297,1.7949029149559943
8.990099009900991,1.7895966321731993
9.00990099009901,1.782619540968217
9.029702970297029,1.7739791402745158
9.04950495049505,1.763684856665693
9.06930693069307,1.7517480495753683
9.089108910891088,1.7381820181164898
9.10891089108911,1.7230020098735266
9.12871287128713,1.7062252321333025
9.148514851485148,1.687870866128877
9.16831683168317,1.6679600850009202
9.188118811881187,1.646516076337037
9.207920792079207,1.6235640703397995
9.227722772277229,1.5991313749068305
9.247524752475247,1.573247419193256
9.267326732673267,1.5459438075832912
9.287128712871288,1.5172543864424746
9.306930693069306,1.4872153265810037
9.326732673267326,1.4558652250647
9.346534653465348,1.4232452309070942
9.366336633663366,1.3893992003223075
9.386138613861386,1.354373888690699
9.405940594059407,1.3182191882915792
9.425742574257425,1.2809884233279998
9.445544554455445,1.2427387169954405
9.465346534653467,1.2035314495812441
9.485148514851485,1.1634328321672391
9.504950495049505,1.1225146279049996
9.524752475247526,1.0808550626624098
9.544554455445544,1.0385399799277624
9.564356435643564,0.995664312286233
9.584158415841586,0.9523339649267781
9.603960396039604,0.908668237142311
9.623762376237623,0.8648029473988534
9.643564356435645,0.8208944775857084
9.663366336633663,0.7771250120622805
9.683168316831683,0.733709311826006
9.702970297029704,0.6909034170251193
9.722772277227723,0.6490156714816882
9.742574257425742,0.6084203222396595
9.762376237623764,0.5695734897902718
9.782178217821782,0.5330302194613302
9.801980198019802,0.49945915237366045
9.821782178217823,0.4696476633660279
9.841584158415841,0.44448539014685934
9.861386138613861,0.42491045391557836
9.881188118811881,0.4118066693135218
9.900990099009901,0.40585941182083474
9.92079207920792,0.4074105310446221
9.94059405940594,0.41637495322012474
9.96039603960396,0.43226258668797823
9.98019801980198,0.45429353980000603
10.0,0.4815496030775087
10.01980198019802,0.5131047120472005
10.03960396039604,0.5481076357629825
10.05940594059406,0.5858190440875313
10.07920792079208,0.6256176817812761
10.099009900990099,0.6669903521477907
10.118811881188119,0.7095157528758103
10.138613861386139,0.7528476484293112
10.158415841584159,0.796699812373892
10.178217821782178,0.8408334970443476
10.198019801980198,0.8850474008279234
10.217821782178218,0.9291698005507938
10.237623762376238,0.9730524466957333
10.257425742574258,1.0165658473314219
10.277227722772277,1.0595956270164937
10.297029702970297,1.1020397106577056
10.316831683168317,1.143806138404465
10.336633663366337,1.1848113633182977
10.356435643564357,1.224978919241665
10.376237623762377,1.2642383735827794
10.396039603960396,1.3025245003673622
10.415841584158416,1.3397766244249323
10.435643564356436,1.3759380992279404
10.455445544554454,1.4109558896583014
10.475247524752476,1.4447802375741914
10.495049504950495,1.4773643930404483
10.514851485148514,1.5086643978771699
10.534653465346535,1.5386389110754959
10.554455445544555,1.5672490678507305
10.574257425742573,1.594458365816489
10.594059405940595,1.6202325730931828
10.613861386138614,1.6445396542010149
10.633663366336632,1.6673497104011081
10.653465346534654,1.6886349317900973
