Time (s),Filtered Signal
0.0,-0.01867811744012329
0.03337000366703337,-0.314135747928316
0.06674000733406674,-0.595065146421245
0.1001100110011001,-0.838104038195084
0.13348001466813347,-1.0077646989433946
0.16685001833516683,-1.064065810857028
0.2002200220022002,-0.978384519623572
0.2335900256692336,-0.7503696412699038
0.26696002933626695,-0.4167975413277662
0.3003300330033003,-0.045979797859502805
0.33370003667033366,0.2820895215792026
0.36707004033736707,0.5024078423151763
0.4004400440044004,0.587026931041448
0.4338100476714338,0.5527272764847159
0.4671800513384672,0.4511426582476271
0.5005500550055005,0.3462709413036848
0.5339200586725339,0.2896314633534561
0.5672900623395672,0.3033404711337675
0.6006600660066006,0.3766124829074662
0.634030069673634,0.4746914262144573
0.6674000733406673,0.5544663164667651
0.7007700770077008,0.5799171779575325
0.7341400806747341,0.5325605445555623
0.7675100843417675,0.41517472656610077
0.8008800880088008,0.24938369996958637
0.8342500916758342,0.06861521253401458
0.8676200953428675,-0.09177112884148378
0.9009900990099009,-0.20491230750083464
0.9343601026769344,-0.2604874947710869
0.9677301063439677,-0.267452775174811
1.001100110011001,-0.25000418358687965
1.0344701136780343,-0.2379881463491402
1.0678401173450678,-0.25554722799355856
1.1012101210121013,-0.31270432930127234
1.1345801246791345,-0.4031714261580772
1.167950128346168,-0.5086086060617361
1.2013201320132012,-0.6065210312403801
1.2346901356802347,-0.6776170550246057
1.268060139347268,-0.7094372365664644
1.3014301430143014,-0.6957243800064903
1.3348001466813346,-0.6337010634769079
1.368170150348368,-0.5224995786621509
1.4015401540154016,-0.3647636163035745
1.4349101576824348,-0.1706589969689479
1.4682801613494683,0.03898989722553199
1.5016501650165015,0.2341588285420162
1.535020168683535,0.38313268715242427
1.5683901723505682,0.46371067744317196
1.6017601760176017,0.4727745564802196
1.6351301796846351,0.42882762327091023
1.6685001833516684,0.36532448061010997
1.7018701870187019,0.31736791079367876
1.735240190685735,0.307899158260225
1.7686101943527686,0.3397956110237839
1.8019801980198018,0.39718824131407815
1.8353502016868353,0.45463382365897076
1.8687202053538687,0.4891314142184035
1.902090209020902,0.4892046357162236
1.9354602126879354,0.45746321698350617
1.9688302163549687,0.40665963871528654
2.002200220022002,0.35218452342086426
2.0355702236890356,0.30485545925168894
2.0689402273560686,0.2667806925931044
2.102310231023102,0.2311082858270213
2.1356802346901356,0.18485220947714273
2.169050238357169,0.11336220743288788
2.2024202420242025,0.0052126738096691105
2.2357902456912355,-0.14329999371953264
2.269160249358269,-0.3247855586394791
2.3025302530253025,-0.5195518165897628
2.335900256692336,-0.6977893566219784
2.369270260359369,-0.8258269768426687
2.4026402640264024,-0.8756581596533894
2.436010267693436,-0.8350836389206501
2.4693802713604693,-0.7145822347586618
2.502750275027503,-0.5472601483605983
2.536120278694536,-0.38018993884295943
2.5694902823615693,-0.25870088836943245
2.6028602860286028,-0.2086784493995957
2.636230289695636,-0.2241464415002749
2.6696002933626692,-0.2667613483877423
2.7029702970297027,-0.2796355928627524
2.736340300696736,-0.21129623234931308
2.7697103043637696,-0.039726843504479394
2.803080308030803,0.21500871913403957
2.836450311697836,0.4963973430343718
2.8698203153648696,0.7333503093194943
2.903190319031903,0.8681266500734337
2.9365603226989365,0.8773859370219221
2.96993032636597,0.7776704414765775
3.003300330033003,0.6149624141916776
3.0366703337000365,0.4452929537452036
3.07004033736707,0.3157557927564558
3.1034103410341034,0.25240016715233415
3.1367803447011364,0.25636657336717816
3.17015034836817,0.3060616509455261
3.2035203520352034,0.3628999034854567
3.236890355702237,0.37996867873486156
3.2702603593692703,0.31412045807218314
3.3036303630363033,0.14058537452394232
3.3370003667033368,-0.1340918957146361
3.3703703703703702,-0.4673119911455047
3.4037403740374037,-0.7889604483773731
3.4371103777044367,-1.0227425452477614
3.47048038137147,-1.1129092239333123
3.5038503850385037,-1.044954184428364
3.537220388705537,-0.8505952110336441
3.5705903923725706,-0.5942804499384846
3.6039603960396036,-0.3469710480246509
3.637330399706637,-0.15867297495719476
3.6707004033736705,-0.04149252894410176
3.704070407040704,0.029923689679750308
3.7374404107077375,0.1013896614565883
3.7708104143747705,0.21361412964887944
3.804180418041804,0.3798107144841152
3.8375504217088374,0.5769191418922375
3.870920425375871,0.7547753301886614
3.904290429042904,0.8591148883362466
3.9376604327099374,0.8573926701529103
3.971030436376971,0.7546436162965797
4.004400440044004,0.5912373601552011
4.037770443711038,0.4233234394124065
4.071140447378071,0.29554898024042275
4.104510451045105,0.21970659411052848
4.137880454712137,0.1701581154634161
4.171250458379171,0.09854124191260963
4.204620462046204,-0.03941196519998409
4.237990465713238,-0.25826904956428065
4.271360469380271,-0.5313516310195951
4.304730473047305,-0.7991915317228051
4.338100476714338,-0.9940296863262879
4.3714704803813715,-1.0685006038441422
4.404840484048405,-1.014756089850604
4.438210487715438,-0.8652940137598588
4.471580491382471,-0.6759417539846562
4.5049504950495045,-0.4999577740959957
4.538320498716538,-0.36581289311706516
4.571690502383571,-0.26851896415375803
4.605060506050605,-0.17733529454820038
4.638430509717638,-0.05509622953941604
4.671800513384672,0.12031204760249321
4.705170517051705,0.3420815179572418
4.738540520718738,0.5742832784307625
4.771910524385771,0.7654833067023056
4.805280528052805,0.8704009757859739
4.838650531719838,0.8701070770588218
4.872020535386872,0.7813640409648746
4.905390539053905,0.6501000692236067
4.938760542720939,0.5312659032700635
4.972130546387972,0.46423391130378633
5.005500550055006,0.4557344847103205
5.038870553722038,0.47897593840180464
5.072240557389072,0.4892848454738119
5.105610561056105,0.4477513771959289
5.138980564723139,0.3401802004832986
5.172350568390172,0.18176744564258787
5.2057205720572055,0.0064440391415876794
5.239090575724239,-0.1515996891093339
5.272460579391272,-0.273276450684374
5.305830583058306,-0.3592594046867637
5.3392005867253385,-0.4235867526832013
5.372570590392372,-0.4820335071889554
5.405940594059405,-0.5426271696095465
5.439310597726439,-0.6026610674519047
5.472680601393472,-0.651874953468336
5.506050605060506,-0.678390738308779
5.539420608727539,-0.6738735347558685
5.572790612394573,-0.6362712495073166
5.606160616061606,-0.5703726803702543
5.63953061972864,-0.4869830783422277
5.672900623395672,-0.40089599416750815
5.706270627062706,-0.32721689056097086
5.739640630729739,-0.2760207158963105
5.773010634396773,-0.24680831151695784
5.806380638063806,-0.22565395965869908
5.83975064173084,-0.18788045622249713
5.873120645397873,-0.1069310994490939
5.9064906490649065,0.033339989929942124
5.93986065273194,0.22848803608316604
5.9732306563989725,0.45102739033332295
6.006600660066006,0.6581535039932955
6.0399706637330395,0.8070259733184583
6.073340667400073,0.8708498107367669
6.106710671067106,0.8482609564939274
6.14008067473414,0.7618003404019873
6.173450678401173,0.6467357710319216
6.206820682068207,0.5360849661208827
6.24019068573524,0.4489919129119027
6.273560689402273,0.3872144153219675
6.306930693069306,0.3399940191356111
6.34030069673634,0.29347356456860185
6.373670700403373,0.23908517632141807
6.407040704070407,0.17658392534193326
6.44041070773744,0.11080263494815429
6.473780711404474,0.04490448648786083
6.507150715071507,-0.02506798600251224
6.540520718738541,-0.11033601826573644
6.573890722405573,-0.22341146602516038
6.607260726072607,-0.36900685356573504
6.64063072973964,-0.5370000209186055
6.6740007334066735,-0.7018474650138676
6.707370737073707,-0.8295582558556455
6.7407407407407405,-0.8894499406573856
6.774110744407774,-0.8655297321444391
6.807480748074807,-0.7625709545940663
6.840850751741841,-0.6044108575619307
6.8742207554088735,-0.4253269532108352
6.907590759075907,-0.2580832537225875
6.94096076274294,-0.12339979371741477
6.974330766409974,-0.02488116997902622
7.007700770077007,0.04885737736090794
7.041070773744041,0.1161687069051666
7.074440777411074,0.19231235162594448
7.107810781078108,0.2820502044607124
7.141180784745141,0.378156588697361
7.174550788412174,0.4659505067939783
7.207920792079207,0.5307256882384781
7.241290795746241,0.5635230480001987
7.274660799413274,0.5620505459070074
7.308030803080308,0.527006331665876
7.341400806747341,0.45742634003049815
7.3747708104143745,0.34960103862809216
7.408140814081408,0.2016736647428323
7.4415108177484415,0.021594540020858345
7.474880821415475,-0.16738045647147043
7.5082508250825075,-0.32928526538751773
7.541620828749541,-0.42740142062384956
7.5749908324165744,-0.4406203163231716
7.608360836083608,-0.37518427739384164
7.641730839750641,-0.2639978814922872
7.675100843417675,-0.15213227245187724
7.708470847084708,-0.07521200686380562
7.741840850751742,-0.04212740142295784
7.775210854418775,-0.031829628891495924
7.808580858085808,-0.006564673560427598
7.841950861752841,0.0650960001880781
7.875320865419875,0.18763227059199677
7.908690869086908,0.33160445686795353
7.942060872753942,0.44459431289014917
7.975430876420975,0.4750306952617875
8.008800880088009,0.39719162136983843
8.042170883755041,0.22505940049928783
8.075540887422076,0.008349460146115196
8.108910891089108,-0.18716425509262927
8.142280894756142,-0.3055651781154655
8.175650898423175,-0.3212068626807039
8.20902090209021,-0.24537191831500008
8.242390905757242,-0.11791134924070147
8.275760909424275,0.010701595546386793
8.309130913091309,0.09820455942188615
8.342500916758341,0.1227715532297998
8.375870920425376,0.08551184303139174
8.409240924092408,0.004995789250577082
8.442610927759443,-0.09161597054942223
8.475980931426475,-0.17657471653843917
8.50935093509351,-0.22696643508152373
8.542720938760542,-0.22842491332158385
8.576090942427575,-0.17860719507273895
8.60946094609461,-0.09021743002738397
8.642830949761642,0.008921437559618073
8.676200953428676,0.08170978033905274
8.709570957095709,0.0939452454181063
8.742940960762743,0.02893551199875476
8.776310964429776,-0.10242838520662932
8.80968096809681,-0.2623351546621197
8.843050971763843,-0.3987555377887927
8.876420975430875,-0.4650789181067504
8.90979097909791,-0.4375501538441392
8.943160982764942,-0.32235079587274995
8.976530986431976,-0.14971407523961056
9.009900990099009,0.04072216124054351
9.043270993766043,0.21507630706319955
9.076640997433076,0.35357823497373353
9.11001100110011,0.44975225457558254
9.143381004767143,0.5037098915550661
9.176751008434175,0.5157059951350099
9.21012101210121,0.48473994389172276
9.243491015768242,0.41264083846639427
9.276861019435277,0.3097710405735046
9.31023102310231,0.19700307017269506
9.343601026769344,0.10085817750179615
9.376971030436376,0.043189917429091854
9.41034103410341,0.030727124463486938
9.443711037770443,0.05067800169532106
9.477081041437476,0.07575949385232175
9.51045104510451,0.07695532525951213
9.543821048771543,0.03785208419760491
9.577191052438577,-0.036877911847883776
9.61056105610561,-0.12353233891065118
9.643931059772644,-0.1912573945819299
9.677301063439677,-0.21785045357490737
9.710671067106711,-0.20142555870736056
9.744041070773743,-0.16191747048723784
9.777411074440776,-0.13154619288201616
9.81078107810781,-0.13888595290342567
9.844151081774843,-0.19423605681148795
9.877521085441877,-0.2831612513092013
9.91089108910891,-0.3710350210224348
9.944261092775944,-0.416403112653863
9.977631096442977,-0.3874076347731143
10.011001100110011,-0.27473266338532476
10.044371103777044,-0.09639486787467529
10.077741107444076,0.10700659240370182
10.11111111111111,0.28466531343864243
10.144481114778143,0.39134040094496236
10.177851118445178,0.4014345610784874
10.21122112211221,0.31694743863976294
10.244591125779245,0.166854713992871
10.277961129446277,-0.001794368822983074
10.311331133113312,-0.13814385006444616
10.344701136780344,-0.20263794876675198
10.378071140447377,-0.17836072765837116
10.411441144114411,-0.07535429658663101
10.444811147781444,0.07311222203749737
10.478181151448478,0.22099476867749424
10.51155115511551,0.323482697468864
10.544921158782545,0.3504753334127627
10.578291162449577,0.29555461126812715
10.611661166116612,0.17759273567718012
10.645031169783644,0.034110924603774656
10.678401173450677,-0.09192379341615892
10.711771177117711,-0.16761365948258278
10.745141180784744,-0.18216308809123738
10.778511184451778,-0.15020928675583328
10.81188118811881,-0.10436395638981504
10.845251191785845,-0.07965692192143019
10.878621195452878,-0.09676524229049611
10.911991199119912,-0.1520646158836658
10.945361202786945,-0.21956250923319848
10.978731206453979,-0.26390245204665524
11.012101210121012,-0.2579354325767875
11.045471213788044,-0.195974308558851
11.078841217455079,-0.09611496915613563
11.112211221122111,0.009298548448667596
11.145581224789145,0.08989137456755582
11.178951228456178,0.1316333445025929
11.212321232123212,0.14192807224896456
11.245691235790245,0.14293399584764083
11.27906123945728,0.15698307039651646
11.312431243124312,0.19238926927604993
11.345801246791344,0.2379375287334354
11.379171250458379,0.26962468446029747
11.412541254125411,0.26616327316037386
11.445911257792446,0.22433359337711786
11.479281261459478,0.16479183817875284
11.512651265126513,0.12392810492152151
11.546021268793545,0.13507750985080888
11.57939127246058,0.20848023579723776
11.612761276127612,0.32054063406878114
11.646131279794645,0.41864862911476924
11.67950128346168,0.44041832224916977
11.712871287128712,0.3393581277331446
11.746241290795746,0.10590271950470825
11.779611294462779,-0.2252849591596729
11.812981298129813,-0.584827630476671
11.846351301796846,-0.890855393942123
11.87972130546388,-1.0747703225866323
11.913091309130913,-1.1006890076074443
11.946461312797945,-0.9723595448468698
11.97983131646498,-0.7272068424225896
12.013201320132012,-0.4221378262176491
12.046571323799046,-0.11759575678730792
12.079941327466079,0.13516122906818628
12.113311331133113,0.30183025317405715
12.146681334800146,0.3688029953471253
12.18005133846718,0.34432007648552027
12.213421342134213,0.2571025054959798
12.246791345801245,0.15094735716042487
12.28016134946828,0.0739543074370505
12.313531353135312,0.06362238370525655
12.346901356802347,0.1326420320338723
12.38027136046938,0.2621426592442844
12.413641364136414,0.40732574385112086
12.447011367803446,0.5149614383329804
12.48038137147048,0.5458520512420232
12.513751375137513,0.49184359461442545
12.547121378804546,0.37878101752131993
12.58049138247158,0.25345675669993817
12.613861386138613,0.16072169014909063
12.647231389805647,0.12211729249160788
12.68060139347268,0.1267272860606622
12.713971397139714,0.13867099296838714
12.747341400806746,0.11706989306211418
12.78071140447378,0.03798151253125174
12.814081408140813,-0.09295068680105827
12.847451411807846,-0.2432335548079064
12.88082141547488,-0.3695721166907263
12.914191419141913,-0.43839122266164876
12.947561422808947,-0.44020543313078214
12.98093142647598,-0.3911276150630421
13.014301430143014,-0.3219853184899148
13.047671433810047,-0.2618490520799535
13.081041437477081,-0.22492804499455718
13.114411441144114,-0.20702277897245147
13.147781444811146,-0.19206543423832914
13.18115144847818,-0.16405231137427015
13.214521452145213,-0.11749867202171681
13.247891455812248,-0.06106985904939477
13.28126145947928,-0.012964806491407594
13.314631463146315,0.009246748867456456
13.348001466813347,-0.0008314612845058036
13.381371470480381,-0.0326539394949732
13.414741474147414,-0.0607166639961025
13.448111477814447,-0.053942359407459194
13.481481481481481,0.011047365331777456
13.514851485148514,0.1381172308525209
13.548221488815548,0.3063738172378143
13.58159149248258,0.4743013717350666
13.614961496149615,0.5924956061798917
13.648331499816647,0.6206838837556934
13.681701503483682,0.5426787205575875
13.715071507150714,0.37329850045818025
13.748441510817747,0.15415952330691404
13.781811514484781,-0.06036909650577644
13.815181518151814,-0.22162353584641295
13.848551521818848,-0.30214137927521034
13.88192152548588,-0.30216244701114114
13.915291529152915,-0.24524423319161048
13.948661532819948,-0.16600689419016226
13.982031536486982,-0.09617543716521977
14.015401540154015,-0.054973107281838025
14.048771543821047,-0.04689867940272485
14.082141547488082,-0.0659081878680521
14.115511551155114,-0.10224768980857032
14.148881554822148,-0.14786834278813718
14.182251558489181,-0.19815208784003918
14.215621562156215,-0.250154960126678
14.248991565823248,-0.2992999397769543
14.282361569490282,-0.33682957801295205
14.315731573157315,-0.34966122310117276
14.349101576824348,-0.3231819028952677
14.382471580491382,-0.2463527733781375
14.415841584158414,-0.11741439488624499
14.449211587825449,0.052238974248760256
14.482581591492481,0.23832672247057754
14.515951595159516,0.4090968394573646
14.549321598826548,0.5346886079092685
14.582691602493583,0.5970939790198498
14.616061606160615,0.5964400569411088
14.649431609827648,0.5503252844952585
14.682801613494682,0.4857260828421913
14.716171617161715,0.4264663581777295
14.749541620828749,0.3817856389598822
14.782911624495782,0.3416933291464877
14.816281628162816,0.28206906739840987
14.849651631829849,0.17784131920901675
14.883021635496883,0.018253419992345227
14.916391639163916,-0.18341693916732005
14.94976164283095,-0.3911208673396157
14.983131646497982,-0.5585631222907397
15.016501650165015,-0.6477115235625008
15.04987165383205,-0.6448947162509636
15.083241657499082,-0.5669759406590815
15.116611661166116,-0.454515675827412
15.149981664833149,-0.3546756306484526
15.183351668500183,-0.30120267650307114
15.216721672167216,-0.30018350211822215
15.25009167583425,-0.3278710115179539
15.283461679501283,-0.3418104653120391
15.316831683168315,-0.30083146787807774
15.35020168683535,-0.185495210990502
15.383571690502382,-0.009931362812020563
15.416941694169417,0.18088398387265264
15.45031169783645,0.3284240674676334
15.483681701503484,0.38595042258270273
15.517051705170516,0.3410198710392763
15.55042170883755,0.2244396743629259
15.583791712504583,0.10017201742627353
15.617161716171616,0.0391475009599342
15.65053171983865,0.08788683896679916
15.683901723505683,0.24620273631364098
15.717271727172717,0.4648620375648066
15.75064173083975,0.6650619204466522
15.784011734506784,0.7711591050140109
15.817381738173816,0.7415988510895147
15.85075174184085,0.5839160239020076
15.884121745507883,0.3476496345358882
15.917491749174916,0.099857564601076
15.95086175284195,-0.1040425235877293
15.984231756508983,-0.24016409160563373
16.017601760176017,-0.3186255218475052
16.05097176384305,-0.36973813043152853
16.084341767510082,-0.42278520358643296
16.117711771177117,-0.48877476199460096
16.15108177484415,-0.555190385380789
16.184451778511182,-0.5939074338956752
16.217821782178216,-0.5768600532899869
16.25119178584525,-0.4908962348812086
16.284561789512285,-0.3446597037103108
16.317931793179316,-0.1650754259441276
16.35130179684635,0.013629385054839294
16.384671800513384,0.16222420394436293
16.41804180418042,0.26426802502912017
16.45141180784745,0.3168008282829365
16.484781811514484,0.3253738257254145
16.51815181518152,0.29745791039585856
16.55152181884855,0.23832818907141545
16.584891822515583,0.15144438062330443
16.618261826182618,0.04249221226006795
16.651631829849652,-0.07592420231747891
16.685001833516683,-0.18249379398859436
16.718371837183717,-0.25057304126030633
16.75174184085075,-0.2563906199672396
16.785111844517782,-0.1890019059125721
16.818481848184817,-0.05736377577300345
16.85185185185185,0.10948420239023232
16.885221855518886,0.2703636920675314
16.918591859185916,0.385464743193291
16.95196186285295,0.4299242149036051
16.985331866519985,0.40155475313558237
17.01870187018702,0.31930926772103346
17.05207187385405,0.2133665810861157
17.085441877521085,0.1116458665819291
17.11881188118812,0.02907112329034244
17.15218188485515,-0.03573868357088152
17.185551888522184,-0.09553763681829086
17.21892189218922,-0.16445217167326992
17.252291895856253,-0.24819077881464258
17.285661899523284,-0.3391269159053047
