Time (s),Filtered Signal
0.0,0.04143495943084028
0.03337004405286344,0.15514432263418704
0.06674008810572687,0.21375236747554857
0.10011013215859031,0.1830235347695836
0.13348017621145375,0.060881661465632696
0.16685022026431717,-0.12302638823852804
0.20022026431718062,-0.31935783330166156
0.23359030837004408,-0.47708557042978633
0.2669603524229075,-0.559971600666118
0.3003303964757709,-0.5555082322169413
0.33370044052863435,-0.47429372692525923
0.3670704845814978,-0.3420974487557098
0.40044052863436125,-0.18938825262568118
0.43381057268722467,-0.042850367190232934
0.46718061674008815,0.07898683217710151
0.5005506607929515,0.16661588808746977
0.533920704845815,0.21882922936223004
0.5672907488986785,0.24168249586009383
0.6006607929515418,0.24687290428437636
0.6340308370044053,0.24846802751183744
0.6674008810572687,0.2577548321967885
0.7007709251101322,0.27782777340731724
0.7341409691629956,0.3008043852125593
0.767511013215859,0.30995188929542977
0.8008810572687225,0.2865701151396529
0.834251101321586,0.21863948434953412
0.8676211453744493,0.1068983161697863
0.9009911894273128,-0.034791882326939014
0.9343612334801763,-0.1847879621648182
0.9677312775330397,-0.321536371289031
1.001101321585903,-0.4296185064098778
1.0344713656387665,-0.5011671323442073
1.06784140969163,-0.533064510933374
1.1012114537444935,-0.5230450635375353
1.134581497797357,-0.46824383388508345
1.1679515418502202,-0.36764034874365414
1.2013215859030837,-0.22673794835673547
1.2346916299559472,-0.06086186100983672
1.2680616740088106,0.10599430550577175
1.3014317180616741,0.24718664390981482
1.3348017621145374,0.341761150097073
1.3681718061674009,0.3812297003964336
1.4015418502202643,0.3718515646585592
1.4349118942731278,0.3318730817966969
1.4682819383259913,0.28535507308353125
1.5016519823788548,0.2550306217791109
1.535022026431718,0.25610775172891725
1.5683920704845815,0.29198703435351636
1.601762114537445,0.3524071961897811
1.6351321585903085,0.4146783806117822
1.668502202643172,0.4487273205381535
1.7018722466960352,0.42586745240723084
1.7352422907488987,0.3294235207315333
1.7686123348017622,0.16346222066933822
1.8019823788546256,-0.0447111374360597
1.8353524229074891,-0.2509660904299192
1.8687224669603526,-0.40866165348622013
1.9020925110132159,-0.48574725486270115
1.9354625550660793,-0.47729007601623696
1.9688325991189428,-0.4073414302578526
2.002202643171806,-0.3186748273823512
2.0355726872246698,-0.254694021461004
2.068942731277533,-0.24163582153115637
2.1023127753303967,-0.2789721765178863
2.13568281938326,-0.34181895057617584
2.1690528634361232,-0.39346677086194115
2.202422907488987,-0.40180425092504857
2.23579295154185,-0.3523304331493464
2.269162995594714,-0.25271585548006464
2.302533039647577,-0.12798364225594752
2.3359030837004404,-0.009312460752238292
2.369273127753304,0.07836492857720868
2.4026431718061674,0.12496367091340492
2.436013215859031,0.13713379197498632
2.4693832599118943,0.13345008910471207
2.5027533039647576,0.13548773679405143
2.5361233480176213,0.1586662665607247
2.5694933920704845,0.2064594385393568
2.6028634361233483,0.26996667932647805
2.6362334801762115,0.3326054228095519
2.6696035242290748,0.3776551212110757
2.7029735682819385,0.3953084432067785
2.7363436123348017,0.38618141061221845
2.7697136563876654,0.35982086598962426
2.8030837004405287,0.32901013132443574
2.8364537444933924,0.30264873265391695
2.8698237885462556,0.28074547711708026
2.903193832599119,0.2541682967761463
2.9365638766519826,0.20953950889187972
2.969933920704846,0.13704676010557604
3.0033039647577096,0.037243766685888496
3.036674008810573,-0.07689954203979761
3.070044052863436,-0.18428190481477094
3.1034140969162998,-0.26468648622154595
3.136784140969163,-0.3082833072686483
3.1701541850220267,-0.320727337763094
3.20352422907489,-0.32082844860658044
3.2368942731277532,-0.3313809023669185
3.270264317180617,-0.3673279679651931
3.30363436123348,-0.42709669734356553
3.337004405286344,-0.49165159874656755
3.370374449339207,-0.5320915809437621
3.4037444933920704,-0.5223212896984659
3.437114537444934,-0.4507326370174404
3.4704845814977974,-0.32533443138332735
3.503854625550661,-0.17008655401863
3.5372246696035243,-0.014531543414692582
3.5705947136563876,0.11809745650523773
3.6039647577092513,0.2187494763053857
3.6373348017621145,0.2931859846717172
3.6707048458149782,0.35578264058887726
3.7040748898678415,0.4200181453570377
3.737444933920705,0.49034206902608707
3.7708149779735685,0.5590299201868504
3.8041850220264317,0.6090387800230553
3.8375550660792954,0.6211250944968133
3.8709251101321587,0.5818283557293478
3.9042951541850224,0.488939965858333
3.9376651982378856,0.35251878058746494
3.971035242290749,0.19156447549779537
4.004405286343612,0.028170164474099302
4.037775330396476,-0.11832432609355813
4.0711453744493395,-0.23512688079830177
4.104515418502203,-0.31694996480341137
4.137885462555066,-0.3647039334030257
4.171255506607929,-0.38327846981951474
4.2046255506607935,-0.37966379498568076
4.237995594713657,-0.36190311319516155
4.27136563876652,-0.33851234954558823
4.304735682819383,-0.3176032520063762
4.3381057268722465,-0.30521663222096923
4.371475770925111,-0.3031063963953748
4.404845814977974,-0.3069453193424142
4.438215859030837,-0.306196765139319
4.4715859030837,-0.2864904734517383
4.504955947136564,-0.23435121555652252
4.538325991189428,-0.1429365636150142
4.571696035242291,-0.01658570037345595
4.605066079295154,0.1280258773542734
4.638436123348018,0.2652677661332661
4.671806167400881,0.36777324724849303
4.705176211453745,0.4149951319978237
4.738546255506608,0.3998123755914702
4.7719162995594715,0.330647298774965
4.805286343612335,0.22848322557704964
4.838656387665198,0.12024524454097338
4.872026431718062,0.031172275584579485
4.905396475770925,-0.021331254628546
4.938766519823789,-0.03092609381671961
4.972136563876652,-0.002410153162436903
5.005506607929515,0.050815035726286276
5.038876651982379,0.110995742528292
5.072246696035243,0.1609682988237667
5.105616740088106,0.1886223591310912
5.138986784140969,0.18966867341966942
5.172356828193832,0.16782152797067984
5.2057268722466965,0.13232174909598285
5.23909691629956,0.09376332854410067
5.272466960352423,0.05991156741767199
5.305837004405286,0.03317882149328533
5.3392070484581495,0.010633150425864362
5.372577092511014,-0.013731230630236457
5.405947136563877,-0.045651147796067916
5.43931718061674,-0.08765904138932012
5.4726872246696034,-0.1376797218174318
5.506057268722468,-0.18957548967879675
5.539427312775331,-0.23533875553231523
5.572797356828194,-0.26809943367354616
5.606167400881057,-0.2848126838760856
5.639537444933921,-0.28746617605431823
5.672907488986785,-0.28202059399929275
5.706277533039648,-0.27515313177683276
5.739647577092511,-0.27001327476967646
5.7730176211453745,-0.2630691951971091
5.806387665198238,-0.24406967302364013
5.839757709251102,-0.1998997483967632
5.873127753303965,-0.12111506022777073
5.9064977973568284,-0.008237777791611636
5.939867841409692,0.12546314858596258
5.973237885462555,0.2566077084477208
6.006607929515419,0.3591168541413745
6.039977973568282,0.4133452443304983
6.073348017621146,0.4128940964344435
6.106718061674009,0.3660964124128805
6.140088105726872,0.29172318550085746
6.173458149779736,0.21120181615681966
6.2068281938325995,0.1411132491807441
6.240198237885463,0.08919155761909177
6.273568281938326,0.05488298923724862
6.306938325991189,0.03304570264375905
6.3403083700440535,0.0180250089136345
6.373678414096917,0.0057950975228571455
6.40704845814978,-0.006368883478850578
6.440418502202643,-0.021408602586198776
6.4737885462555065,-0.043240762351091526
6.507158590308371,-0.07561960532697304
6.540528634361234,-0.11958749205335895
6.573898678414097,-0.17125066176995213
6.60726872246696,-0.22164291698022695
6.640638766519824,-0.25923958983207795
6.674008810572688,-0.27406765754532514
6.707378854625551,-0.2613675903681269
6.740748898678414,-0.2229983607804964
6.774118942731278,-0.16605690974936824
6.807488986784141,-0.09970323390521613
6.840859030837005,-0.0320282266683596
6.874229074889868,0.0315020735142558
6.9075991189427315,0.08770160868470485
6.940969162995595,0.13439155407488346
6.974339207048458,0.16967011550561156
7.007709251101322,0.19253066151660914
7.041079295154185,0.20426921363835737
7.074449339207049,0.20909779299911035
7.107819383259912,0.2126036891388166
7.141189427312775,0.21822031808686562
7.174559471365639,0.22372182417113742
7.207929515418503,0.22049573528706762
7.241299559471366,0.19714886188441716
7.274669603524229,0.14635113443396974
7.308039647577092,0.07136222297877531
7.3414096916299565,-0.01185451611803402
7.37477973568282,-0.07905601906088239
7.408149779735683,-0.10735244962417982
7.441519823788546,-0.08579127675759413
7.47488986784141,-0.02192371676539659
7.508259911894274,0.05878297393855369
7.541629955947137,0.12058610826869397
7.575,0.12916955195952218
7.608370044052863,0.06313572545690273
7.641740088105728,-0.07845690685979988
7.675110132158591,-0.2745796729828162
7.708480176211454,-0.4868684674416142
7.741850220264317,-0.6689381360407499
7.775220264317181,-0.7779085427491798
7.808590308370045,-0.7852909185961706
7.841960352422908,-0.6845472991718236
7.875330396475771,-0.4932772242600979
7.9087004405286345,-0.24908590408450634
7.942070484581498,0.00025494636174325653
7.975440528634362,0.20991656957309104
8.008810572687224,0.3504464044141383
8.042180616740088,0.4152413727272343
8.075550660792953,0.4201857587295732
8.108920704845815,0.3954512263037697
8.142290748898679,0.37261681271239533
8.175660792951541,0.37223676038254366
8.209030837004406,0.39679761068388386
8.24240088105727,0.4317045597059097
8.275770925110132,0.45352370785896157
8.309140969162996,0.44166308078280125
8.342511013215859,0.3883022157820814
8.375881057268723,0.30224910163685653
8.409251101321587,0.20513339685196472
8.44262114537445,0.12176575499096298
8.475991189427313,0.06910978643810474
8.509361233480176,0.048928898413159554
8.54273127753304,0.04745734849706402
8.576101321585904,0.042171975152731966
8.609471365638766,0.012451104194490649
8.64284140969163,-0.050840191025203534
8.676211453744493,-0.14120639187949358
8.709581497797357,-0.23959203537527424
8.742951541850221,-0.3231076667341719
8.776321585903084,-0.37533243452293336
8.809691629955948,-0.39349665653363597
8.84306167400881,-0.38930914532703714
8.876431718061674,-0.38301058862198367
8.909801762114538,-0.3931787503279106
8.9431718061674,-0.42668849701170375
8.976541850220265,-0.4733151723360332
9.009911894273127,-0.5077287135255992
9.043281938325991,-0.4986873988711934
9.076651982378856,-0.42217835237757023
9.110022026431718,-0.27325466202815585
9.143392070484582,-0.07130669604866131
9.176762114537445,0.14424617685338406
9.210132158590309,0.3269796574734831
9.243502202643173,0.4403390687596329
9.276872246696035,0.4712619185044772
9.3102422907489,0.43435152118034787
9.343612334801762,0.3644249135709164
9.376982378854626,0.3006757913622921
9.41035242290749,0.2698106876125248
9.443722466960352,0.2760871555027972
9.477092511013216,0.302733983278717
9.510462555066079,0.32345866422293984
9.543832599118943,0.3176686184038126
9.577202643171807,0.28135554025170895
9.61057268722467,0.22817730930576416
9.643942731277534,0.18064222263478527
9.677312775330396,0.15650267797942208
9.71068281938326,0.15775986216714002
9.744052863436124,0.16803196015582203
9.777422907488987,0.15955605842480805
9.81079295154185,0.10626033442434815
9.844162995594713,-0.003420558951001221
9.877533039647577,-0.159873286451774
9.910903083700441,-0.33456205265463923
9.944273127753304,-0.4899503545017181
9.977643171806168,-0.592722542730929
10.01101321585903,-0.624961640460312
10.044383259911895,-0.5891739416713132
10.077753303964759,-0.5056932528779946
10.111123348017621,-0.4038896370334332
10.144493392070485,-0.31074138313836697
10.177863436123348,-0.24110554114539057
10.211233480176212,-0.19328989644631672
10.244603524229076,-0.15154633522969055
10.277973568281938,-0.09449498156167478
10.311343612334802,-0.006129040196778764
10.344713656387665,0.11515450257683242
10.378083700440529,0.2535024344356183
10.411453744493393,0.38024253301669964
10.444823788546255,0.46465853954850356
10.47819383259912,0.4864765896930895
10.511563876651982,0.44456667610426265
10.544933920704846,0.3578330472900801
10.57830396475771,0.25778408805419073
10.611674008810573,0.17617219808321627
10.645044052863437,0.13335501506114997
10.678414096916299,0.13243437661766272
10.711784140969163,0.16113593579883376
10.745154185022027,0.19953919389933827
10.77852422907489,0.22922677238570008
10.811894273127754,0.23939771787622752
10.845264317180618,0.22772417913536455
10.87863436123348,0.19679516638377587
10.912004405286345,0.14918119681508793
10.945374449339207,0.08441896033399567
10.978744493392071,-0.0003624881332243883
11.012114537444935,-0.10681959668074313
11.045484581497798,-0.23121090313299833
11.078854625550662,-0.3623816090809572
11.112224669603524,-0.48341873589597584
11.145594713656388,-0.5764961324761019
11.178964757709252,-0.6287499775216732
11.212334801762115,-0.636459081700498
11.245704845814979,-0.605570401360601
11.279074889867841,-0.5483061988732167
11.312444933920705,-0.4774071394028712
11.34581497797357,-0.40066432359125836
11.379185022026432,-0.31827879498951706
11.412555066079296,-0.2243182720310266
11.445925110132158,-0.11166588851311131
11.479295154185023,0.02183908952045569
11.512665198237887,0.16913794947668973
11.546035242290749,0.3140258285759751
11.579405286343613,0.4361124235024602
11.612775330396476,0.5187675998039654
11.64614537444934,0.556368428395282
11.679515418502204,0.5571190921167737
11.712885462555066,0.5396269870892044
11.74625550660793,0.5244242990276268
11.779625550660793,0.5242086777252699
11.812995594713657,0.537402767436122
11.846365638766521,0.54824753903777
11.879735682819383,0.5336775919092159
11.913105726872248,0.47405048031754693
11.94647577092511,0.3628919093368742
11.979845814977974,0.21110228813220355
12.013215859030838,0.043505336356097254
12.0465859030837,-0.1108449860579865
12.079955947136565,-0.2301991961910473
12.113325991189427,-0.30815328674501574
12.146696035242291,-0.35452307308389386
12.180066079295155,-0.38886005342311825
12.213436123348018,-0.4299469705417428
12.246806167400882,-0.4863772698809237
12.280176211453744,-0.5524860788627406
12.313546255506608,-0.6110505028204956
12.346916299559473,-0.6409341556966325
12.380286343612335,-0.625883890615039
12.413656387665199,-0.5607760802421423
12.447026431718061,-0.45332336081150687
12.480396475770926,-0.32138312266630115
12.51376651982379,-0.18742956863319815
12.547136563876652,-0.07209358818027088
12.580506607929516,0.011627816337740753
12.613876651982379,0.062183832841147875
12.647246696035243,0.09009535929722702
12.680616740088107,0.11454585065818197
12.71398678414097,0.15624696791812845
12.747356828193833,0.22869827123318837
12.780726872246696,0.331404292522253
12.81409691629956,0.44846792329107443
12.847466960352424,0.5538374318747766
12.880837004405286,0.6212602748839041
12.91420704845815,0.634472183184457
12.947577092511013,0.5928546891888166
12.980947136563877,0.5100103932499938
13.014317180616741,0.4062657098434552
13.047687224669604,0.2990950486760425
13.081057268722468,0.196307753725378
13.11442731277533,0.09518900208333252
13.147797356828194,-0.01240342764927685
13.181167400881058,-0.13201970162606214
13.21453744493392,-0.26006744961939976
13.247907488986785,-0.38220534119002775
13.281277533039647,-0.47754178809510245
13.314647577092511,-0.5265892940415904
13.348017621145376,-0.519175439068081
13.381387665198238,-0.4586819989399716
13.414757709251102,-0.3608190787382678
13.448127753303964,-0.2476371199730667
13.481497797356829,-0.13948785679257664
13.514867841409693,-0.048402246692542686
13.548237885462555,0.024324302236732574
13.58160792951542,0.0853506991743418
13.614977973568282,0.142603994406723
13.648348017621146,0.19788861172521596
13.68171806167401,0.24266644320235628
13.715088105726872,0.25978452731986357
13.748458149779736,0.23123785855342477
13.781828193832599,0.14884904901410578
13.815198237885463,0.02264568260157281
13.848568281938327,-0.11793668703275957
13.88193832599119,-0.23190955766372862
13.915308370044054,-0.2811696706715088
13.948678414096916,-0.24550450610014188
13.98204845814978,-0.1313725360646618
14.015418502202644,0.02975111617671033
14.048788546255507,0.19290291512540889
14.08215859030837,0.31590451892123744
14.115528634361233,0.3732232702571558
14.148898678414097,0.3617602188346036
14.182268722466961,0.2970414518969474
14.215638766519824,0.20283254534753903
14.249008810572688,0.0998648173176166
14.28237885462555,-0.0009837541501022534
14.315748898678414,-0.09860148810371061
14.349118942731279,-0.19596606702587382
14.382488986784141,-0.2929062719799104
14.415859030837005,-0.3817410049454149
14.449229074889868,-0.44831252455645815
14.482599118942732,-0.4777926558744935
14.515969162995596,-0.4619462484166869
14.549339207048458,-0.40366737501732197
14.582709251101322,-0.3160075029815276
14.616079295154185,-0.21589489534299333
14.649449339207049,-0.11577435627571188
14.682819383259913,-0.017831981976953157
14.716189427312775,0.0856102821782217
14.74955947136564,0.20516187785379333
14.782929515418502,0.34426104208942615
14.816299559471366,0.4914671587975258
14.84966960352423,0.6200119439993241
14.883039647577093,0.6960470136911358
14.916409691629957,0.6925439219590062
14.94977973568282,0.602557386335082
14.983149779735683,0.4452700573207274
15.016519823788547,0.26118346718733626
15.04988986784141,0.09772240730741803
15.083259911894274,-0.008886358704178336
15.116629955947138,-0.04753147238846693
15.15,-0.03557544652688659
15.183370044052865,-0.009940923272547206
15.216740088105727,-0.009827106826786313
15.250110132158591,-0.05887867129452311
15.283480176211455,-0.1549093944711806
15.316850220264318,-0.2717211361960532
15.350220264317182,-0.3718602172322679
15.383590308370044,-0.4240940875255863
15.416960352422908,-0.4174030319339294
15.450330396475772,-0.36522395520937645
15.483700440528635,-0.298469904937861
15.517070484581499,-0.2510846055677958
15.550440528634361,-0.24510646926945379
15.583810572687225,-0.2820290363615355
15.61718061674009,-0.343913136620293
15.650550660792952,-0.40291198274123746
15.683920704845816,-0.433917005110819
15.717290748898678,-0.4238208521578146
15.750660792951543,-0.37305195165867094
15.784030837004407,-0.289521653864976
15.817400881057269,-0.1795746584056847
15.850770925110133,-0.04237144149789098
15.884140969162996,0.1279530889221717
15.91751101321586,0.3330692204795427
15.950881057268724,0.5599730894176465
15.984251101321586,0.7768482542110954
16.01762114537445,0.939821057847241
16.050991189427315,1.0087618100452005
16.084361233480177,0.964408261633844
16.11773127753304,0.8175778235567345
16.151101321585905,0.6052520502689643
16.184471365638768,0.375453857504267
16.21784140969163,0.16873262860868715
16.251211453744492,0.0053308840031311595
16.284581497797358,-0.11662468268991463
16.31795154185022,-0.21270955881841852
16.351321585903083,-0.2993244059654937
16.38469162995595,-0.38344874916938787
16.41806167400881,-0.45968658633411
16.451431718061674,-0.5148761108414779
16.48480176211454,-0.5366803333484048
16.518171806167402,-0.5210711534116763
16.551541850220264,-0.4748571007676622
16.584911894273127,-0.41239921526311824
16.618281938325993,-0.3487131377924163
16.651651982378855,-0.2927508142102077
16.685022026431717,-0.24416987613346455
16.718392070484583,-0.1948321650107977
16.751762114537446,-0.13387518228163395
16.785132158590308,-0.05371302365139992
16.818502202643174,0.04569903134960408
16.851872246696036,0.15586808504505797
16.8852422907489,0.2620735269843778
16.91861233480176,0.34787843910013533
16.951982378854627,0.4002238747562807
16.98535242290749,0.4135018894859754
17.01872246696035,0.391347079919118
17.052092511013218,0.34547542226491695
17.08546255506608,0.2917355802104985
17.118832599118942,0.2445163239147201
17.152202643171808,0.21144022654057015
17.18557268722467,0.19042850362025282
17.218942731277533,0.170498392060188
17.2523127753304,0.13623224744849405
17.28568281938326,0.07431808977309451
