Frequency (Hz),Amplitude
0.0,0.8585571487464243
0.019823788546255508,0.8621140485832259
0.039647577092511016,0.8726838503196526
0.059471365638766524,0.8899758408067312
0.07929515418502203,0.9135421834373948
0.09911894273127755,0.9428230758831497
0.11894273127753305,0.977194614325554
0.13876651982378857,1.016011431546308
0.15859030837004406,1.0586396737243045
0.17841409691629956,1.104479254568645
0.1982378854625551,1.1529765806348546
0.2180616740088106,1.2036299508409307
0.2378854625550661,1.2559899423410674
0.25770925110132165,1.3096567358996651
0.27753303964757714,1.3642758289436119
0.29735682819383263,1.4195331107925788
0.31718061674008813,1.47514990106863
0.3370044052863437,1.5308782872155906
0.3568281938325991,1.586496922920186
0.37665198237885467,1.6418073422800263
0.3964757709251102,1.696630783437755
0.41629955947136565,1.7508054837077571
0.4361233480176212,1.8041843944749316
0.4559471365638767,1.8566332607579996
0.4757709251101322,1.9080290125184507
0.49559471365638774,1.9582584196626407
0.5154185022026433,2.0072169685465333
0.5352422907488987,2.054807923724498
0.5550660792951543,2.1009415442152695
0.5748898678414097,2.145534428485062
0.5947136563876653,2.18850896661379
0.6145374449339208,2.2297928817377106
0.6343612334801763,2.269318845908986
0.6541850220264318,2.3070241580527173
0.6740088105726874,2.342850473808917
0.6938325991189428,2.37674357878876
0.7136563876651982,2.4086531982134565
0.7334801762114539,2.4385328370914143
0.7533039647577093,2.4663396460708538
0.7731277533039648,2.492034308916739
0.7929515418502204,2.5155809482339295
0.8127753303964759,2.5369470466184882
0.8325991189427313,2.5561033808859994
0.8524229074889869,2.5730239674175235
0.8722466960352424,2.587686016993939
0.8920704845814978,2.6000698977692336
0.9118942731277534,2.6101591052729556
0.931718061674009,2.617940238538654
0.9515418502202644,2.6234029816358144
0.9713656387665199,2.6265400900430125
0.9911894273127755,2.6273473814442085
1.0110132158590308,2.625823730663246
1.0308370044052866,2.6219710685763626
1.0506607929515421,2.6157943849633645
1.0704845814977975,2.607301735377815
1.090308370044053,2.596504252238274
1.1101321585903086,2.583416160469961
1.1299559471365639,2.5680547981629127
1.1497797356828194,2.5504406428616377
1.1696035242290752,2.530597344268385
1.1894273127753305,2.508551764330993
1.209251101321586,2.484334025903576
1.2290748898678416,2.4579775714211105
1.248898678414097,2.429519233325117
1.2687224669603525,2.3989993183279044
1.288546255506608,2.3664617080190347
1.3083700440528636,2.3319539788153123
1.3281938325991192,2.2955275448523738
1.3480176211453747,2.2572378281347247
1.36784140969163,2.217144461128637
1.3876651982378856,2.17531152803158
1.4074889867841411,2.131807852222866
1.4273127753303965,2.0867073389395987
1.4471365638766522,2.0400893840866243
1.4669603524229078,1.9920393623420198
1.4867841409691631,1.942649210433327
1.5066079295154187,1.8920181247087144
1.5264317180616742,1.8402533959824423
1.5462555066079295,1.7874714091466946
1.5660792951541853,1.7337988402142903
1.5859030837004409,1.6793740891949656
1.6057268722466962,1.624348993234666
1.6255506607929517,1.568890870166682
1.6453744493392073,1.5131849468952219
1.6651982378854626,1.4574372278222905
1.6850220264317182,1.4018778523829807
1.7048458149779737,1.346764972039764
1.7246696035242293,1.292389136991851
1.7444933920704848,1.239078108265828
1.7643171806167404,1.1872018835103797
1.7841409691629957,1.1371775218700413
1.8039647577092512,1.089473051491729
1.8237885462555068,1.0446093305646456
1.8436123348017623,1.003158233141363
1.863436123348018,0.9657350444864249
1.8832599118942732,0.9329827025432218
1.9030837004405288,0.9055458842548169
1.9229074889867843,0.8840343468115937
1.9427312775330399,0.8689776343043302
1.9625550660792954,0.8607768605748104
1.982378854625551,0.8596624579937663
2.002202643171806,0.8656676254745665
2.0220264317180616,0.8786244046671184
2.041850220264317,0.898183454919959
2.061674008810573,0.9238522402278868
2.0814977973568287,0.9550423816803868
2.1013215859030843,0.9911166729716906
2.1211453744493394,1.031428894954691
2.140969162995595,1.0753532166984292
2.1607929515418505,1.122303043399103
2.180616740088106,1.171740990783419
2.2004405286343616,1.2231823189891424
2.220264317180617,1.2761940602827135
2.2400881057268722,1.330391633796963
2.2599118942731278,1.3854342295373994
2.2797356828193833,1.4410197983668285
2.299559471365639,1.4968801477196936
2.319383259911895,1.552776410555307
2.3392070484581504,1.6084950061443286
2.3590308370044055,1.6638441220148887
2.378854625550661,1.7186506968742334
2.3986784140969166,1.7727578598702045
2.418502202643172,1.826022772099064
2.4383259911894277,1.8783148152728564
2.4581497797356833,1.9295140758719116
2.4779735682819384,1.979510078505971
2.497797356828194,2.0282007282077292
2.5176211453744495,2.075491427245092
2.537444933920705,2.121294337400729
2.5572687224669606,2.1655277633885652
2.577092511013216,2.2081156371336665
2.5969162995594717,2.2489870860743624
2.6167400881057272,2.28807607151931
2.6365638766519828,2.325321085482487
2.6563876651982383,2.3606648963986885
2.676211453744494,2.3940543357580766
2.6960352422907494,2.4254401190484973
2.715859030837005,2.454776695509017
2.73568281938326,2.4820221221195315
2.7555066079295156,2.507137958013831
2.775330396475771,2.530089176136317
2.7951541850220267,2.5508440894895905
2.8149779735682823,2.569374289760256
2.834801762114538,2.5856545964800874
2.854625550660793,2.599663015191851
2.874449339207049,2.611380703354662
2.8942731277533045,2.620791942951432
2.91409691629956,2.6278841189585305
2.9339207048458156,2.6326477030107753
2.953744493392071,2.635076241749615
2.9735682819383262,2.6351663494824997
2.993392070484582,2.632917704911205
3.0132158590308373,2.6283330518105132
3.033039647577093,2.621418203658743
3.0528634361233484,2.612182052341712
3.072687224669604,2.6006365811755936
3.092511013215859,2.5867968826242596
3.1123348017621146,2.570681181227519
3.1321585903083706,2.5523108624119297
3.151982378854626,2.5317105080300455
3.1718061674008817,2.508907939672672
3.1916299559471373,2.4839342710281067
3.2114537444933924,2.456823970829789
3.231277533039648,2.4276149382486376
3.2511013215859035,2.3963485929590833
3.270925110132159,2.363069982552341
3.2907488986784146,2.3278279105019735
3.31057268722467,2.290675088526291
3.3303964757709252,2.2516683179624413
3.350220264317181,2.210868705698578
3.3700440528634363,2.168341921337707
3.389867841409692,2.1241585036335238
3.4096916299559474,2.078394225894691
3.4295154185022034,2.0311305320599264
3.4493392070484585,1.9824550575700002
3.469162995594714,1.9324622520788826
3.4889867841409696,1.8812541245329533
3.508810572687225,1.82894113527251
3.5286343612334807,1.7756432646170164
3.5484581497797363,1.7214912928655564
3.5682819383259914,1.666628332638301
3.588105726872247,1.611211660642801
3.6079295154185025,1.5554149015271748
3.627753303964758,1.4994306200872591
3.6475770925110136,1.4434733772774653
3.667400881057269,1.3877832961199246
3.6872246696035247,1.3326301590750924
3.7070484581497802,1.278318008475167
3.726872246696036,1.2251901312172446
3.7466960352422913,1.1736341577045615
3.7665198237885464,1.1240867686909672
3.7863436123348024,1.0770371601387356
3.8061674008810575,1.0330279611816415
3.8259911894273135,0.9926517777006172
3.8458149779735686,0.9565410822226103
3.8656387665198246,0.9253490698149951
3.8854625550660797,0.8997197699270142
3.905286343612335,0.8802475702926267
3.925110132158591,0.8674294576308211
3.9449339207048464,0.8616170101223944
3.964757709251102,0.8629778469707735
3.9845814977973575,0.8714759251988543
4.004405286343612,0.8868759709180589
4.024229074889869,0.90877081986618
4.044052863436123,0.9366245049641975
4.06387665198238,0.9698211557096402
4.083700440528634,1.0077107195943937
4.103524229074891,1.0496457983615215
4.123348017621146,1.0950075536024904
4.143171806167401,1.1432213509897435
4.162995594713657,1.1937642092554304
4.182819383259912,1.2461664586259462
4.2026431718061685,1.3000097445928538
4.222466960352423,1.3549230125324436
4.242290748898679,1.4105776014568037
4.262114537444934,1.4666821592794765
4.28193832599119,1.5229777893766214
4.301762114537445,1.5792336356662764
4.321585903083701,1.635242986893545
4.3414096916299565,1.6908199070704792
4.361233480176212,1.7457963596647816
4.381057268722468,1.8000197750012765
4.400881057268723,1.8533510046335755
4.420704845814979,1.905662607551109
4.440528634361234,1.9568374175846008
4.46035242290749,2.006767347248992
4.4801762114537445,2.0553523893989043
4.500000000000001,2.102499783883523
4.5198237885462555,2.1481233216112727
4.539647577092512,2.1921427629809105
4.559471365638767,2.234483351514188
4.579295154185023,2.27507540678923
4.599118942731278,2.3138539834974057
4.618942731277533,2.35075858570628
4.63876651982379,2.3857329272796304
4.658590308370044,2.4187247309479973
4.678414096916301,2.4496855597955345
4.6982378854625555,2.478570675979416
4.718061674008811,2.5053389223659654
4.737885462555067,2.52995262348676
4.757709251101322,2.5523775028147653
4.777533039647578,2.5725826138582297
4.797356828193833,2.5905402829862307
4.817180616740089,2.6062260622496853
4.837004405286344,2.619618690758261
4.856828193832599,2.6307000634257807
4.876651982378855,2.639455206114467
4.896475770925111,2.6458722563971726
4.9162995594713665,2.649942449323784
4.936123348017622,2.651660107727426
4.955947136563877,2.6510226367429732
4.975770925110133,2.648030522337871
4.995594713656388,2.6426873337778436
5.015418502202644,2.634999730070098
5.035242290748899,2.6249774705483393
5.055066079295155,2.6126334298897995
5.07488986784141,2.597983617988538
5.094713656387666,2.58104720525544
5.114537444933921,2.561846554076961
5.134361233480177,2.5404072573480554
5.154185022026432,2.5167581852041323
5.174008810572688,2.4909315413200535
5.193832599118943,2.4629629304286875
5.213656387665199,2.432891439047289
5.2334801762114544,2.40075973179876
5.25330396475771,2.366614166190886
5.2731277533039655,2.3305049292880176
5.292951541850221,2.292486200397083
5.312775330396477,2.252616344720012
5.332599118942731,2.210958143929773
5.352422907488988,2.167579070844712
5.372246696035242,2.122551616853898
5.392070484581499,2.0759536825385827
5.4118942731277535,2.0278690441067684
5.43171806167401,1.9783879108827738
5.451541850220265,1.9276075922506917
5.47136563876652,1.8756332962206923
5.491189427312777,1.8225790862379936
5.511013215859031,1.7685690280203008
5.530837004405288,1.713738564047497
5.550660792951542,1.6582361596479864
5.570484581497798,1.6022252709723392
5.5903083700440535,1.5458866905977062
5.610132158590309,1.4894213293716312
5.6299559471365646,1.433053490434208
5.64977973568282,1.3770346782417557
5.669603524229076,1.3216479540029007
5.689427312775331,1.267212787240057
5.709251101321586,1.2140902439404861
5.729074889867842,1.1626881721781095
5.748898678414098,1.113465770390684
5.768722466960353,1.0669365317285937
5.788546255506609,1.0236680563704799
5.808370044052864,0.9842766823261394
5.82819383259912,0.9494144895001395
5.848017621145375,0.91974632450052
5.867841409691631,0.8959155407150774
5.887665198237886,0.8784995302231478
5.907488986784142,0.8679597154447023
5.927312775330397,0.8645944027869579
5.9471365638766525,0.8685048395330152
5.966960352422908,0.8795831595211395
5.986784140969164,0.8975255232405205
6.00660792951542,0.9218668325907723
6.026431718061675,0.9520281681180036
6.04625550660793,0.98736663593286
6.066079295154186,1.0272193830200538
6.085903083700441,1.070937302502441
6.105726872246697,1.1179074951146915
6.125550660792952,1.1675658652811587
6.145374449339208,1.2194022201887922
6.1651982378854635,1.272960300390236
6.185022026431718,1.3278347628306968
6.204845814977975,1.3836665962008943
6.224669603524229,1.4401379525852827
6.244493392070486,1.496966994173696
6.264317180616741,1.553903083753441
6.284140969162996,1.6107224723075377
6.303964757709252,1.6672245306365447
6.323788546255507,1.7232285120178108
6.3436123348017635,1.7785708025685512
6.363436123348018,1.833102603450395
6.3832599118942746,1.8866879866755153
6.403083700440529,1.9392022692576243
6.422907488986785,1.9905306559254576
6.44273127753304,2.0405671069330884
6.462555066079296,2.0892133937714714
6.482378854625551,2.1363783113650197
6.502202643171807,2.1819770204464413
6.5220264317180625,2.2259304982015107
6.541850220264318,2.2681650790007852
6.561674008810574,2.3086120701533046
6.581497797356829,2.3472074302101325
6.601321585903085,2.3838914994906326
6.62114537444934,2.418608774275083
6.640969162995596,2.4513077175668156
6.6607929515418505,2.4819406005307894
6.680616740088107,2.5104633697077063
6.700440528634362,2.5368355359243275
6.720264317180618,2.561020081499437
6.740088105726873,2.582983382910641
6.759911894273129,2.6026951465574557
6.779735682819384,2.6201283556512864
6.799559471365639,2.635259226595053
6.819383259911895,2.6480671734973047
6.83920704845815,2.6585347797062715
6.859030837004407,2.666647775457857
6.8788546255506615,2.672395020912937
6.898678414096917,2.675768494020556
6.918502202643173,2.676763282789382
6.938325991189428,2.6753775816831467
6.958149779735684,2.671612691982123
6.977973568281939,2.6654730260747432
6.997797356828195,2.656966115763968
7.01762114537445,2.6461026247969044
7.037444933920705,2.632896365954908
7.0572687224669615,2.6173643231804147
7.077092511013216,2.5995266793682967
7.096916299559473,2.5794068506199195
7.116740088105728,2.5570315279508717
7.136563876651983,2.5324307276657976
7.156387665198239,2.5056378518719944
7.176211453744494,2.4766897609083784
7.19603524229075,2.445626859825027
7.215859030837005,2.412493201478
7.235682819383261,2.3773366093161825
7.255506607929516,2.340208823554146
7.275330396475772,2.3011656751677214
7.295154185022027,2.260267293049686
7.314977973568283,2.2175783507522744
7.334801762114538,2.1731683605683028
7.354625550660794,2.1271120243105246
7.374449339207049,2.079489652102873
7.394273127753305,2.0303876628670947
7.4140969162995605,1.9798991830537256
7.433920704845816,1.9281247636145598
7.453744493392072,1.875173239328386
7.473568281938327,1.8211627594436917
7.493392070484583,1.7662220242148061
7.513215859030838,1.7104917682136738
7.533039647577093,1.6541265380519254
7.552863436123348,1.5972968187734897
7.572687224669605,1.5401915685534564
7.59251101321586,1.4830212234047138
7.612334801762115,1.4260212287975083
7.6321585903083715,1.3694561375521799
7.651982378854627,1.3136242737310397
7.671806167400882,1.2588628864054097
7.691629955947137,1.2055535850918546
7.711453744493394,1.1541276346730214
7.731277533039649,1.1050703644866204
7.751101321585904,1.058923497416043
7.7709251101321595,1.0162836510692916
7.790748898678416,0.9777947084174763
7.81057268722467,0.9441314440682936
7.830396475770926,0.9159721403727886
7.850220264317182,0.8939594395503779
7.870044052863436,0.8786516493481067
7.889867841409693,0.8704707368225758
7.909691629955948,0.8696568175841344
7.929515418502204,0.8762398880682123
7.9493392070484585,0.8900363594650947
7.969162995594715,0.9106713496459113
7.9889867841409705,0.937620633446995
8.008810572687224,0.9702619181762412
8.02863436123348,1.007925070253815
8.048458149779737,1.049934025407766
8.068281938325994,1.0956371962635847
8.088105726872246,1.144426503705303
8.107929515418503,1.195747031615492
8.12775330396476,1.249099903675222
8.147577092511014,1.3040407943222712
8.167400881057269,1.3601759658527464
8.187224669603525,1.4171571572408161
8.207048458149782,1.4746761717334584
8.226872246696036,1.5324596566298285
8.246696035242293,1.5902643297423928
8.266519823788547,1.6478727568519373
8.286343612334802,1.7050896964376592
8.306167400881058,1.7617389805873622
8.325991189427315,1.8176608787688497
8.345814977973568,1.8727098836665914
8.365638766519824,1.9267528589201421
8.38546255506608,1.9796674932905056
8.405286343612337,2.031341012154576
8.42511013215859,2.08166910396126
8.444933920704846,2.1305550256903967
8.464757709251103,2.17790885712111
8.484581497797357,2.223646878733089
8.504405286343614,2.267691052340071
8.524229074889869,2.3099685871468747
8.544052863436125,2.350411576914055
8.56387665198238,2.388956696391412
8.583700440528636,2.4255449472261534
8.60352422907489,2.4601214452352824
8.623348017621145,2.49263524231792
8.643171806167402,2.523039177424857
8.662995594713658,2.5512897519440925
8.682819383259913,2.577347025638964
8.702643171806168,2.6011745299199185
8.722466960352424,2.622739195766769
8.74229074889868,2.642011294065275
8.762114537444935,2.6589643864968973
8.78193832599119,2.6735752854371158
8.801762114537446,2.685824021586306
8.821585903083701,2.6956938182878525
8.841409691629957,2.703171071687583
8.861233480176212,2.7082453360642327
8.881057268722468,2.7109093138163964
8.900881057268723,2.7111588497335606
8.92070484581498,2.7089929293105426
8.940528634361234,2.704413680989083
8.960352422907489,2.697426382333217
8.980176211453745,2.688039470266539
9.000000000000002,2.676264555625768
9.019823788546258,2.6621164424181796
9.039647577092511,2.645613152314211
9.059471365638768,2.62677595506583
9.079295154185024,2.6056294057205274
9.099118942731279,2.582201389705151
9.118942731277533,2.556523177090741
9.13876651982379,2.528629487626313
9.158590308370046,2.4985585684557656
9.1784140969163,2.4663522868196637
9.198237885462555,2.4320562405065953
9.218061674008812,2.3957198893738685
9.237885462555067,2.357396711927094
9.257709251101323,2.317144391756874
9.27753303964758,2.275025039612439
9.297356828193834,2.2311054580833347
9.317180616740089,2.185457457310657
9.337004405286345,2.1381582319140167
9.356828193832602,2.0892908114683113
9.376651982378855,2.038944599473572
9.396475770925111,1.9872160189211672
9.416299559471367,1.9342092863654816
9.436123348017622,1.8800373409549025
9.455947136563877,1.8248229602324701
9.475770925110133,1.7687001007021947
9.49559471365639,1.711815508077934
9.515418502202644,1.6543306494737735
9.5352422907489,1.5964240268559022
9.555066079295155,1.5382939364793846
9.57488986784141,1.4801617402805574
9.594713656387666,1.422275707982036
9.614537444933923,1.3649154658878266
9.634361233480178,1.308397038777007
9.654185022026432,1.2530783781136086
9.674008810572689,1.1993651094744586
9.693832599118945,1.147715975410665
9.713656387665198,1.0986470680609834
9.733480176211454,1.0527334272594395
9.75330396475771,1.0106059654546922
9.773127753303967,0.9729411198082638
9.792951541850222,0.9404404444346133
9.812775330396477,0.9137980435562465
9.832599118942733,0.8936558416489824
9.852422907488988,0.8805503397192154
9.872246696035244,0.8748589155431592
9.892070484581499,0.8767569116264952
9.911894273127754,0.8861963620693972
9.93171806167401,0.9029122753864267
9.951541850220266,0.9264546623812913
9.971365638766521,0.9562376513646795
9.991189427312776,0.9915941159222644
10.011013215859032,1.0318257149510832
10.030837004405289,1.0762422795318871
10.050660792951543,1.1241887172751102
10.070484581497798,1.175060575715406
10.090308370044054,1.228310807997499
10.11013215859031,1.2834505066219013
10.129955947136565,1.3400459652498058
10.14977973568282,1.3977138184236884
10.169603524229077,1.4561154301162695
10.189427312775331,1.5149512462084072
10.209251101321588,1.573955504846184
10.229074889867842,1.6328914899165123
10.248898678414099,1.6915473864802797
10.268722466960353,1.7497327260589322
10.28854625550661,1.8072753738531908
10.308370044052865,1.8640189952222637
10.32819383259912,1.9198209359228962
10.348017621145376,1.9745504540212078
10.367841409691632,2.0280872476696334
10.387665198237887,2.0803202301645407
10.407488986784141,2.131146510839754
10.427312775330398,2.180470546905599
10.447136563876654,2.2282034371118384
10.466960352422909,2.2742623330601015
10.486784140969164,2.3185699481634865
10.50660792951542,2.3610541477306355
10.526431718061675,2.401647606533862
10.546255506607931,2.4402875225973903
10.566079295154186,2.4769153778968547
10.585903083700442,2.5114767382673246
10.605726872246697,2.5439210861375767
10.625550660792953,2.574201680794102
10.645374449339208,2.602275441773256
10.665198237885463,2.6281028517189546
10.685022026431719,2.6516478756557174
