Time (s),Filtered Signal
0.0,0.013218334703819022
0.03337028824833703,-0.08919167458594476
0.06674057649667406,-0.1592874733779183
0.10011086474501109,-0.1759791039973865
0.13348115299334812,-0.13653525852696993
0.16685144124168516,-0.05575418164932294
0.20022172949002218,0.04138798198228547
0.2335920177383592,0.12976302137963075
0.26696230598669624,0.19219208833386503
0.3003325942350333,0.22256019026462903
0.3337028824833703,0.22373199758677265
0.3670731707317073,0.20264338911781524
0.40044345898004435,0.16591891252958837
0.4338137472283814,0.11833680559937612
0.4671840354767184,0.06419349654013637
0.5005543237250555,0.009566547060821252
0.5339246119733925,-0.03708690166846655
0.5672949002217295,-0.06730430564413306
0.6006651884700666,-0.07701227468598626
0.6340354767184035,-0.07017682631658596
0.6674057649667406,-0.058800053846735686
0.7007760532150776,-0.05812492939517635
0.7341463414634146,-0.07869826131066711
0.7675166297117517,-0.11918447568652152
0.8008869179600887,-0.1641482101867113
0.8342572062084257,-0.1890143223377223
0.8676274944567628,-0.17088871881206247
0.9009977827050998,-0.10060190423317399
0.9343680709534368,0.00997591412143609
0.9677383592017739,0.12965910887825782
1.001108647450111,0.21895777276250594
1.0344789356984478,0.24603430619829414
1.067849223946785,0.2005163962692757
1.101219512195122,0.098725978600898
1.134589800443459,-0.02225627392769653
1.167960088691796,-0.1191039692583764
1.2013303769401331,-0.15888753081361645
1.23470066518847,-0.13074109768149472
1.268070953436807,-0.048159182461502144
1.3014412416851442,0.05798388432900865
1.3348115299334813,0.15170756688123485
1.3681818181818182,0.20401035733629935
1.4015521064301553,0.20048967409058152
1.4349223946784924,0.14299402086660404
1.4682926829268292,0.046452168816119854
1.5016629711751663,-0.06667528997569094
1.5350332594235034,-0.17211065736078282
1.5684035476718403,-0.2485151604915162
1.6017738359201774,-0.2811582501905601
1.6351441241685145,-0.2646777310550569
1.6685144124168514,-0.20472626451605672
1.7018847006651885,-0.11772168738811895
1.7352549889135256,-0.02777755385925924
1.7686252771618625,0.03941926237726497
1.8019955654101996,0.06460881706692577
1.8353658536585367,0.04220158178505625
1.8687361419068735,-0.016430618110344207
1.9021064301552106,-0.0857912449915988
1.9354767184035477,-0.13493140528723951
1.9688470066518848,-0.13884668410800102
2.002217294900222,-0.08786110095385452
2.035587583148559,0.00909549856350363
2.0689578713968957,0.1286385158615561
2.102328159645233,0.24232854671538667
2.13569844789357,0.32679551474499563
2.1690687361419068,0.3701217213949687
2.202439024390244,0.37234114052305034
2.235809312638581,0.3410910027658786
2.269179600886918,0.2857046166913886
2.302549889135255,0.21324416172609814
2.335920177383592,0.12823814779003148
2.369290465631929,0.035354782443518154
2.4026607538802662,-0.057599261672343555
2.436031042128603,-0.13909479461804697
2.46940133037694,-0.1968480284309861
2.5027716186252773,-0.2231065401665721
2.536141906873614,-0.21927906067794234
2.569512195121951,-0.19687574474045133
2.6028824833702884,-0.17346449885354778
2.6362527716186253,-0.16500253756382707
2.6696230598669626,-0.17805894171167877
2.7029933481152995,-0.2059054937867761
2.7363636363636363,-0.23085898939936178
2.7697339246119737,-0.23229180672415817
2.8031042128603105,-0.196813008782353
2.8364745011086474,-0.12574809910899987
2.8698447893569847,-0.036018138675525356
2.9032150776053216,0.046490319549739936
2.9365853658536585,0.0983315658898996
2.969955654101996,0.10943038157010257
3.0033259423503327,0.08819498235728351
3.0366962305986696,0.05800786208085067
3.070066518847007,0.04636355245128355
3.1034368070953438,0.07161753958458004
3.1368070953436806,0.13373544686067992
3.170177383592018,0.21369097472892581
3.203547671840355,0.28195453039436186
3.2369179600886917,0.31193570162803014
3.270288248337029,0.2917313385176468
3.303658536585366,0.22849286440231165
3.337028824833703,0.143662808772043
3.37039911308204,0.06207527904955732
3.403769401330377,0.0008767578016001729
3.437139689578714,-0.03613391482914533
3.470509977827051,-0.05648195648260861
3.503880266075388,-0.07140222165709766
3.537250554323725,-0.0876680562430088
3.5706208425720622,-0.10383601239049524
3.603991130820399,-0.11293014479418806
3.637361419068736,-0.10950415119118376
3.6707317073170733,-0.09620927356582801
3.70410199556541,-0.08515211487134824
3.737472283813747,-0.09241556823507291
3.7708425720620844,-0.12836758551578767
3.8042128603104213,-0.18930308983725322
3.8375831485587586,-0.2557735245844238
3.8709534368070955,-0.2996070459290806
3.9043237250554323,-0.29684046896452065
3.9376940133037697,-0.24017299126148647
3.9710643015521065,-0.14420565040507752
4.004434589800444,-0.04007352977124379
4.037804878048781,0.0384826067670726
4.071175166297118,0.0708962746958935
4.1045454545454545,0.059433103154326185
4.137915742793791,0.027729006237004757
4.171286031042128,0.008915793788163711
4.204656319290466,0.029397512518188836
4.238026607538803,0.09644380353312203
4.27139689578714,0.1955353631375352
4.304767184035477,0.29816035533237656
4.3381374722838135,0.3754478071775352
4.371507760532151,0.41045946064227457
4.404878048780488,0.40330289953136433
4.438248337028825,0.36745099714329693
4.471618625277162,0.3202916022203359
4.504988913525499,0.27353051293941993
4.538359201773836,0.22846779892386035
4.571729490022173,0.17798444635007557
4.60509977827051,0.11325420992911163
4.638470066518847,0.030865102061963925
4.671840354767184,-0.0636728272878221
4.705210643015521,-0.15759373955357076
4.738580931263858,-0.23629664129727934
4.771951219512196,-0.28935218743357544
4.8053215077605325,-0.3141692304934088
4.838691796008869,-0.3160792854202937
4.872062084257206,-0.3054676760024581
4.905432372505543,-0.2936248066768947
4.93880266075388,-0.2889970454983641
4.972172949002218,-0.29491429657783885
5.005543237250555,-0.30918187575134287
5.0389135254988915,-0.32536927583087266
5.072283813747228,-0.3351758107449347
5.105654101995565,-0.33091422874633036
5.139024390243902,-0.307130453193022
5.17239467849224,-0.26086932589859757
5.205764966740577,-0.19096873061287434
5.239135254988914,-0.09748033515905301
5.2725055432372505,0.017719584875385226
5.305875831485587,0.14899541155523882
5.339246119733925,0.2848587576839829
5.372616407982262,0.4076473472686516
5.405986696230599,0.4964715543144021
5.439356984478936,0.5333372824730832
5.472727272727273,0.5104034061962527
5.5060975609756095,0.4351057661612032
5.539467849223947,0.33017115283248205
5.572838137472284,0.2274251483008155
5.606208425720621,0.15703799586698122
5.639578713968958,0.13621136355077132
5.672949002217295,0.16208055377599442
5.706319290465632,0.21222073856243967
5.7396895787139695,0.253037114797626
5.773059866962306,0.2528348950306546
5.806430155210643,0.1941725645257248
5.83980044345898,0.08034380596948065
5.873170731707317,-0.06652031048339163
5.906541019955654,-0.21445222925272295
5.939911308203992,-0.33343207153850646
5.9732815964523285,-0.40482714422064164
6.006651884700665,-0.4250638481666457
6.040022172949002,-0.40324058063538815
6.073392461197339,-0.35515188122998553
6.106762749445676,-0.29716122028006026
6.140133037694014,-0.24231216562869648
6.173503325942351,-0.1990268088331844
6.2068736141906875,-0.1711907688409384
6.240243902439024,-0.15827306280549927
6.273614190687361,-0.15515180462924105
6.306984478935698,-0.15245536188306102
6.340354767184036,-0.13846178520292907
6.373725055432373,-0.10270141788678003
6.40709534368071,-0.04006506302935225
6.4404656319290465,0.04652327628163323
6.473835920177383,0.14633882844806934
6.507206208425721,0.24403477609860486
6.540576496674058,0.3243463141674355
6.573946784922395,0.37630903284018663
6.607317073170732,0.39551154735941285
6.640687361419069,0.3840378231866395
6.674057649667406,0.34869102438199084
6.707427937915743,0.29838090500213116
6.74079822616408,0.2413710417594662
6.774168514412417,0.18289674012048987
6.807538802660754,0.12372223746305137
6.840909090909091,0.06028416607054865
6.874279379157428,-0.013242910096890072
6.9076496674057655,-0.10142961949941495
6.941019955654102,-0.20398282278197302
6.974390243902439,-0.31372357843105286
7.007760532150776,-0.4172360956241577
7.041130820399113,-0.49804746376264175
7.07450110864745,-0.5410775725384451
7.107871396895788,-0.5367145244951804
7.1412416851441245,-0.4833020335855213
7.174611973392461,-0.3876142568141642
7.207982261640798,-0.2634844600991512
7.241352549889135,-0.1289434523817778
7.274722838137472,-0.0022447694415774493
7.30809312638581,0.10263088251666308
7.341463414634147,0.17989669795180385
7.3748337028824835,0.23376012008630426
7.40820399113082,0.27672159137092267
7.441574279379157,0.3241194432862174
7.474944567627494,0.3865001639304669
7.508314855875832,0.4630219364521841
7.541685144124169,0.53941214396696
7.575055432372506,0.5924007766168069
7.6084257206208425,0.5995071090083278
7.641796008869179,0.5500211111463387
7.675166297117517,0.451706976280533
7.708536585365854,0.32916439111993223
7.741906873614191,0.21355597143653346
7.775277161862528,0.1278709556785815
7.808647450110865,0.07478326351482988
7.842017738359202,0.03373815061615931
7.875388026607539,-0.03006177122012793
7.908758314855876,-0.1479752348813088
7.942128603104213,-0.32964196880252433
7.97549889135255,-0.5533474732121053
8.008869179600888,-0.7706458123258358
8.042239467849225,-0.9239977304625354
8.075609756097561,-0.9696407021581565
8.108980044345898,-0.8952350797950982
8.142350332594235,-0.7244336201765174
8.175720620842572,-0.5068294281488716
8.209090909090909,-0.2983002520462465
8.242461197339246,-0.14041803759923066
8.275831485587583,-0.047103843002820875
8.30920177383592,-0.002996808302103212
8.342572062084257,0.02686251006046525
8.375942350332595,0.08048939473345768
8.409312638580932,0.18207942791666248
8.442682926829269,0.33107918969773137
8.476053215077606,0.5011717364284547
8.509423503325943,0.6494928960764773
8.54279379157428,0.7325692763709163
8.576164079822616,0.7228765330097974
8.609534368070953,0.6196491047107426
8.64290465631929,0.44982038791543993
8.676274944567627,0.2588465086856235
8.709645232815964,0.0950787898403458
8.743015521064303,-0.00629238410599941
8.77638580931264,-0.03381672872286747
8.809756097560976,-0.0014251298676117208
8.843126385809313,0.058708093918401746
8.87649667405765,0.10872236998270644
8.909866962305987,0.11815411524951404
8.943237250554324,0.07312603689493546
8.97660753880266,-0.02084554193043923
9.009977827050998,-0.14249152053410305
9.043348115299334,-0.26290928306742983
9.076718403547671,-0.3550713573633478
9.110088691796008,-0.4016068334486051
9.143458980044347,-0.3986735734809145
9.176829268292684,-0.355241197267035
9.21019955654102,-0.28861558129518183
9.243569844789358,-0.21804958942568511
9.276940133037694,-0.1585712364783323
9.310310421286031,-0.11681252599834283
9.343680709534368,-0.0898953634618288
9.377050997782705,-0.06754278492508277
9.410421286031042,-0.03667188239923947
9.443791574279379,0.013042475025385065
9.477161862527716,0.08450804382127874
9.510532150776053,0.1710775577262881
9.543902439024391,0.2577036307532638
9.577272727272728,0.3250473512579623
9.610643015521065,0.3552664053697814
9.644013303769402,0.33773429854811765
9.677383592017739,0.27296583010311165
9.710753880266076,0.1734469716711918
9.744124168514412,0.06081924751736777
9.77749445676275,-0.04009249268400691
9.810864745011086,-0.10877527671572075
9.844235033259423,-0.13558496340631543
9.87760532150776,-0.12489458435841147
9.910975609756099,-0.09339760264247364
9.944345898004435,-0.06390755579364299
9.977716186252772,-0.05678680023829118
10.01108647450111,-0.08215846222915855
10.044456762749446,-0.1358656284230265
10.077827050997783,-0.20080815546124833
10.11119733924612,-0.25330328644660194
10.144567627494457,-0.2721915155411003
10.177937915742794,-0.24724674189024873
10.21130820399113,-0.18353442801830436
10.244678492239467,-0.09977617901078542
10.278048780487804,-0.02110225722236599
10.311419068736143,0.03105881293481039
10.34478935698448,0.04781110906534331
10.378159645232817,0.036502397147275246
10.411529933481154,0.017494790636504987
10.44490022172949,0.015136045850435096
10.478270509977827,0.04670099276676567
10.511640798226164,0.1141513235569219
10.545011086474501,0.20249863831975892
10.578381374722838,0.2857046306137753
10.611751662971175,0.33763286923563013
10.645121951219512,0.3431631904861396
10.67849223946785,0.30440213592886395
10.711862527716187,0.23916369064618573
10.745232815964524,0.17253887713321348
10.778603104212861,0.12563702263601537
10.811973392461198,0.10682034642977303
10.845343680709535,0.10935461095866852
10.878713968957872,0.11613029889524237
10.912084257206208,0.1086917758667967
10.945454545454545,0.07596777701375484
10.978824833702882,0.018638205339742333
11.012195121951219,-0.052458629928348724
11.045565410199556,-0.12246771695163189
11.078935698447895,-0.17977699188185667
11.112305986696231,-0.2207963240773493
11.145676274944568,-0.25019577042834706
11.179046563192905,-0.27685196315462096
11.212416851441242,-0.30769960453817263
11.245787139689579,-0.34250321694799013
11.279157427937916,-0.37207314018301296
11.312527716186253,-0.3809609441406175
11.34589800443459,-0.35376594964615266
11.379268292682926,-0.2825473881928086
11.412638580931263,-0.1721128674167244
11.4460088691796,-0.040563105833290966
11.479379157427939,0.08565642487580066
11.512749445676276,0.18052687175728208
11.546119733924613,0.22755145733169432
11.57949002217295,0.22541037252996732
11.612860310421286,0.1878942644057421
11.646230598669623,0.1383066989102807
11.67960088691796,0.10073820550888525
11.712971175166297,0.09159318387701197
11.746341463414634,0.11428639403113955
11.77971175166297,0.15860647080335397
11.813082039911308,0.20459964881786105
11.846452328159646,0.22949885771741702
11.879822616407983,0.21544310245693715
11.91319290465632,0.15556264275255863
11.946563192904657,0.05649126389843008
11.979933481152994,-0.06350167880970693
12.01330376940133,-0.1800345950930619
12.046674057649668,-0.2697072128038945
12.080044345898004,-0.3161750079071544
12.113414634146341,-0.3132908522755443
12.146784922394678,-0.2648778131993692
12.180155210643015,-0.18208517541159008
12.213525498891352,-0.07982730582472491
12.24689578713969,0.026546148015290948
12.280266075388028,0.12387586587147036
12.313636363636364,0.20302457672186927
12.347006651884701,0.25978731095637897
12.380376940133038,0.2946456586806821
12.413747228381375,0.3113253411790055
12.447117516629712,0.31459139167016176
12.480487804878049,0.3081026624896351
12.513858093126386,0.293120327799111
12.547228381374723,0.2684503525514881
12.58059866962306,0.23151154687321515
12.613968957871396,0.18012450440457264
12.647339246119735,0.11449629584782509
12.680709534368072,0.03874501702785188
12.714079822616409,-0.03886298787861854
12.747450110864746,-0.10771307181795536
12.780820399113082,-0.15873594191045284
12.81419068736142,-0.18917128229844196
12.847560975609756,-0.2057776173029972
12.880931263858093,-0.22393270123223957
12.91430155210643,-0.2615873819899748
12.947671840354767,-0.3297854953307296
12.981042128603104,-0.42403763931249444
13.014412416851442,-0.5215567458323126
13.04778270509978,-0.5873082840605948
13.081152993348116,-0.5875969332495365
13.114523281596453,-0.5055688453069974
13.14789356984479,-0.3510808513564337
13.181263858093127,-0.15936759788004345
13.214634146341464,0.02181345796144292
13.2480044345898,0.15101711969399215
13.281374722838137,0.20915296437358605
13.314745011086474,0.20525887030788342
13.348115299334811,0.16970307785306715
13.381485587583148,0.13873157337833286
13.414855875831487,0.13821041831902525
13.448226164079824,0.17414046016684803
13.48159645232816,0.2335121437130144
13.514966740576497,0.2937207975934167
13.548337028824834,0.33493113643242656
13.581707317073171,0.34919664062179256
13.615077605321508,0.34262460551317064
13.648447893569845,0.330686249791789
13.681818181818182,0.3297761481501606
13.715188470066519,0.34906027659395095
13.748558758314855,0.38565507904953844
13.781929046563192,0.42436763967345814
13.815299334811531,0.44170847407515884
13.848669623059868,0.41301528229862317
13.882039911308205,0.3209449506098326
13.915410199556542,0.16295577393037627
13.948780487804878,-0.0450041384553943
13.982150776053215,-0.27078814526655015
14.015521064301552,-0.47447671897331545
14.048891352549889,-0.6202872292056464
14.082261640798226,-0.6873268755312333
14.115631929046563,-0.6747966656198979
14.1490022172949,-0.5998406825746908
14.182372505543238,-0.48970399538920234
14.215742793791575,-0.3721776973953629
14.249113082039912,-0.26826872991730705
14.282483370288249,-0.18902959467581876
14.315853658536586,-0.13607800330539938
14.349223946784923,-0.10404036407651908
14.38259423503326,-0.08339877419261413
14.415964523281596,-0.06325257452325357
14.449334811529933,-0.03416459190469219
14.48270509977827,0.009018280357784078
14.516075388026607,0.06526994903751207
14.549445676274944,0.12764292041380695
14.582815964523283,0.1861589527203752
14.61618625277162,0.2323073518351225
14.649556541019956,0.26290421510715706
14.682926829268293,0.2811047408586359
14.71629711751663,0.29383217745449186
14.749667405764967,0.30698835294572074
14.783037694013304,0.32124513145210076
14.81640798226164,0.33100995109621995
14.849778270509978,0.3273219852228372
14.883148558758315,0.303037173137683
14.916518847006651,0.25720156773547576
14.949889135254988,0.19595189681601763
14.983259423503327,0.12937252632259247
15.016629711751664,0.06617013584014603
15.05,0.009301711313980833
15.083370288248338,-0.044911811615647966
15.116740576496674,-0.1036836339854667
15.150110864745011,-0.17239408971222053
15.183481152993348,-0.2498955155697693
15.216851441241685,-0.3270823512215547
15.250221729490022,-0.3896954414172548
15.283592017738359,-0.42425772346405577
15.316962305986696,-0.42446915563809906
15.350332594235034,-0.3949981949949972
15.383702882483371,-0.3505743410922694
15.417073170731708,-0.3102557690791878
15.450443458980045,-0.28894929577624884
15.483813747228382,-0.28976258818894945
15.517184035476719,-0.30081107848869787
15.550554323725056,-0.2984570335756097
15.583924611973393,-0.2561595800366993
15.61729490022173,-0.15538330131542313
15.650665188470066,0.006220760876811885
15.684035476718403,0.2130165302062756
15.71740576496674,0.4364926790738721
15.750776053215079,0.6443328107775873
15.784146341463416,0.8087667461563651
15.817516629711752,0.9106700690752966
15.85088691796009,0.9391304614741861
15.884257206208426,0.8892470058037953
15.917627494456763,0.7615664252113339
15.9509977827051,0.5643904198905569
15.984368070953437,0.31697895788975117
16.017738359201775,0.04999673946606591
16.05110864745011,-0.199231718688087
16.08447893569845,-0.3958426959809454
16.117849223946784,-0.517165208624906
16.151219512195123,-0.5586378937275898
16.184589800443458,-0.5333897675476407
16.217960088691797,-0.46606702447666193
16.251330376940132,-0.383927514856509
16.28470066518847,-0.30886725177159563
16.31807095343681,-0.2529602717353374
16.351441241685144,-0.2181992284548254
16.384811529933483,-0.1994476123637348
16.418181818181818,-0.1887527422213583
16.451552106430157,-0.1791832576269037
16.48492239467849,-0.16698011248765235
16.51829268292683,-0.15169571648531077
16.551662971175165,-0.13482729881369696
16.585033259423504,-0.11797405896356554
16.61840354767184,-0.10158875513349834
16.651773835920178,-0.08491650802647838
16.685144124168513,-0.06690122375301796
16.71851441241685,-0.047120952470106066
16.75188470066519,-0.025699880177433104
16.785254988913525,-0.0018808841340032835
16.818625277161864,0.027814052356458625
16.8519955654102,0.070030433907706
16.885365853658538,0.13217124878141762
16.918736141906873,0.21735222845693866
16.95210643015521,0.3190758305522032
16.985476718403547,0.4190997414074299
17.018847006651885,0.4910518785920389
17.05221729490022,0.5095503195282016
17.08558758314856,0.4613354930182198
17.118957871396898,0.35308102254709683
17.152328159645233,0.21136577299546686
17.18569844789357,0.07365385621394276
17.219068736141907,-0.026448647246542174
