Frequency (Hz),Amplitude
0.0,2.716523938047996
0.04,2.717399321314291
0.08,2.72002037590101
0.12,2.7243718784012834
0.16,2.7304286620811307
0.19999999999999998,2.7381559190205413
0.24,2.747509610911461
0.27999999999999997,2.758436977100656
0.32,2.7708771262551815
0.36,2.7847616964845585
0.39999999999999997,2.8000155679084213
0.44,2.8165576114946242
0.48,2.8343014584522344
0.52,2.8531562754553503
0.5599999999999999,2.873027532385298
0.6,2.893817750988611
0.64,2.9154272247352315
0.6799999999999999,2.9377547021137826
0.72,2.960698027522238
0.76,2.984154735725498
0.7999999999999999,3.0080225974993886
0.84,3.0322001155261042
0.88,3.0565869708300526
0.9199999999999999,3.0810844210407557
0.96,3.105595652548766
1.0,3.130026089197158
1.04,3.154283660546974
1.0799999999999998,3.178279032994476
1.1199999999999999,3.2019258071268872
1.1600000000000001,3.225140684706425
1.2,3.2478436085931017
1.24,3.2699578787758434
1.28,3.2914102474971476
1.3199999999999998,3.3121309962438503
1.3599999999999999,3.3320539971483405
1.4,3.3511167611103962
1.44,3.369260474717588
1.48,3.3864300278173984
1.52,3.4025740333808128
1.5599999999999998,3.417644841097885
1.5999999999999999,3.4315985459619154
1.64,3.444394992931254
1.68,3.455997778606119
1.72,3.4663742507218585
1.76,3.475495506138617
1.7999999999999998,3.483336387899625
1.8399999999999999,3.4898754818346878
1.88,3.495095113100671
1.92,3.4989813429755587
1.9599999999999997,3.5015239661552275
2.0,3.5027165087413525
2.0399999999999996,3.502556227053166
2.08,3.501044107343795
2.12,3.498184866452329
2.1599999999999997,3.493986953373967
2.2,3.4884625516815855
2.2399999999999998,3.481627582681082
2.28,3.473501709128807
2.3200000000000003,3.4641083392807923
2.36,3.4534746309788344
2.4,3.4416314954065808
2.44,3.4286136000679703
2.48,3.414459370449318
2.5199999999999996,3.3992109897238
2.56,3.3829143957415413
2.6,3.365619274418895
2.6399999999999997,3.3473790484959443
2.68,3.328250860470972
2.7199999999999998,3.308295548344429
2.76,3.2875776126134393
2.8,3.266165172751779
2.84,3.2441299111923194
2.88,3.2215470026020725
2.92,3.1984950260095033
2.96,3.1750558571163463
2.9999999999999996,3.1513145379108267
3.04,3.1273591205072315
3.08,3.10328048198233
3.1199999999999997,3.07917210687892
3.16,3.055129834020325
3.1999999999999997,3.031251564349013
3.2399999999999998,3.007636926691581
3.28,2.984386898686027
3.32,2.9616033806102138
3.36,2.939388720544867
3.4,2.917845190208611
3.44,2.897074411926414
3.4799999999999995,2.877176738537167
3.52,2.8582505895971853
3.5599999999999996,2.840391748964712
3.5999999999999996,2.8236926307073227
3.64,2.8082415221915396
3.6799999999999997,2.794121815104118
3.7199999999999998,2.781411236913777
3.76,2.770181096794653
3.7999999999999994,2.7604955611791917
3.84,2.752410974774053
3.88,2.745975242960184
3.9199999999999995,2.741227290936906
3.96,2.7381966137265223
4.0,2.7369029292425617
4.04,2.73735594410141
4.079999999999999,2.7395552388312545
4.12,2.7434902757522677
4.16,2.7491405292456172
4.199999999999999,2.756475734589265
4.24,2.765456248207027
4.28,2.776033509227679
4.319999999999999,2.7881505898246823
4.36,2.8017428200038257
4.4,2.816738471377428
4.4399999999999995,2.8330594840132557
4.4799999999999995,2.8506222206339173
4.5200000000000005,2.8693382331922823
4.56,2.8891150280590683
4.6,2.9098568176146253
4.640000000000001,2.9314652478188448
4.68,2.953840093227341
4.72,2.976879912827485
4.76,3.000482661900484
4.8,3.0245462568109
4.84,3.0489690911377267
4.88,3.073650502864814
4.92,3.09849119343204
4.96,3.1233936003145955
5.0,3.1482622254576977
5.039999999999999,3.1730039223667976
5.08,3.197528144961782
5.12,3.2217471614720283
5.159999999999999,3.245576236702614
5.2,3.268933785963618
5.24,3.291741503846063
5.279999999999999,3.313924470868419
5.319999999999999,3.3354112408230825
5.36,3.356133911436275
5.3999999999999995,3.3760281807283476
5.4399999999999995,3.3950333912329596
5.48,3.4130925640096503
5.52,3.4301524241694885
5.56,3.446163419430966
5.6,3.461079733035233
5.64,3.474859292177009
5.68,3.4874637729503664
5.72,3.4988586026670028
5.76,3.5090129602775115
5.8,3.5178997755129022
5.84,3.5254957272628804
5.879999999999999,3.5317812416178143
5.92,3.5367404899216375
5.96,3.5403613871116533
5.999999999999999,3.542635590556968
6.04,3.543558499548651
6.08,3.543129255540264
6.119999999999999,3.5413507431858458
6.16,3.5382295921723426
6.2,3.5337761797935094
6.239999999999999,3.5280046341611206
6.279999999999999,3.520932837895632
6.32,3.512582432080826
6.359999999999999,3.5029788202040395
6.3999999999999995,3.4921511717341223
6.44,3.48013242491176
6.4799999999999995,3.4669592882399334
6.52,3.45267224006485
6.56,3.4373155255282595
6.6,3.420937150049739
6.64,3.403588868361235
6.68,3.385326167965367
6.72,3.3662082457233624
6.76,3.3462979760984655
6.8,3.3256618693871247
6.84,3.304370018065151
6.88,3.2824960291624494
6.92,3.260116940362191
6.959999999999999,3.237313117304589
7.0,3.214168129369684
7.04,3.1907686010280005
7.08,3.1672040356951503
7.119999999999999,3.1435666089215606
7.16,3.1199509277091764
7.199999999999999,3.096453752793026
7.239999999999999,3.07317368087914
7.28,3.0502107841140123
7.32,3.027666204497884
7.359999999999999,3.0056417015657613
7.3999999999999995,2.984239152464114
7.4399999999999995,2.96356000455912
7.4799999999999995,2.9437046819273442
7.52,2.924771948492885
7.5600000000000005,2.9068582321634553
7.599999999999999,2.890056916041671
7.64,2.8744576045897103
7.68,2.8601453744295697
7.719999999999999,2.847200021176004
7.76,2.835695315220731
7.800000000000001,2.825698280604563
7.839999999999999,2.8172685119201804
7.88,2.810457544485359
7.92,2.8053082927387214
7.959999999999999,2.8018545708927203
8.0,2.80012070832575
8.040000000000001,2.800121270044366
8.08,2.801860889879193
8.12,2.8053342210165146
8.159999999999998,2.810526005165055
8.2,2.817411258288634
8.24,2.825955567578899
8.28,2.8361154913683597
8.32,2.8478390511385103
8.36,2.8610663027729273
8.399999999999999,2.875729972810414
8.44,2.8917561446946607
8.48,2.9090649798773667
8.52,2.927571459057956
8.56,2.947186129752813
8.6,2.967815847679915
8.639999999999999,2.9893645010115426
8.68,3.0117337082799263
8.72,3.034823482517563
8.76,3.058532855988228
8.8,3.0827604615461497
8.84,3.107405068196668
8.879999999999999,3.1323660697869258
8.92,3.15754392691105
8.959999999999999,3.18284056306488
9.0,3.208159716836453
9.040000000000001,3.233407252482928
9.079999999999998,3.258491431641466
9.12,3.283323149172078
9.16,3.307816136257597
9.2,3.3318871339121365
9.24,3.355456039995832
9.280000000000001,3.3784460327195647
9.32,3.400783673465445
9.36,3.4223989915615283
9.399999999999999,3.4432255534442855
9.44,3.4632005184293013
9.48,3.48226468309706
9.52,3.5003625160918896
9.559999999999999,3.5174421849324315
9.6,3.533455576243913
9.639999999999999,3.5483583106478114
9.68,3.562109753384012
9.72,3.5746730215943563
9.76,3.5860149890643824
9.8,3.596106289101229
9.84,3.604921316119294
9.879999999999999,3.6124382264100356
9.92,3.618638938487235
9.959999999999999,3.62350913332261
10.0,3.62703825471763
10.04,3.629219509994535
10.079999999999998,3.6300498711311393
10.12,3.6295300764093303
10.16,3.627664632594218
10.2,3.624461817608968
10.24,3.619933683617708
10.280000000000001,3.614096060374609
10.319999999999999,3.606968558639675
10.36,3.598574573399992
10.4,3.5889412865676142
10.44,3.5780996687508275
10.48,3.5660844796128854
10.52,3.5529342662403844
10.559999999999999,3.5386913588408504
10.6,3.523401862975304
10.639999999999999,3.507115647405237
10.68,3.4898863264944393
10.72,3.471771235954052
10.76,3.452831400554432
10.799999999999999,3.433131492250865
10.84,3.4127397769834884
10.879999999999999,3.3917280482177667
10.92,3.3701715450943164
10.96,3.3481488528612338
11.0,3.325741783075202
11.04,3.303035230888609
11.08,3.280117006599356
11.12,3.257077638541383
11.16,3.234010144352214
11.2,3.2110097676863996
11.24,3.188173677569761
11.28,3.165600627828458
11.319999999999999,3.1433905743997164
11.36,3.121644248856269
11.4,3.100462687170522
11.44,3.079946713618739
11.48,3.060196380784317
11.52,3.041310367857839
11.559999999999999,3.0233853408329607
11.6,3.006515279730809
11.64,2.9907907796056428
11.68,2.976298333729537
11.72,2.963119608948035
11.759999999999998,2.9513307246541616
11.799999999999999,2.9410015480497975
11.84,2.9321950192548196
11.879999999999999,2.924966520295753
11.92,2.9193633019818326
11.96,2.9154239821057004
11.999999999999998,2.9131781272672344
12.04,2.9126459289270743
12.08,2.9138379821040394
12.12,2.9167551725274956
12.16,2.9213886751628944
12.200000000000001,2.927720063990103
12.239999999999998,2.9357215298854857
12.28,2.94535620059449
12.32,2.956578554223065
12.36,2.9693349155404287
12.4,2.98356402275707
12.44,2.9991976513677163
12.479999999999999,3.0161612811390026
12.52,3.0343747923502544
12.559999999999999,3.0537531779080194
12.6,3.074207258873961
12.64,3.09564439218089
12.68,3.117969160767433
12.719999999999999,3.1410840379443994
12.76,3.1648900194299454
12.799999999999999,3.1892872180826517
12.84,3.214175417862916
12.88,3.2394545849203515
12.92,3.2650253349094553
12.959999999999999,3.2907893566628075
12.999999999999998,3.316649793196587
13.04,3.342511581692448
13.08,3.368281754604835
13.12,3.3938697043996333
13.16,3.4191874146578476
13.2,3.4441496603962
13.239999999999998,3.4686741804849044
13.28,3.4926818249997824
13.32,3.5160966802480504
13.36,3.538846174069265
13.4,3.5608611638477474
13.44,3.5820760094906863
13.479999999999999,3.6024286334357414
13.52,3.621860569559779
13.559999999999999,3.6403170026717118
13.6,3.657746800090777
13.64,3.6741025366397544
13.68,3.689340514221946
13.719999999999999,3.703420777002358
13.76,3.7163071230774793
13.799999999999999,3.7279671133942043
13.84,3.7383720785663215
13.88,3.747497124135691
13.919999999999998,3.755321134733827
13.959999999999999,3.7618267775170477
14.0,3.7670005051734057
14.04,3.770832558731112
14.08,3.7733169703349465
14.120000000000001,3.774451566097801
14.16,3.7742379690780408
14.2,3.772681602378367
14.239999999999998,3.769791692307195
14.28,3.765581271488097
14.32,3.760067181745193
14.36,3.753270076531633
14.399999999999999,3.745214422602965
14.44,3.7359285005664917
14.479999999999999,3.725444403860195
14.52,3.7137980356296403
14.56,3.701029102877478
14.6,3.6871811071567016
14.64,3.672301330965253
14.68,3.6564408188753497
14.719999999999999,3.6396543522957368
14.76,3.6220004166195885
14.799999999999999,3.6035411593554216
14.84,3.5843423376747885
14.879999999999999,3.564473253641019
14.919999999999998,3.544006675210929
14.959999999999999,3.5230187409308744
15.0,3.5015888460853435
15.04,3.479799507908003
15.079999999999998,3.457736207340311
15.120000000000001,3.4354872047326186
15.159999999999998,3.413143326839181
15.199999999999998,3.390797722475921
15.24,3.368545584303886
15.28,3.346483834388035
15.319999999999999,3.3247107714776867
15.36,3.3033256783771505
15.399999999999999,3.282428388337349
15.439999999999998,3.26211881011215
15.48,3.242496412192485
15.52,3.2236596677557925
15.559999999999999,3.205705463037683
15.600000000000001,3.1887284731262664
15.639999999999999,3.172820510564556
15.679999999999998,3.158069853577657
15.72,3.144560562161469
15.76,3.132371791610376
15.799999999999999,3.121577114246442
15.84,3.1122438610624394
15.879999999999999,3.1044324956271874
15.919999999999998,3.0981960328541316
15.96,3.093579515047703
16.0,3.090619556982029
16.04,3.089343970625779
16.080000000000002,3.089771478526684
16.12,3.091911522862543
16.16,3.0957641748332834
16.200000000000003,3.1013201465164344
16.24,3.1085609046573373
16.279999999999998,3.117458883245223
16.319999999999997,3.1279777892628666
16.36,3.140072993805776
16.4,3.1536919989400882
16.439999999999998,3.1687749692743123
16.48,3.185255316295807
16.52,3.2030603230756265
16.56,3.222111796953938
16.6,3.2423267382378858
16.64,3.2636180137118544
16.68,3.28589502480274
16.72,3.309064361481531
16.759999999999998,3.333030434339523
16.799999999999997,3.3576960786814958
16.84,3.3829631258666453
16.88,3.4087329384502145
16.919999999999998,3.4349069068960874
16.96,3.461386906716474
17.0,3.488075715833987
17.04,3.5148773927478567
17.080000000000002,3.5416976167220815
17.12,3.5684439917064763
17.16,3.595026316064516
17.2,3.6213568204286517
17.24,3.647350376151085
17.279999999999998,3.672924676881397
17.32,3.6980003957979637
17.36,3.72250132096199
17.4,3.7463544711643273
17.44,3.7694901945073176
17.48,3.79184225181633
17.52,3.813347886816396
17.56,3.8339478848447976
17.6,3.8535866217057593
17.64,3.8722121041121267
17.68,3.889776003004101
17.72,3.9062336808884
17.759999999999998,3.9215442142039354
17.799999999999997,3.9356704115926977
17.84,3.9485788288372587
17.88,3.9602397811187853
17.919999999999998,3.9706273531512704
17.96,3.9797194076580973
18.0,3.987497592575265
18.04,3.9939473472905114
18.080000000000002,3.999057908158483
18.12,4.002822313467572
18.159999999999997,4.005237407973382
18.2,4.0063038470556505
18.24,4.006026100498939
18.279999999999998,4.004412455841325
18.32,4.001475021178744
18.36,3.997229727254373
18.4,3.991696328601644
18.44,3.9848984034449337
18.48,3.9768633519930146
18.52,3.9676223926857426
18.560000000000002,3.957210555873667
18.6,3.9456666743223296
18.64,3.9330333698374913
18.679999999999996,3.9193570352039098
18.72,3.904687810518436
18.759999999999998,3.8890795528781568
18.799999999999997,3.8725897982566826
18.84,3.8552797142673505
18.88,3.8372140423725902
18.919999999999998,3.8184610279564843
18.96,3.7990923365353537
19.0,3.7791829542434043
19.04,3.758811070602006
19.080000000000002,3.7380579414683535
19.119999999999997,3.717007729969846
19.159999999999997,3.695747323173133
19.2,3.674366122221903
19.24,3.652955803716215
19.279999999999998,3.6316100502109285
19.32,3.6104242478942212
19.36,3.589495149782209
19.4,3.5689205031441564
19.44,3.5487986403650154
19.48,3.529228033065664
19.52,3.5103068100393915
19.560000000000002,3.492132240424137
19.6,3.474800184504621
19.639999999999997,3.4584045156104666
19.68,3.4430365177195097
19.72,3.428784264555545
19.759999999999998,3.415731987142065
19.8,3.403959437886894
19.84,3.3935412602684605
19.88,3.3845463740123294
19.919999999999998,3.377037386225587
19.96,3.3710700392421407
20.0,3.366692705878157
20.04,3.363945942373152
20.08,3.362862108486479
20.119999999999997,3.3634650630399268
20.159999999999997,3.3657699416769455
20.2,3.3697830218010423
20.24,3.3755016776333204
20.279999999999998,3.3829144261796507
20.32,3.392001062718357
20.36,3.402732882307925
20.4,3.4150729818648724
20.44,3.428976635656137
20.48,3.444391735653281
20.52,3.461259287151688
20.560000000000002,3.4795139493886715
20.599999999999998,3.499084610600225
20.639999999999997,3.519894987016599
20.68,3.541864235675571
20.72,3.564907571579913
20.759999999999998,3.588936880585522
20.8,3.613861320419045
20.84,3.6395879033299017
20.88,3.6660220550267173
20.92,3.6930681456847805
20.96,3.720629989899792
21.0,3.748611313473331
21.04,3.7769161858257787
21.08,3.8054494176295335
21.119999999999997,3.834116923933161
21.159999999999997,3.86282605360585
21.2,3.891485886375763
21.24,3.9200074990739395
21.279999999999998,3.9483042029376363
21.32,3.9762917539853793
21.36,4.003888538562549
21.4,4.031015736183287
21.44,4.057597461773108
21.48,4.083560889357497
21.52,4.108836359154008
21.56,4.133357469917289
21.599999999999998,4.1570611582646615
21.639999999999997,4.179887766580158
21.68,4.201781100961822
21.72,4.222688480544081
21.759999999999998,4.242560779396939
21.8,4.261352462078522
21.84,4.279021613798376
21.88,4.295529966037
21.92,4.310842918362275
21.96,4.324929557086429
22.0,4.337762671317123
22.04,4.349318766873251
22.08,4.35957807845923
22.119999999999997,4.3685245804204955
22.16,4.37614599633656
22.2,4.3824338076459375
22.24,4.387383261438258
22.28,4.390993377492366
22.32,4.393266954584213
22.36,4.394210576033992
22.4,4.393834614407374
22.44,4.392153235230142
22.48,4.389184399518008
22.519999999999996,4.384949864863216
22.56,4.379475184756016
22.599999999999998,4.372789705751316
22.639999999999997,4.364926562018439
22.68,4.355922666734067
22.72,4.345818699695101
22.759999999999998,4.334659090438729
22.8,4.322491996061556
22.84,4.309369272828529
22.88,4.295346440555732
22.92,4.28048263864034
22.96,4.264840572496839
23.0,4.248486449043443
23.04,4.231489899768561
23.08,4.213923889797538
23.119999999999997,4.1958646112787426
23.16,4.17739135931986
23.2,4.158586388636164
23.24,4.139534749028701
23.28,4.120324097799533
23.32,4.101044487241457
23.36,4.0817881254199815
23.400000000000002,4.062649108604861
23.44,4.04372312391638
23.479999999999997,4.02510712103653
23.519999999999996,4.00689895220475
23.56,3.9891969801776628
23.599999999999998,3.9720996543854663
23.639999999999997,3.9557050561637066
23.68,3.9401104146732937
23.72,3.9254115959339297
23.759999999999998,3.911702568270415
23.8,3.8990748483858106
23.84,3.887616933201548
23.88,3.877413723508203
23.92,3.868545946312718
23.96,3.8610895835061814
23.999999999999996,3.8551153150672204
24.04,3.850687985417979
24.08,3.8478661017247866
24.119999999999997,3.8467013728541835
24.16,3.847238297337244
24.2,3.84951380805456
24.24,3.8535569804384955
24.28,3.859388809821481
24.32,3.867022062176909
24.36,3.8764612009533086
24.400000000000002,3.887702391053655
24.439999999999998,3.9007335793272673
24.479999999999997,3.9155346492907666
24.52,3.9320776462440215
24.56,3.9503270675566964
24.599999999999998,3.9702402117207027
24.64,3.991767578830334
24.68,4.014853314486937
24.72,4.039435688736157
24.759999999999998,4.065447601526053
24.8,4.092817106304565
24.84,4.121467943725781
24.88,4.151320077970025
24.92,4.182290228862884
24.959999999999997,4.214292393761066
24.999999999999996,4.247238354018434
25.04,4.281038161716315
25.08,4.315600603205769
25.119999999999997,4.350833636838973
25.16,4.386644803040951
25.2,4.422941605576419
25.24,4.459631863489734
25.28,4.496624033733669
25.32,4.533827504954541
25.36,4.571152863269034
25.4,4.608512131157345
25.439999999999998,4.645818980814326
25.479999999999997,4.682988923452992
25.52,4.719939476151428
25.56,4.756590307883053
25.599999999999998,4.792863366379455
25.64,4.828682987452129
25.68,4.863975988351549
25.72,4.89867174667482
25.76,4.932702266252425
25.8,4.966002231354614
25.84,4.998509050462632
25.880000000000003,5.030162890752318
25.919999999999998,5.060906704340201
25.959999999999997,5.090686247246814
25.999999999999996,5.119450091940132
26.04,5.147149634234775
26.08,5.173739095240567
26.119999999999997,5.199175518977762
26.16,5.223418766205711
26.2,5.246431504947244
26.24,5.268179198132202
26.28,5.28863008873039
26.32,5.307755182696306
26.36,5.325528230005098
26.4,5.341925704020853
26.439999999999998,5.3569267794043105
26.479999999999997,5.370513308736886
26.52,5.382669798011187
26.56,5.393383381114684
26.599999999999998,5.402643793412412
26.64,5.410443344516337
26.68,5.416776890312827
26.72,5.421641804305412
26.76,5.4250379483173585
26.8,5.426967642587229
26.84,5.427435635280328
26.88,5.426449071429629
26.919999999999998,5.424017461311099
26.959999999999997,5.420152648250216
27.0,5.4148687758485625
27.04,5.408182254611869
27.08,5.400111727953114
27.119999999999997,5.390678037536638
27.16,5.379904187921298
27.2,5.367815310452207
27.24,5.354438626342038
27.28,5.339803408873373
27.32,5.323940944643737
27.36,5.306884493764204
27.4,5.288669248911087
27.439999999999998,5.269332293117988
27.479999999999997,5.248912556182366
27.52,5.227450769546924
27.56,5.204989419501388
27.599999999999998,5.181572698534694
27.64,5.1572464546514984
27.68,5.132058138450033
27.72,5.106056747741207
27.76,5.079292769471394
27.8,5.051818118693897
27.839999999999996,5.023686074317087
27.88,4.994951211340835
27.919999999999998,4.965669329277695
27.959999999999997,4.935897376441891
28.0,4.905693369777959
28.04,4.875116309892799
28.08,4.844226090950574
28.12,4.813083405090046
28.16,4.7817496410299185
28.2,4.750286776540005
28.240000000000002,4.718757264476054
28.28,4.6872239121045975
28.32,4.655749753482495
28.359999999999996,4.624397914704711
28.4,4.593231471894518
28.439999999999998,4.56231330188326
28.479999999999997,4.53170592561267
