Time (s),Filtered Signal
0.0,-0.07098151328048656
0.033370165745856356,-0.31295179173088156
0.06674033149171271,-0.4964149505686547
0.10011049723756907,-0.5842599711536492
0.13348066298342542,-0.5718094867475151
0.16685082872928178,-0.4849873905414735
0.20022099447513814,-0.3668068493532992
0.2335911602209945,-0.259086012587528
0.26696132596685085,-0.18758344699340632
0.30033149171270723,-0.1561411377356046
0.33370165745856356,-0.15071270172628873
0.3670718232044199,-0.14981809911371202
0.4004419889502763,-0.135860720999436
0.43381215469613266,-0.10237856597319246
0.467182320441989,-0.05490061314581173
0.5005524861878453,-0.006187485445398399
0.5339226519337017,0.031124024918583282
0.5672928176795581,0.05083227577931785
0.6006629834254145,0.0557633493511155
0.6340331491712707,0.055887829780502614
0.6674033149171271,0.0631968130976366
0.7007734806629835,0.08586581682705596
0.7341436464088398,0.12439134025281388
0.7675138121546962,0.171398437431228
0.8008839779005525,0.21511091689504913
0.8342541436464089,0.24477652566395147
0.8676243093922653,0.25542434466143166
0.9009944751381216,0.24967607450955212
0.934364640883978,0.23582308084706508
0.9677348066298344,0.22328928989089944
1.0011049723756906,0.21791789768752168
1.0344751381215471,0.21951587437659295
1.0678453038674034,0.22276556318504262
1.1012154696132597,0.22073631424667295
1.1345856353591162,0.2088831265294425
1.1679558011049724,0.1873312811702042
1.201325966850829,0.16036410407812862
1.2346961325966852,0.13362590632974292
1.2680662983425415,0.11072602693686823
1.301436464088398,0.09113386555931503
1.3348066298342542,0.07049523111379039
1.3681767955801105,0.0432177283384951
1.401546961325967,0.005981486769196691
1.4349171270718233,-0.039720790059585134
1.4682872928176796,-0.08753015651887432
1.501657458563536,-0.12896095349721562
1.5350276243093923,-0.15773795731330104
1.5683977900552488,-0.173521498631699
1.601767955801105,-0.18291463968250687
1.6351381215469614,-0.19693476864268497
1.6685082872928179,-0.22598048488743133
1.7018784530386741,-0.27471991507819876
1.7352486187845306,-0.3394536113995755
1.768618784530387,-0.40925724319825935
1.8019889502762432,-0.4702757167078166
1.8353591160220997,-0.5109940164804077
1.868729281767956,-0.5259621039621665
1.9020994475138122,-0.5164036511607096
1.9354696132596687,-0.4878003938524108
1.968839779005525,-0.4460277231941836
2.0022099447513813,-0.3942096971923173
2.0355801104972375,-0.3319253264015611
2.0689502762430942,-0.2570362103830967
2.1023204419889505,-0.16892154155762473
2.135690607734807,-0.0710868122240072
2.169060773480663,0.028576862351314666
2.2024309392265193,0.12030727299511927
2.235801104972376,0.19660169604944633
2.2691712707182323,0.25581137298650075
2.3025414364640886,0.303182780673828
2.335911602209945,0.34852451419635255
2.369281767955801,0.40133631485188925
2.402651933701658,0.4655599375708129
2.436022099447514,0.536477938216665
2.4693922651933704,0.6014966846956529
2.5027624309392267,0.6448977539438406
2.536132596685083,0.6548067441088918
2.5695027624309392,0.629415431887327
2.602872928176796,0.5794970118434575
2.636243093922652,0.5255834841750556
2.6696132596685085,0.4903680422266298
2.7029834254143648,0.4890817013178602
2.736353591160221,0.5218292090782851
2.7697237569060777,0.5715219225136752
2.803093922651934,0.6090712956847045
2.8364640883977903,0.6045290220346182
2.8698342541436466,0.5400102980577923
2.903204419889503,0.4187806358687617
2.936574585635359,0.26572301677315363
2.969944751381216,0.11760608100393719
3.003314917127072,0.006175905410156719
3.0366850828729284,-0.05876649526153333
3.0700552486187846,-0.09762463700371952
3.103425414364641,-0.1545322990307046
3.1367955801104976,-0.2765892186990387
3.170165745856354,-0.48722090628820586
3.20353591160221,-0.7674372040686603
3.2369060773480665,-1.0577129886702459
3.2702762430939227,-1.2845740730542503
3.3036464088397794,-1.4026588781099747
3.3370165745856357,-1.4314696740147086
3.370386740331492,-1.463350740151248
3.4037569060773483,-1.6293056332015177
3.4371270718232045,-2.0296328376576738
3.4704972375690613,-2.6580450023437137
3.5038674033149175,-3.359023123069243
3.537237569060774,-3.8499615855920704
3.57060773480663,-3.8125167056699807
3.6039779005524863,-3.022642388050039
3.6373480662983426,-1.4638468571654033
3.6707182320441993,0.6315290120631148
3.7040883977900556,2.8394768698465587
3.737458563535912,4.681675538186334
3.770828729281768,5.786715149170872
3.8041988950276244,6.007602158716535
3.837569060773481,5.449214027992489
3.8709392265193374,4.401310590694914
3.9043093922651937,3.213453741361523
3.93767955801105,2.1685283692205624
3.9710497237569062,1.404545577851083
4.0044198895027625,0.9069838070410668
4.037790055248619,0.561310460263855
4.071160220994475,0.23254738705962588
4.104530386740332,-0.16611109770505997
4.1379005524861885,-0.6416755076126919
4.171270718232044,-1.1321777188135513
4.204640883977901,-1.5464505724316355
4.238011049723757,-1.8098654043985238
4.271381215469614,-1.8951260038214022
4.30475138121547,-1.8277717377660472
4.338121546961326,-1.6688533240110792
4.371491712707183,-1.4863987984636051
4.404861878453039,-1.3296653258426965
4.438232044198895,-1.2161947588199287
4.471602209944752,-1.1343549176780199
4.504972375690608,-1.0570971303656875
4.538342541436465,-0.9588777451287168
4.5717127071823205,-0.8279893437147373
4.605082872928177,-0.6700031101269286
4.638453038674034,-0.5026213051193897
4.67182320441989,-0.34587516100228777
4.7051933701657465,-0.2129286404434837
4.738563535911602,-0.10557290968341587
4.771933701657459,-0.015702448581899335
4.805303867403316,0.06888545947358166
4.8386740331491715,0.15777304169447123
4.872044198895028,0.25358358483798155
4.905414364640884,0.3516533149208543
4.938784530386741,0.44313566808099764
4.972154696132597,0.5193733417103056
5.005524861878453,0.5751263639666249
5.03889502762431,0.6092909815784884
5.072265193370166,0.6233723665958302
5.105635359116023,0.6192284700979186
5.1390055248618784,0.5978064499038478
5.172375690607735,0.5597084540614812
5.205745856353592,0.5070512977245804
5.239116022099448,0.4450982109659024
5.272486187845304,0.3821587967363061
5.30585635359116,0.3272722904814883
5.339226519337017,0.2865987725478656
5.372596685082874,0.2603974800015107
5.4059668508287295,0.24238329101043837
5.439337016574586,0.2221243783076234
5.472707182320442,0.1895670362151087
5.506077348066299,0.13960422890557733
5.5394475138121555,0.07449466154139915
5.572817679558011,0.002971832922047698
5.606187845303868,-0.06348552894147776
5.639558011049724,-0.11539049277015613
5.672928176795581,-0.14878129503165893
5.706298342541437,-0.16608545587781592
5.739668508287293,-0.17424401198757236
5.77303867403315,-0.18128278009988058
5.806408839779006,-0.19301400175680386
5.839779005524862,-0.21116095033631305
5.873149171270718,-0.23329471770851282
5.906519337016575,-0.2541377032216171
5.939889502762432,-0.2674340225361477
5.9732596685082875,-0.26774104332544635
6.006629834254144,-0.25186583690736114
6.04,-0.21990474869410193
6.073370165745857,-0.17579526010931343
6.1067403314917135,-0.12709395064674947
6.140110497237569,-0.08364233558223748
6.173480662983426,-0.05507504609334659
6.206850828729282,-0.04770020132471357
6.240220994475139,-0.061828379047497266
6.273591160220995,-0.09077454909096196
6.306961325966851,-0.12231274398653327
6.340331491712708,-0.14243551058710963
6.373701657458564,-0.14023372406082976
6.40707182320442,-0.11204413733347182
6.440441988950277,-0.0630842428620151
6.473812154696133,-0.005689663249742457
6.50718232044199,0.04531367813985027
6.5405524861878455,0.07825131594122323
6.573922651933702,0.08885431596777565
6.607292817679559,0.08129430219417523
6.640662983425415,0.06564189300925413
6.674033149171271,0.05305231046311961
6.707403314917127,0.050994435115196336
6.740773480662984,0.06070185456396976
6.774143646408841,0.0778298144588989
6.8075138121546965,0.09567648916650182
6.840883977900553,0.10910031828274085
6.874254143646409,0.1170460558970927
6.907624309392266,0.12245842107210643
6.9409944751381225,0.12982578716099571
6.974364640883978,0.14186711340130986
7.007734806629835,0.15728425967923904
7.041104972375691,0.17085517481692147
7.074475138121548,0.17581811830084726
7.107845303867403,0.1672292064330775
7.14121546961326,0.1444587600969034
7.174585635359117,0.11149910121858336
7.207955801104973,0.07498766668528126
7.241325966850829,0.0410974725783194
7.274696132596685,0.013003743081851338
7.308066298342542,-0.009792524168705607
7.341436464088399,-0.030125961102193944
7.3748066298342545,-0.0507874094460069
7.408176795580111,-0.07256480209373643
7.441546961325967,-0.09377165739660673
7.474917127071824,-0.11135616871072179
7.5082872928176805,-0.12274967158852006
7.541657458563536,-0.12726521913398228
7.575027624309393,-0.12624617530589913
7.608397790055249,-0.12199263601733033
7.641767955801106,-0.11623185016673737
7.675138121546962,-0.1091220189990099
7.708508287292818,-0.09939854464193384
7.741878453038675,-0.08555119772697184
7.775248618784531,-0.06729204014204075
7.808618784530387,-0.04638795957477358
7.841988950276244,-0.026280178423420838
7.8753591160221,-0.010601355940431543
7.908729281767957,-0.0013588202403952703
7.9420994475138125,0.0021821852878392755
7.975469613259669,0.003185543705592744
8.008839779005525,0.005531631417355459
8.042209944751383,0.011565190762865588
8.075580110497238,0.02057998752430614
8.108950276243094,0.02901053810814346
8.14232044198895,0.03237152785193676
8.175690607734808,0.027941415041910955
8.209060773480664,0.016667289864142943
8.24243093922652,0.0031315431456075344
8.275801104972377,-0.006512180829555513
8.309171270718233,-0.007578957008452428
8.342541436464089,0.0007391963777691643
8.375911602209946,0.01485745291150559
8.409281767955802,0.02842017679194621
8.442651933701658,0.035215087453636044
8.476022099447514,0.03194408831151356
8.509392265193371,0.019576249786608997
8.542762430939227,0.0027615576728202366
8.576132596685083,-0.012291392117923143
8.60950276243094,-0.020416487345076312
8.642872928176796,-0.01939322569866119
8.676243093922652,-0.010390362476712708
8.709613259668508,0.003092654729392292
8.742983425414366,0.017150422414945514
8.776353591160222,0.02928858559461939
8.809723756906077,0.03929012794190158
8.843093922651935,0.048794218282814876
8.87646408839779,0.059876284364817726
8.909834254143647,0.07337512361991569
8.943204419889504,0.08781296012267022
8.97657458563536,0.09947420631382976
9.009944751381216,0.10368120208167958
9.043314917127072,0.09675585643360365
9.07668508287293,0.07781502028467255
9.110055248618785,0.049563130660151854
9.143425414364641,0.017626441569450747
9.176795580110499,-0.01142095273123259
9.210165745856354,-0.032596783884239304
9.24353591160221,-0.04454554500982707
9.276906077348068,-0.0501057569777429
9.310276243093924,-0.05500423288514416
9.34364640883978,-0.06509597920678682
9.377016574585635,-0.08330682841959214
9.410386740331493,-0.1077064503180026
9.443756906077349,-0.1317370679878213
9.477127071823205,-0.14667390346655823
9.510497237569062,-0.1453292085959276
9.543867403314918,-0.12535930007906806
9.577237569060774,-0.09063746343764428
9.610607734806631,-0.04999453959383869
9.643977900552487,-0.013823678848013898
9.677348066298343,0.009964409658953958
9.710718232044199,0.018843318173912115
9.744088397790057,0.01618048806052761
9.777458563535912,0.00924809083865232
9.810828729281768,0.005803689918476728
9.844198895027626,0.010907049271887737
9.877569060773482,0.02535314145420685
9.910939226519337,0.04612533710231811
9.944309392265193,0.06820470815301463
9.97767955801105,0.08654245978125706
10.011049723756907,0.09726802236053472
10.044419889502763,0.09798341541975764
10.07779005524862,0.08767871814099677
10.111160220994476,0.06690453447720603
10.144530386740332,0.038331564709210834
10.17790055248619,0.007155598236481557
10.211270718232045,-0.01946477971958341
10.244640883977901,-0.03434003115423348
10.278011049723757,-0.033062862764285765
10.311381215469615,-0.01640367504443915
10.34475138121547,0.009166185383191713
10.378121546961326,0.033546621404212024
10.411491712707184,0.04708080875027907
10.44486187845304,0.044835127409083755
10.478232044198895,0.02894936072577895
10.511602209944753,0.007719294009648671
10.544972375690609,-0.008334703488957235
10.578342541436465,-0.011603192428740045
10.61171270718232,-0.0012320436983324836
10.645082872928178,0.016253411892752933
10.678453038674034,0.029928386148279744
10.71182320441989,0.029681273683829223
10.745193370165747,0.011187882982702853
10.778563535911603,-0.021732163610354127
10.811933701657459,-0.058522545990858106
10.845303867403315,-0.08642928459630454
10.878674033149172,-0.09606941375312782
10.912044198895028,-0.08545546718326644
10.945414364640884,-0.06064261692163078
10.978784530386742,-0.032760241416984186
11.012154696132598,-0.012880750947998402
11.045524861878453,-0.007161649560558847
11.078895027624311,-0.014505329184975602
11.112265193370167,-0.02771858778496838
11.145635359116023,-0.037450525905384925
11.179005524861878,-0.03688516759538017
11.212375690607736,-0.02488981534623083
11.245745856353592,-0.006171299649165025
11.279116022099448,0.01148700513498985
11.312486187845305,0.02140644122362242
11.345856353591161,0.02146128948160723
11.379226519337017,0.015061265492942628
11.412596685082875,0.009202921423884706
11.44596685082873,0.01061927319814794
11.479337016574586,0.02204085514378828
11.512707182320442,0.04054706625290534
11.5460773480663,0.058921211480816915
11.579447513812156,0.06934639524574357
11.612817679558011,0.0675071318757839
11.646187845303869,0.0548856016713829
11.679558011049725,0.037953888459429236
11.71292817679558,0.024624166668838432
11.746298342541436,0.019852703937681012
11.779668508287294,0.022838310177413595
11.81303867403315,0.027447958838472796
11.846408839779006,0.025732193929212315
11.879779005524863,0.012636483600316457
11.91314917127072,-0.010713929139461308
11.946519337016575,-0.03703562557520824
11.979889502762433,-0.05628726075946672
12.013259668508288,-0.06066716469240323
12.046629834254144,-0.04856450763357021
12.08,-0.02541072880466693
12.113370165745858,-0.0010612580544879467
12.146740331491714,0.014841777315480852
12.18011049723757,0.017110138303750154
12.213480662983427,0.006800728006214267
12.246850828729283,-0.010086570762861942
12.280220994475139,-0.026025550913870446
12.313591160220996,-0.03555805521004568
12.346961325966852,-0.03727873466371967
12.380331491712708,-0.033482739114826715
12.413701657458564,-0.028053225569502818
12.447071823204421,-0.023990767520680377
12.480441988950277,-0.021951229776544928
12.513812154696133,-0.02039206715491704
12.54718232044199,-0.016944451164356337
12.580552486187846,-0.010008025827548462
12.613922651933702,0.0003854268114312484
12.64729281767956,0.012791999032562777
12.680662983425416,0.025295042442742915
12.714033149171271,0.03642062530102578
12.747403314917127,0.04543283797515772
12.780773480662985,0.05192685104879788
12.81414364640884,0.05515541383491763
12.847513812154697,0.053717383764757584
12.880883977900554,0.045994985719546404
12.91425414364641,0.03120680064792313
12.947624309392266,0.01047530389485754
12.980994475138122,-0.012803043054584424
13.01436464088398,-0.0336658964136387
13.047734806629835,-0.04717788678910329
13.081104972375691,-0.05024313728743048
13.114475138121549,-0.04285734045347529
13.147845303867404,-0.0282773061052301
13.18121546961326,-0.012037796423224749
13.214585635359118,-0.00016880286118130933
13.247955801104974,0.0027852340970618765
13.28132596685083,-0.004686721282082821
13.314696132596685,-0.020419729224115175
13.348066298342543,-0.03903387491857369
13.381436464088399,-0.0533938240563916
13.414806629834255,-0.0567000927758466
13.448176795580112,-0.04466418069657408
13.481546961325968,-0.017141371949924995
13.514917127071824,0.021347963966395638
13.548287292817681,0.06254129247906969
13.581657458563537,0.09671022800715158
13.615027624309393,0.11567929051598828
13.648397790055249,0.1155611455677942
13.681767955801106,0.09811200252740841
13.715138121546962,0.07002458657610447
13.748508287292818,0.04028794984142264
13.781878453038676,0.016623093309695237
13.815248618784532,0.0025117360451468794
13.848618784530387,-0.003838655430421405
13.881988950276245,-0.008091493810930014
13.9153591160221,-0.016575132420696647
13.948729281767957,-0.0327940801953705
13.982099447513813,-0.05535433428767663
14.01546961325967,-0.0783504111514452
14.048839779005526,-0.09407260841193187
14.082209944751382,-0.09673462324028191
14.11558011049724,-0.08537767246289299
14.148950276243095,-0.06447937677808148
14.182320441988951,-0.041927974947224056
14.215690607734807,-0.025352591421613932
14.249060773480664,-0.018637835485985084
14.28243093922652,-0.020348647132880524
14.315801104972376,-0.02479842785152658
14.349171270718234,-0.025137056739318802
14.38254143646409,-0.01683354722627821
14.415911602209945,0.00020229081132978264
14.449281767955803,0.021836488893161404
14.482651933701659,0.04200524228990893
14.516022099447515,0.05579839330492791
14.54939226519337,0.06173940530211058
14.582762430939228,0.06218406218057029
14.616132596685084,0.061762081614107824
14.64950276243094,0.06473604139271186
14.682872928176797,0.07260253210034116
14.716243093922653,0.08305899952208733
14.749613259668509,0.09077322742596972
14.782983425414367,0.08957491809612723
14.816353591160222,0.07509650661590227
14.849723756906078,0.04674300721788926
14.883093922651934,0.00819610003387192
14.916464088397792,-0.03370052300437563
14.949834254143648,-0.07115380288784327
14.983204419889503,-0.09780602473992114
15.016574585635361,-0.11039792785476028
15.049944751381217,-0.10922660881040695
15.083314917127073,-0.09745502092159164
15.116685082872928,-0.07972800924092399
15.150055248618786,-0.060669649451498095
15.183425414364642,-0.04372104579171034
15.216795580110498,-0.030562978247625248
15.250165745856355,-0.02116453498809833
15.283535911602211,-0.014339133904896604
15.316906077348067,-0.008561885015794411
15.350276243093925,-0.0027185803732155812
15.38364640883978,0.003528747062190428
15.417016574585636,0.009914540739036122
15.450386740331492,0.016161800568596268
15.48375690607735,0.022616352443121483
15.517127071823205,0.030464258264751305
15.550497237569061,0.04125561489758538
15.583867403314919,0.05584664002835698
15.617237569060775,0.07327161873037617
15.65060773480663,0.09022809387157729
15.683977900552488,0.10165944887824256
15.717348066298344,0.10240550845196895
15.7507182320442,0.08931309886634872
15.784088397790056,0.06286827877511969
15.817458563535913,0.02753302777987726
15.85082872928177,-0.009487669203376682
15.884198895027625,-0.04061545694374585
15.917569060773483,-0.060453912670005695
15.950939226519338,-0.06749980631999927
15.984309392265194,-0.06435581672111822
16.01767955801105,-0.05641386350993583
16.051049723756908,-0.04956696639688742
16.084419889502765,-0.04784798392962536
16.11779005524862,-0.05189982254942659
16.151160220994477,-0.058871419002467985
16.18453038674033,-0.06379732056389442
16.21790055248619,-0.06191870090605826
16.251270718232046,-0.0509668318780073
16.2846408839779,-0.032376399067205616
16.318011049723758,-0.010814711931219924
16.351381215469615,0.007833732636315172
16.38475138121547,0.019139609441788805
16.418121546961327,0.0222071574006253
16.451491712707185,0.02013775176032944
16.48486187845304,0.018592035764436642
16.518232044198896,0.02305718426411574
16.551602209944754,0.03605306013354069
16.584972375690608,0.055575708582900986
16.618342541436466,0.07554584917685396
16.651712707182323,0.08814136732275273
16.685082872928177,0.08704250287620773
16.718453038674035,0.07018683412910069
16.751823204419892,0.040818196272019894
16.785193370165747,0.006348284419816336
16.818563535911604,-0.024487262156467543
16.851933701657458,-0.044937456785860176
16.885303867403316,-0.05256538162486311
16.918674033149173,-0.04961314771285464
16.952044198895027,-0.04133679220742401
16.985414364640885,-0.0331983495861348
17.018784530386743,-0.028324236897756032
17.052154696132597,-0.0264580364521853
