Frequency (Hz),Amplitude
0.0,1.650411611407796
0.019823788546255508,1.6503152912936883
0.039647577092511016,1.6500267113439173
0.059471365638766524,1.6495470116367712
0.07929515418502203,1.6488780886352123
0.09911894273127755,1.6480225896782192
0.11894273127753305,1.6469839052528819
0.13876651982378857,1.6457661590331027
0.15859030837004406,1.644374195666183
0.17841409691629956,1.6428135662865653
0.1982378854625551,1.641090511732899
0.2180616740088106,1.6392119434444412
0.2378854625550661,1.63718542201144
0.25770925110132165,1.6350191333555395
0.27753303964757714,1.6327218625184372
0.29735682819383263,1.6303029650400598
0.31718061674008813,1.6277723359132397
0.3370044052863437,1.625140376108326
0.3568281938325991,1.6224179566697912
0.37665198237885467,1.6196163803975931
0.3964757709251102,1.6167473411386721
0.41629955947136565,1.613822880728268
0.4361233480176212,1.6108553436377815
0.4559471365638767,1.607857329404525
0.4757709251101322,1.6048416429397396
0.49559471365638774,1.6018212428336662
0.5154185022026433,1.5988091878011736
0.5352422907488987,1.595818581437492
0.5550660792951543,1.5928625154805136
0.5748898678414097,1.5899540118045514
0.5947136563876653,1.5871059633985813
0.6145374449339208,1.5843310746107024
0.6343612334801763,1.5816418009679738
0.6541850220264318,1.5790502889075815
0.6740088105726874,1.5765683157796253
0.6938325991189428,1.5742072305037553
0.7136563876651982,1.5719778952808834
0.7334801762114539,1.569890628775301
0.7533039647577093,1.5679551511930825
0.7731277533039648,1.5661805316872417
0.7929515418502204,1.5645751385191762
0.8127753303964759,1.5631465923989174
0.8325991189427313,1.561901723413466
0.8524229074889869,1.5608465319319476
0.8722466960352424,1.5599861538506332
0.8920704845814978,1.5593248305073475
0.9118942731277534,1.5588658835564935
0.931718061674009,1.5586116950519757
0.9515418502202644,1.558563692936161
0.9713656387665199,1.5587223420810508
0.9911894273127755,1.5590871409722369
1.0110132158590308,1.559656624069104
1.0308370044052866,1.5604283698173753
1.0506607929515421,1.561399014232573
1.0704845814977975,1.5625642699175213
1.090308370044053,1.5639189503243118
1.1101321585903086,1.5654569990216651
1.1299559471365639,1.5671715236842825
1.1497797356828194,1.569054834481171
1.1696035242290752,1.5710984865067519
1.1894273127753305,1.5732933258708008
1.209251101321586,1.5756295390429806
1.2290748898678416,1.5780967050330923
1.248898678414097,1.580683849980571
1.2687224669603525,1.5833795037246206
1.288546255506608,1.5861717579310848
1.3083700440528636,1.5890483253608212
1.3281938325991192,1.591996599878753
1.3480176211453747,1.5950037168206874
1.36784140969163,1.5980566133565477
1.3876651982378856,1.6011420885123742
1.4074889867841411,1.6042468625402566
1.4273127753303965,1.607357635351929
1.4471365638766522,1.6104611437605745
1.4669603524229078,1.6135442173033727
1.4867841409691631,1.6165938324453053
1.5066079295154187,1.6195971649917302
1.5264317180616742,1.6225416405635955
1.5462555066079295,1.6254149830129547
1.5660792951541853,1.6282052606800899
1.5859030837004409,1.630900930413385
1.6057268722466962,1.633490879293107
1.6255506607929517,1.6359644640158832
1.6453744493392073,1.638311547912313
1.6651982378854626,1.6405225355821884
1.6850220264317182,1.6425884051426565
1.7048458149779737,1.644500738093311
1.7246696035242293,1.6462517468088647
1.7444933920704848,1.6478342996754152
1.7643171806167404,1.6492419438895922
1.7841409691629957,1.6504689259420042
1.8039647577092512,1.6515102098071228
1.8237885462555068,1.652361492861349
1.8436123348017623,1.6530192195491498
1.863436123348018,1.653480592815277
1.8832599118942732,1.6537435833173815
1.9030837004405288,1.6538069364297956
1.9229074889867843,1.6536701770446256
1.9427312775330399,1.6533336121720763
1.9625550660792954,1.6527983313362204
1.982378854625551,1.6520662047580317
2.002202643171806,1.6511398793119418
2.0220264317180616,1.650022772237188
2.041850220264317,1.648719062580935
2.061674008810573,1.6472336803452594
2.0814977973568287,1.6455722933066248
2.1013215859030843,1.6437412914734566
2.1211453744493394,1.64174776914464
2.140969162995595,1.6395995045311647
2.1607929515418505,1.6373049369024042
2.180616740088106,1.634873141220061
2.2004405286343616,1.6323138002251478
2.220264317180617,1.6296371739480142
2.2400881057268722,1.6268540666173044
2.2599118942731278,1.6239757909516848
2.2797356828193833,1.621014129828836
2.299559471365639,1.617981295338066
2.319383259911895,1.6148898852380318
2.3392070484581504,1.6117528368582015
2.3590308370044055,1.6085833785020018
2.378854625550661,1.6053949784320636
2.3986784140969166,1.6022012915419395
2.418502202643172,1.59901610384565
2.4383259911894277,1.595853274944565
2.4581497797356833,1.5927266786619343
2.4779735682819384,1.5896501420665772
2.497797356828194,1.5866373831401928
2.5176211453744495,1.5837019473754241
2.537444933920705,1.5808571436245997
2.5572687224669606,1.5781159795509714
2.577092511013216,1.575491097064024
2.5969162995594717,1.5729947081483753
2.6167400881057272,1.5706385315200422
2.6365638766519828,1.5684337305637135
2.6563876651982383,1.5663908530206494
2.676211453744494,1.5645197729056226
2.6960352422907494,1.5628296351352724
2.715859030837005,1.561328803346384
2.73568281938326,1.5600248113715118
2.7555066079295156,1.55892431882128
2.775330396475771,1.5580330711962587
2.7951541850220267,1.5573558649179668
2.8149779735682823,1.5568965176276597
2.834801762114538,1.5566578440544108
2.854625550660793,1.5566416377008592
2.874449339207049,1.5568486585370733
2.8942731277533045,1.5572786268309686
2.91409691629956,1.557930223179951
2.9339207048458156,1.5588010947424145
2.953744493392071,1.559887867602545
2.9735682819383262,1.561186165138001
2.993392070484582,1.5626906321985645
3.0132158590308373,1.5643949648467066
3.033039647577093,1.5662919453590667
3.0528634361233484,1.5683734821407231
3.072687224669604,1.5706306541653918
3.092511013215859,1.5730537595215253
3.1123348017621146,1.5756323676194657
3.1321585903083706,1.5783553745973649
3.151982378854626,1.5812110614535408
3.1718061674008817,1.5841871544302766
3.1916299559471373,1.5872708871778145
3.2114537444933924,1.5904490642377143
3.231277533039648,1.5937081254002463
3.2511013215859035,1.597034210510966
3.270925110132159,1.6004132243259301
3.2907488986784146,1.6038309010425742
3.31057268722467,1.607272868162996
3.3303964757709252,1.6107247093778414
3.350220264317181,1.6141720261910701
3.3700440528634363,1.6176004980382495
3.389867841409692,1.6209959406828354
3.4096916299559474,1.6243443627058431
3.4295154185022034,1.6276320199338277
3.4493392070484585,1.6308454676777167
3.469162995594714,1.6339716106809996
3.4889867841409696,1.6369977506989957
3.508810572687225,1.6399116316524553
3.5286343612334807,1.6427014823171988
3.5484581497797363,1.6453560565280423
3.5682819383259914,1.6478646708891362
3.588105726872247,1.6502172399944521
3.6079295154185025,1.6524043091716616
3.627753303964758,1.6544170847697943
3.6475770925110136,1.6562474620165706
3.667400881057269,1.6578880504745124
3.6872246696035247,1.6593321971272321
3.7070484581497802,1.660574007127042
3.726872246696036,1.661608362234458
3.7466960352422913,1.6624309369777404
3.7665198237885464,1.6630382125571248
3.7863436123348024,1.6634274885145008
3.8061674008810575,1.6635968921840432
3.8259911894273135,1.6635453859337526
3.8458149779735686,1.6632727722016531
3.8656387665198246,1.6627796963238206
3.8854625550660797,1.662067647144769
3.905286343612335,1.6611389553936458
3.925110132158591,1.659996789802485
3.9449339207048464,1.658645150936655
3.964757709251102,1.6570888627002223
3.9845814977973575,1.6553335614733962
4.004405286343612,1.6533856828332811
4.024229074889869,1.6512524458044515
4.044052863436123,1.648941834581679
4.06387665198238,1.646462577664416
4.083700440528634,1.6438241243406984
4.103524229074891,1.6410366184580656
4.123348017621146,1.638110869420612
4.143171806167401,1.6350583203543687
4.162995594713657,1.6318910133891398
4.182819383259912,1.628621552012075
4.2026431718061685,1.6252630604592755
4.222466960352423,1.621829140124326
4.242290748898679,1.6183338229789141
4.262114537444934,1.6147915220195457
4.28193832599119,1.611216978776759
4.301762114537445,1.6076252079484867
4.321585903083701,1.6040314392477462
4.3414096916299565,1.6004510565865158
4.361233480176212,1.5968995347521013
4.381057268722468,1.5933923737691953
4.400881057268723,1.5899450311802166
4.420704845814979,1.5865728525172234
4.440528634361234,1.5832910002804497
4.46035242290749,1.5801143817807166
4.4801762114537445,1.57705757624446
4.500000000000001,1.5741347616197316
4.5198237885462555,1.5713596415592068
4.539647577092512,1.5687453730893646
4.559471365638767,1.5663044955040004
4.579295154185023,1.564048861043101
4.599118942731278,1.5619895679335738
4.618942731277533,1.5601368963766205
4.63876651982379,1.5585002480655314
4.658590308370044,1.5570880898072632
4.678414096916301,1.5559079018014224
4.6982378854625555,1.5549661310999987
4.718061674008811,1.5542681507315528
4.737885462555067,1.5538182249240262
4.757709251101322,1.553619480802538
4.777533039647578,1.5536738868726285
4.797356828193833,1.553982238527089
4.817180616740089,1.5545441507374056
4.837004405286344,1.5553580580097919
4.856828193832599,1.5564212216038087
4.876651982378855,1.5577297439291957
4.896475770925111,1.5592785899564665
4.9162995594713665,1.561061615400376
4.936123348017622,1.5630716013644994
4.955947136563877,1.5653002950705746
4.975770925110133,1.567738456240203
4.995594713656388,1.570375908648642
5.015418502202644,1.5732015963330122
5.035242290748899,1.5762036439081464
5.055066079295155,1.5793694204259854
5.07488986784141,1.5826856062048222
5.094713656387666,1.5861382620558446
5.114537444933921,1.5897129003430837
5.134361233480177,1.5933945573295458
5.154185022026432,1.5971678662857682
5.174008810572688,1.6010171308657808
5.193832599118943,1.6049263982893216
5.213656387665199,1.6088795319056013
5.2334801762114544,1.612860282753533
5.25330396475771,1.6168523597741424
5.2731277533039655,1.6208394983714203
5.292951541850221,1.6248055270592876
5.312775330396477,1.628734431971294
5.332599118942731,1.632610419048083
5.352422907488988,1.6364179737529405
5.372246696035242,1.6401419181991532
5.392070484581499,1.643767465602803
5.4118942731277535,1.6472802720023256
5.43171806167401,1.650666485209659
5.451541850220265,1.6539127909794609
5.47136563876652,1.657006456400078
5.491189427312777,1.659935370525244
5.511013215859031,1.6626880822775818
5.530837004405288,1.6652538356637325
5.550660792951542,1.667622602348461
5.570484581497798,1.6697851116391196
5.5903083700440535,1.671732877934187
5.610132158590309,1.673458225690373
5.6299559471365646,1.674954311961321
5.64977973568282,1.676215146557938
5.669603524229076,1.6772356098766221
5.689427312775331,1.678011468436265
5.709251101321586,1.678539388158026
5.729074889867842,1.6788169454156003
5.748898678414098,1.6788426358749358
5.768722466960353,1.6786158811341485
5.788546255506609,1.6781370331655792
5.808370044052864,1.6774073765520434
5.82819383259912,1.676429128500225
5.848017621145375,1.675205436604182
5.867841409691631,1.673740374322183
5.887665198237886,1.672038934120714
5.907488986784142,1.670107018229929
5.927312775330397,1.6679514269461104
5.9471365638766525,1.6655798444083219
5.966960352422908,1.6630008217688703
5.986784140969164,1.6602237576705996
6.00660792951542,1.657258875938762
6.026431718061675,1.654117200391099
6.04625550660793,1.6508105266675128
6.066079295154186,1.6473513909804456
6.085903083700441,1.6437530356889425
6.105726872246697,1.6400293716039755
6.125550660792952,1.636194936939816
6.145374449339208,1.6322648528371493
6.1651982378854635,1.6282547753974095
6.185022026431718,1.6241808441859695
6.204845814977975,1.6200596271835797
6.224669603524229,1.6159080621919226
6.244493392070486,1.6117433947294861
6.264317180616741,1.6075831124892472
6.284140969162996,1.603444876468877
6.303964757709252,1.5993464489282425
6.323788546255507,1.595305618375958
6.3436123348017635,1.5913401218385614
6.363436123348018,1.5874675647188494
6.3832599118942746,1.5837053386064623
6.403083700440529,1.5800705374601516
6.422907488986785,1.5765798726378453
6.44273127753304,1.5732495873058483
6.462555066079296,1.5700953708105398
6.482378854625551,1.5671322736433806
6.502202643171807,1.564374623671817
6.5220264317180625,1.5618359443418066
6.541850220264318,1.5595288755825303
6.561674008810574,1.557465098156985
6.581497797356829,1.5556552622038822
6.601321585903085,1.5541089207048076
6.62114537444934,1.5528344685854778
6.640969162995596,1.551839088120988
6.6607929515418505,1.551128701262101
6.680616740088107,1.5507079294339625
6.700440528634362,1.5505800612803586
6.720264317180618,1.5507470287381506
6.740088105726873,1.5512093917288445
6.759911894273129,1.5519663316505057
6.779735682819384,1.5530156537445583
6.799559471365639,1.554353798302472
6.819383259911895,1.5559758605681429
6.83920704845815,1.557875619087301
6.859030837004407,1.5600455721555138
6.8788546255506615,1.5624769819260977
6.898678414096917,1.5651599256591162
6.918502202643173,1.5680833535233099
6.938325991189428,1.5712351523079564
6.958149779735684,1.5746022143588132
6.977973568281939,1.57817051102441
6.997797356828195,1.5819251698838768
7.01762114537445,1.5858505550259194
7.037444933920705,1.589930349658714
7.0572687224669615,1.5941476403517256
7.077092511013216,1.5984850022414052
7.096916299559473,1.6029245845710476
7.116740088105728,1.6074481959805904
7.136563876651983,1.6120373890118587
7.156387665198239,1.6166735433482002
7.176211453744494,1.6213379473620413
7.19603524229075,1.6260118775998489
7.215859030837005,1.630676675888353
7.235682819383261,1.6353138237993072
7.255506607929516,1.639905014259891
7.275330396475772,1.6444322201439543
7.295154185022027,1.6488777597219577
7.314977973568283,1.6532243588878641
7.334801762114538,1.6574552101151783
7.354625550660794,1.6615540281267558
7.374449339207049,1.66550510228789
7.394273127753305,1.6692933457561656
7.4140969162995605,1.6729043414382871
7.433920704845816,1.6763243848198754
7.453744493392072,1.6795405237445638
7.473568281938327,1.6825405952265633
7.493392070484583,1.6853132593857703
7.513215859030838,1.6878480305962433
7.533039647577093,1.690135305939272
7.552863436123348,1.6921663910490508
7.572687224669605,1.6939335234354829
7.59251101321586,1.695429893362329
7.612334801762115,1.696649662351962
7.6321585903083715,1.697587979379422
7.651982378854627,1.6982409948092214
7.671806167400882,1.6986058721175912
7.691629955947137,1.698680797432566
7.711453744493394,1.698464986911851
7.731277533039649,1.6979586919669034
7.751101321585904,1.6971632023287087
7.7709251101321595,1.6960808469381308
7.790748898678416,1.6947149926306593
7.81057268722467,1.693070040572103
7.830396475770926,1.6911514203889741
7.850220264317182,1.6889655819239384
7.870044052863436,1.6865199845343541
7.889867841409693,1.6838230838394612
7.909691629955948,1.6808843158101323
7.929515418502204,1.677714078084174
7.9493392070484585,1.6743237083805473
7.969162995594715,1.6707254598771974
7.9889867841409705,1.6669324734101107
8.008810572687224,1.6629587463471067
8.02863436123348,1.658819097986131
8.048458149779737,1.6545291313293065
8.068281938325994,1.6501051910863536
8.088105726872246,1.6455643177687684
8.107929515418503,1.6409241977472597
8.12775330396476,1.636203109160463
8.147577092511014,1.6314198635845771
8.167400881057269,1.6265937433993132
8.187224669603525,1.6217444348185746
8.207048458149782,1.6168919565923716
8.226872246696036,1.612056584431505
8.246696035242293,1.6072587712578823
8.266519823788547,1.6025190634406459
8.286343612334802,1.5978580132414855
8.306167400881058,1.593296087761624
8.325991189427315,1.5888535747550763
8.345814977973568,1.5845504857501165
8.365638766519824,1.580406456997938
8.38546255506608,1.5764406488469127
8.405286343612337,1.572671644216934
8.42511013215859,1.5691173469208346
8.444933920704846,1.5657948806472568
8.464757709251103,1.562720489476288
8.484581497797357,1.5599094408467056
8.504405286343614,1.5573759319265288
8.524229074889869,1.5551330003569557
8.544052863436125,1.5531924403396689
8.56387665198238,1.551564725019597
8.583700440528636,1.5502589360769443
8.60352422907489,1.5492827013846475
8.623348017621145,1.548642141509382
8.643171806167402,1.5483418257392565
8.662995594713658,1.5483847382076397
8.682819383259913,1.5487722545567935
8.702643171806168,1.5495041294463532
8.722466960352424,1.5505784950662296
8.74229074889868,1.5519918706639029
8.762114537444935,1.5537391829464438
8.78193832599119,1.5558137970718275
8.801762114537446,1.5582075578065955
8.821585903083701,1.5609108402997334
8.841409691629957,1.5639126098107137
8.861233480176212,1.5672004896333211
8.881057268722468,1.5707608363795427
8.900881057268723,1.5745788217294525
8.92070484581498,1.5786385197150679
8.940528634361234,1.5829229985863082
8.960352422907489,1.5874144163080293
8.980176211453745,1.5920941187527873
9.000000000000002,1.5969427396869444
9.019823788546258,1.6019403016925575
9.039647577092511,1.6070663172243158
9.059471365638768,1.612299889065029
9.079295154185024,1.61761980951464
9.099118942731279,1.6230046577220751
9.118942731277533,1.6284328946463058
9.13876651982379,1.6338829552086302
9.158590308370046,1.6393333372735042
9.1784140969163,1.6447626871660488
9.198237885462555,1.6501498815017082
9.218061674008812,1.6554741051654227
9.237885462555067,1.6607149253339233
9.257709251101323,1.6658523614851515
9.27753303964758,1.670866951382466
9.297356828193834,1.6757398130597034
9.317180616740089,1.6804527028645595
9.337004405286345,1.68498806964411
9.356828193832602,1.689329105176973
9.376651982378855,1.6934597909723745
9.396475770925111,1.6973649415674539
9.416299559471367,1.7010302444615482
9.436123348017622,1.7044422968292965
9.455947136563877,1.7075886391548536
9.475770925110133,1.7104577859270216
9.49559471365639,1.7130392535298782
9.515418502202644,1.7153235854569178
9.5352422907489,1.717302374967383
9.555066079295155,1.7189682852937067
9.57488986784141,1.7203150674973429
9.594713656387666,1.721337576057524
9.614537444933923,1.7220317822645106
9.634361233480178,1.7223947854744834
9.654185022026432,1.7224248222686316
9.674008810572689,1.7221212735436964
9.693832599118945,1.7214846695457764
9.713656387665198,1.7205166928428792
9.733480176211454,1.719220179215697
9.75330396475771,1.7175991164292161
9.773127753303967,1.7156586408314072
9.792951541850222,1.7134050317078788
9.812775330396477,1.7108457033051967
9.832599118942733,1.7079891944180141
9.852422907488988,1.7048451554194166
9.872246696035244,1.7014243325969822
9.892070484581499,1.6977385496421984
9.911894273127754,1.6938006861256156
9.93171806167401,1.6896246527771235
9.951541850220266,1.6852253633782281
9.971365638766521,1.6806187030637005
9.991189427312776,1.6758214928216408
10.011013215859032,1.6708514499770677
10.030837004405289,1.6657271444422692
10.050660792951543,1.6604679505207225
10.070484581497798,1.6550939940588476
10.090308370044054,1.649626094753672
10.11013215859031,1.6440857034441354
10.129955947136565,1.6384948342406607
10.14977973568282,1.632875991381997
10.169603524229077,1.6272520907516868
10.189427312775331,1.6216463760373827
10.209251101321588,1.6160823295777116
10.229074889867842,1.6105835780106996
10.248898678414099,1.6051737929168388
10.268722466960353,1.5998765867371447
10.28854625550661,1.5947154043414726
10.308370044052865,1.5897134107233328
10.32819383259912,1.584893375403473
10.348017621145376,1.580277554232663
10.367841409691632,1.5758875693918282
10.387665198237887,1.571744288492852
10.407488986784141,1.5678677037816955
10.427312775330398,1.5642768125335995
10.447136563876654,1.560989499804972
10.466960352422909,1.5580224247638097
10.486784140969164,1.5553909118571845
10.50660792951542,1.5531088480869026
10.526431718061675,1.5511885876514946
10.546255506607931,1.5496408651712041
10.566079295154186,1.548474718643038
10.585903083700442,1.5476974231745833
10.605726872246697,1.547314436420394
10.625550660792953,1.5473293564945336
10.645374449339208,1.5477438929625162
