Frequency (Hz),Amplitude
0.0,2.5995965968493104
0.019823788546255508,2.697988747513634
0.039647577092511016,2.9733504327677296
0.059471365638766524,3.381827951929801
0.07929515418502203,3.880304305619142
0.09911894273127755,4.436953777943414
0.11894273127753305,5.030697515669811
0.13876651982378857,5.6478931772051615
0.15859030837004406,6.279565270129039
0.17841409691629956,6.919607720452836
0.1982378854625551,7.563697297262125
0.2180616740088106,8.208643955075802
0.2378854625550661,8.851997627539825
0.25770925110132165,9.491805145690371
0.27753303964757714,10.126456321996464
0.29735682819383263,10.754584131956962
0.31718061674008813,11.374998494777524
0.3370044052863437,11.98664141714066
0.3568281938325991,12.588556029463156
0.37665198237885467,13.179864849613269
0.3964757709251102,13.759754297073732
0.41629955947136565,14.32746351830061
0.4361233480176212,14.882276235447865
0.4559471365638767,15.4235147477036
0.4757709251101322,15.950535486537705
0.49559471365638774,16.46272570674596
0.5154185022026433,16.95950101701947
0.5352422907488987,17.440303537241874
0.5550660792951543,17.904600527727663
0.5748898678414097,18.35188337647006
0.5947136563876653,18.781666859603376
0.6145374449339208,19.193488611308883
0.6343612334801763,19.586908754732516
0.6541850220264318,19.961509656790753
0.6740088105726874,20.316895778161168
0.6938325991189428,20.65269359608149
0.7136563876651982,20.96855158237921
0.7334801762114539,21.264140222823407
0.7533039647577093,21.539152066721453
0.7731277533039648,21.79330179788132
0.7929515418502204,22.026326319787458
0.8127753303964759,22.23798484919779
0.8325991189427313,22.428059013455535
0.8524229074889869,22.596352947681407
0.8722466960352424,22.742693388717296
0.8920704845814978,22.86692976327055
0.9118942731277534,22.968934268188555
0.931718061674009,23.048601941191585
0.9515418502202644,23.105850720735738
0.9713656387665199,23.140621493970496
0.9911894273127755,23.15287813201844
1.0110132158590308,23.142607512036705
1.0308370044052866,23.10981952574057
1.0506607929515421,23.054547074274982
1.0704845814977975,22.976846049525626
1.090308370044053,22.876795302167224
1.1101321585903086,22.754496596964305
1.1299559471365639,22.610074556072533
1.1497797356828194,22.443676591346605
1.1696035242290752,22.255472826952786
1.1894273127753305,22.04565601392036
1.209251101321586,21.814441438662715
1.2290748898678416,21.56206682796903
1.248898678414097,21.28879225353734
1.2687224669603525,20.994900039814272
1.288546255506608,20.68069467976257
1.3083700440528636,20.346502764243443
1.3281938325991192,19.992672932037504
1.3480176211453747,19.619575849219466
1.36784140969163,19.227604228759116
1.3876651982378856,18.81717290399463
1.4074889867841411,18.388718973218204
1.4273127753303965,17.942702037312483
1.4471365638766522,17.479604558567132
1.4669603524229078,16.99993237703995
1.4867841409691631,16.504215431880766
1.5066079295154187,15.993008750021879
1.5264317180616742,15.466893785165073
1.5462555066079295,14.9264802184269
1.5660792951541853,14.372408371841512
1.5859030837004409,13.80535244244906
1.6057268722466962,13.22602484597976
1.6255506607929517,12.635182077698156
1.6453744493392073,12.033632673539744
1.6651982378854626,11.422248118946975
1.6850220264317182,10.801977957606532
1.7048458149779737,10.173870983961113
1.7246696035242293,9.539105408762092
1.7444933920704848,8.899032520840445
1.7643171806167404,8.25524108173273
1.7841409691629957,7.609654295738569
1.8039647577092512,6.964679181558809
1.8237885462555068,6.32344225449546
1.8436123348017623,5.690170495364682
1.863436123348018,5.070820707272066
1.8832599118942732,4.474133333275302
1.9030837004405288,3.9133826384273895
1.9229074889867843,3.4091032968010557
1.9427312775330399,2.9924628028213776
1.9625550660792954,2.706246650750309
1.982378854625551,2.5952609901298573
2.002202643171806,2.6818157740377826
2.0220264317180616,2.9482875522756737
2.041850220264317,3.3511818885176563
2.061674008810573,3.846603555873951
2.0814977973568287,4.401855027390557
2.1013215859030843,4.99524197657306
2.1211453744493394,5.61274385694708
2.140969162995595,6.245160664769337
2.1607929515418505,6.886252082970868
2.180616740088106,7.531612608668238
2.2004405286343616,8.178000135495648
2.220264317180617,8.822930468675336
2.2400881057268722,9.464427217498791
2.2599118942731278,10.10086376958517
2.2797356828193833,10.730861008455122
2.299559471365639,11.35321957997232
2.319383259911895,11.966874083374313
2.3392070484581504,12.570861494811416
2.3590308370044055,13.16429902906713
2.378854625550661,13.746368385199556
2.3986784140969166,14.316304389670961
2.418502202643172,14.873386719704275
2.4383259911894277,15.416933817388625
2.4581497797356833,15.94629838370023
2.4779735682819384,16.46086402632459
2.497797356828194,16.96004275964939
2.5176211453744495,17.443273140486674
2.537444933920705,17.910018882223206
2.5572687224669606,18.359767831711068
2.577092511013216,18.792031222860167
2.5969162995594717,19.206343142271404
2.6167400881057272,19.602260157834106
2.6365638766519828,19.97936107269222
2.6563876651982383,20.337246775526513
2.676211453744494,20.675540164514995
2.6960352422907494,20.993886127197037
2.715859030837005,21.291951562181733
2.73568281938326,21.569425431506254
2.7555066079295156,21.826018834675395
2.775330396475771,22.06146509715668
2.7951541850220267,22.275519867481705
2.8149779735682823,22.46796121820057
2.834801762114538,22.638589746815345
2.854625550660793,22.787228673530752
2.874449339207049,22.913723933243585
2.8942731277533045,23.0179442596744
2.91409691629956,23.099781259947633
2.9339207048458156,23.1591494782702
2.953744493392071,23.195986447654043
2.9735682819383262,23.21025272888897
2.993392070484582,23.201931936207725
3.0132158590308373,23.171030749301355
3.033039647577093,23.11757891155126
3.0528634361233484,23.041629214545136
3.072687224669604,22.94325746915058
3.092511013215859,22.822562463633638
3.1123348017621146,22.679665909538787
3.1321585903083706,22.514712376300906
3.151982378854626,22.327869215846068
3.1718061674008817,22.119326478767164
3.1916299559471373,21.88929682404756
3.2114537444933924,21.638015424766827
3.231277533039648,21.36573987277692
3.2511013215859035,21.072750086015876
3.270925110132159,20.75934822295904
3.2907488986784146,20.425858609747234
3.31057268722467,20.072627686831225
3.3303964757709252,19.70002398361855
3.350220264317181,19.30843813170657
3.3700440528634363,18.898282929981846
3.389867841409692,18.469993478359036
3.4096916299559474,18.02402740149596
3.4295154185022034,17.56086518983373
3.4493392070484585,17.081010693304094
3.469162995594714,16.584991813771477
3.4889867841409696,16.073361456812115
3.508810572687225,15.546698823333966
3.5286343612334807,15.005611149094399
3.5484581497797363,14.450736038766182
3.5682819383259914,13.88274459594115
3.588105726872247,13.302345629138717
3.6079295154185025,12.710291328593787
3.627753303964758,12.10738497840486
3.6475770925110136,11.494491524130854
3.667400881057269,10.872552207166045
3.6872246696035247,10.242605087594272
3.7070484581497802,9.605814248582911
3.726872246696036,8.963512054054087
3.7466960352422913,8.317261453946468
3.7665198237885464,7.668949786452284
3.7863436123348024,7.020933260083673
3.8061674008810575,6.3762649766135135
3.8259911894273135,5.739063820461876
3.8458149779735686,5.115124995707564
3.8656387665198246,4.512946236926615
3.8854625550660797,3.945445272914651
3.905286343612335,3.4326793171216248
3.925110132158591,3.0053532672260728
3.9449339207048464,2.706340085554894
3.964757709251102,2.5819993389594456
3.9845814977973575,2.6575161856303113
4.004405286343612,2.917199987913766
4.024229074889869,3.3172776357940683
4.044052863436123,3.8125731058287293
4.06387665198238,4.3692805778307235
4.083700440528634,4.965017843940082
4.103524229074891,5.585381805766308
4.123348017621146,6.220964718089883
4.143171806167401,6.865412020355868
4.162995594713657,7.514253535656433
4.182819383259912,8.164209124303975
4.2026431718061685,8.812771180475895
4.222466960352423,9.457948104647258
4.242290748898679,10.098102765825157
4.262114537444934,10.73184825083775
4.28193832599119,11.357979002547252
4.301762114537445,11.97542435129686
4.321585903083701,12.583216546553754
4.3414096916299565,13.180468382991545
4.361233480176212,13.76635730350856
4.381057268722468,14.34011395606828
4.400881057268723,14.901013865401449
4.420704845814979,15.448371317021671
4.440528634361234,15.981534834720796
4.46035242290749,16.49988382046321
4.4801762114537445,17.002826051924977
4.500000000000001,17.48979581925152
4.5198237885462555,17.960252542459386
4.539647577092512,18.413679752971632
4.559471365638767,18.84958435271311
4.579295154185023,19.267496085755962
4.599118942731278,19.66696717321011
4.618942731277533,20.04757207361424
4.63876651982379,20.40890733967577
4.658590308370044,20.75059154865954
4.678414096916301,21.072265288607596
4.6982378854625555,21.373591186304438
4.718061674008811,21.654253965774902
4.737885462555067,21.913960528334474
4.757709251101322,22.152440046957334
4.777533039647578,22.36944406910682
4.797356828193833,22.564746623269357
4.817180616740089,22.73814432531245
4.837004405286344,22.889456481499515
4.856828193832599,23.018525185576912
4.876651982378855,23.1252154078292
4.896475770925111,23.209415074400965
4.9162995594713665,23.271035135525356
4.936123348017622,23.310009621594
4.955947136563877,23.326295686261435
4.975770925110133,23.319873636011607
4.995594713656388,23.290746945826747
5.015418502202644,23.238942260805402
5.035242290748899,23.164509383774355
5.055066079295155,23.06752124914024
5.07488986784141,22.948073883438248
5.094713656387666,22.80628635325691
5.114537444933921,22.64230070146762
5.134361233480177,22.456281872963935
5.154185022026432,22.248417631437263
5.174008810572688,22.01891846909023
5.193832599118943,21.768017511634714
5.213656387665199,21.49597042145968
5.2334801762114544,21.20305530250796
5.25330396475771,20.889572611208198
5.2731277533039655,20.555845078810016
5.292951541850221,20.2022176517265
5.312775330396477,19.82905745807567
5.332599118942731,19.43675381063743
5.352422907488988,19.025718259039955
5.372246696035242,18.59638470735848
5.392070484581499,18.149209617704784
5.4118942731277535,17.684672326179207
5.43171806167401,17.203275505254123
5.451541850220265,16.705545816986646
5.47136563876652,16.192034815450125
5.491189427312777,15.663320175930915
5.511013215859031,15.12000735495265
5.530837004405288,14.562731822326787
5.550660792951542,13.992162059093976
5.570484581497798,13.409003590912523
5.5903083700440535,12.814004436801753
5.610132158590309,12.207962516512543
5.6299559471365646,11.591735805643689
5.64977973568282,10.9662564041668
5.669603524229076,10.332550271711986
5.689427312775331,9.691765318845212
5.709251101321586,9.04521206608066
5.729074889867842,8.394423615339026
5.748898678414098,7.741245990703875
5.768722466960353,7.0879774148067485
5.788546255506609,6.437588434456578
5.808370044052864,5.794078867625967
5.82819383259912,5.163070840662537
5.848017621145375,4.55281199696286
5.867841409691631,3.9758733488632183
5.887665198237886,3.451894966252423
5.907488986784142,3.011302732537763
5.927312775330397,2.6974752189823525
5.9471365638766525,2.558987131619986
5.966960352422908,2.6243923380753498
5.986784140969164,2.8796863452498704
6.00660792951542,3.280068677381946
6.026431718061675,3.778489776011522
6.04625550660793,4.3397728665407
6.066079295154186,4.940781043080529
6.085903083700441,5.566736872027459
6.105726872246697,6.208052684894869
6.125550660792952,6.858287765021299
6.145374449339208,7.512930455665979
6.1651982378854635,8.168680431896803
6.185022026431718,8.823020011579578
6.204845814977975,9.473952210518139
6.224669603524229,10.119836553703637
6.244493392070486,10.759283524904077
6.264317180616741,11.391085076668746
6.284140969162996,12.014167871412843
6.303964757709252,12.627561193469102
6.323788546255507,13.230374541279376
6.3436123348017635,13.821781738396492
6.363436123348018,14.40100951749582
6.3832599118942746,14.96732922674452
6.403083700440529,15.520050750071743
6.422907488986785,16.058518019650755
6.44273127753304,16.58210568826505
6.462555066079296,17.090216656392045
6.482378854625551,17.58228023558435
6.502202643171807,18.0577507897762
6.5220264317180625,18.516106738283426
6.541850220264318,18.956849834219152
6.561674008810574,19.3795046535958
6.581497797356829,19.783618246062982
6.601321585903085,20.168759909757764
6.62114537444934,20.534521061307597
6.640969162995596,20.880515178445762
6.6607929515418505,21.20637779755811
6.680616740088107,21.51176655218797
6.700440528634362,21.796361241379817
6.720264317180618,22.059863918958175
6.740088105726873,22.301998996570525
6.759911894273129,22.522513354689433
6.779735682819384,22.721176456856067
6.799559471365639,22.897780463317947
6.819383259911895,23.052140340918577
6.83920704845815,23.18409396667317
6.859030837004407,23.293502222938802
6.8788546255506615,23.380249082485555
6.898678414096917,23.444241682111905
6.918502202643173,23.485410383738166
6.938325991189428,23.503708822165617
6.958149779735684,23.499113938919432
6.977973568281939,23.47162600180306
6.997797356828195,23.421268609991344
7.01762114537445,23.348088684685905
7.037444933920705,23.252156445549446
7.0572687224669615,23.13356537334169
7.077092511013216,22.992432159395968
7.096916299559473,22.828896642812957
7.116740088105728,22.643121736519017
7.136563876651983,22.435293343642066
7.156387665198239,22.20562026602024
7.176211453744494,21.95433410708545
7.19603524229075,21.68168917188023
7.215859030837005,21.387962367592237
7.235682819383261,21.073453108763573
7.255506607929516,20.738483232290452
7.275330396475772,20.38339692852957
7.295154185022027,20.008560696346024
7.314977973568283,19.61436333187025
7.334801762114538,19.201215963216324
7.354625550660794,18.76955214662869
7.374449339207049,18.31982804372486
7.394273127753305,17.85252270503199
7.4140969162995605,17.368138492367454
7.433920704845816,16.867201682474303
7.453744493392072,16.350263307683726
7.473568281938327,15.817900307669984
7.493392070484583,15.270717091684965
7.513215859030838,14.709347646130755
7.533039647577093,14.13445837264055
7.552863436123348,13.546751914169754
7.572687224669605,12.94697233208952
7.59251101321586,12.335912153522978
7.612334801762115,11.714422043454476
7.6321585903083715,11.08342421682637
7.651982378854627,10.443931269408719
7.671806167400882,9.79707300501953
7.691629955947137,9.144135301712383
7.711453744493394,8.48661750328254
7.731277533039649,7.826318997497681
7.751101321585904,7.165472949219945
7.7709251101321595,6.506958235616509
7.790748898678416,5.854644454954405
7.81057268722467,5.213968477313956
7.830396475770926,4.592918594653641
7.850220264317182,4.003724664362764
7.870044052863436,3.46566225126707
7.889867841409693,3.0090558050923075
7.909691629955948,2.6782348849088833
7.929515418502204,2.5247743364722504
7.9493392070484585,2.581255108304505
7.969162995594715,2.835078461865247
7.9889867841409705,3.239464594567291
8.008810572687224,3.7447652033041208
8.02863436123348,4.314145542801258
8.048458149779737,4.92366549577778
8.068281938325994,5.558204615256422
8.088105726872246,6.208040989572285
8.107929515418503,6.8666880539484145
8.12775330396476,7.529623956824829
8.147577092511014,8.193551386739074
8.167400881057269,8.855959497038668
8.187224669603525,9.514858169532879
8.207048458149782,10.168612430004153
8.226872246696036,10.815836517013826
8.246696035242293,11.455324424774801
8.266519823788547,12.086003328495574
8.286343612334802,12.706901719404115
8.306167400881058,13.31712721250363
8.325991189427315,13.915850849151282
8.345814977973568,14.502295844904115
8.365638766519824,15.075729433469801
8.38546255506608,15.635456901626076
8.405286343612337,16.180817197083005
8.42511013215859,16.7111796803582
8.444933920704846,17.225941718430207
8.464757709251103,17.72452690418708
8.484581497797357,18.206383745283766
8.504405286343614,18.670984707778285
8.524229074889869,19.117825529552594
8.544052863436125,19.54642473981637
8.56387665198238,19.956323336463495
8.583700440528636,20.34708458441573
8.60352422907489,20.718293906519897
8.623348017621145,21.069558844881346
8.643171806167402,21.400509075292568
8.662995594713658,21.71079646105766
8.682819383259913,22.000095135314737
8.702643171806168,22.268101603131385
8.722466960352424,22.514534856345627
8.74229074889868,22.73913649546526
8.762114537444935,22.941670853999923
8.78193832599119,23.121925121454833
8.801762114537446,23.2797094619029
8.821585903083701,23.41485712561547
8.841409691629957,23.527224551696147
8.861233480176212,23.61669146004985
8.881057268722468,23.683160931348226
8.900881057268723,23.726559473935282
8.92070484581498,23.746837076864935
8.940528634361234,23.743967248485003
8.960352422907489,23.71794704018648
8.980176211453745,23.668797055130117
9.000000000000002,23.596561441950325
9.019823788546258,23.501307873625343
9.039647577092511,23.383127511897776
9.059471365638768,23.242134957838225
9.079295154185024,23.07846818937226
9.099118942731279,22.892288486847878
9.118942731277533,22.683780348013187
9.13876651982379,22.453151394117246
9.158590308370046,22.200632269253145
9.1784140969163,21.92647653555072
9.198237885462555,21.630960567421194
9.218061674008812,21.31438344878608
9.237885462555067,20.977066878130582
9.257709251101323,20.61935508735709
9.27753303964758,20.241614781850547
9.297356828193834,19.844235110994937
9.317180616740089,19.427627680728044
9.337004405286345,18.99222662276182
9.356828193832602,18.53848873906506
9.376651982378855,18.06689374543386
9.396475770925111,17.57794464492567
9.416299559471367,17.072168271257446
9.436123348017622,16.550116054905942
9.455947136563877,16.012365081954762
9.475770925110133,15.45951953969948
9.49559471365639,14.892212676608697
9.515418502202644,14.311109451906104
9.5352422907489,13.71691011861172
9.555066079295155,13.110355083975078
9.57488986784141,12.492231539633643
9.594713656387666,11.863382577579861
9.614537444933923,11.224719851528281
9.634361233480178,10.577241381013787
9.654185022026432,9.922056955157005
9.674008810572689,9.2604249983629
9.693832599118945,8.5938071133208
9.713656387665198,7.923950557023968
9.733480176211454,7.253016023977286
9.75330396475771,6.583780970600325
9.773127753303967,5.91997245088957
9.792951541850222,5.266827746857023
9.812775330396477,4.632062622425347
9.832599118942733,4.027564644742908
9.852422907488988,3.4722886212542443
9.872246696035244,2.99663600609096
9.892070484581499,2.6463951235932277
9.911894273127754,2.4771375815111085
9.93171806167401,2.5263717162010204
9.951541850220266,2.7825110711925474
9.971365638766521,3.195495933076389
9.991189427312776,3.712169509155012
10.011013215859032,4.2937420839760785
10.030837004405289,4.915464127340844
10.050660792951543,5.561943431666293
10.070484581497798,6.223397278464878
10.090308370044054,6.893351393653933
10.11013215859031,7.567316319784604
10.129955947136565,8.242028196055298
10.14977973568282,8.915004641442916
10.169603524229077,9.584277789003533
10.189427312775331,10.24822912854566
10.209251101321588,10.905484462808692
10.229074889867842,11.554845363552321
10.248898678414099,12.195243396527037
10.268722466960353,12.825708914396573
10.28854625550661,13.445349391436494
10.308370044052865,14.053334143648566
10.32819383259912,14.648883406649086
10.348017621145376,15.231260441090479
10.367841409691632,15.799765775769197
10.387665198237887,16.353732982369294
10.407488986784141,16.892525562154276
10.427312775330398,17.41553464946012
10.447136563876654,17.92217732143392
10.466960352422909,18.41189536179376
10.486784140969164,18.88415436718033
10.50660792951542,19.338443113577643
10.526431718061675,19.774273121018652
10.546255506607931,20.19117836983952
10.566079295154186,20.58871513278797
10.585903083700442,20.966461895473
10.605726872246697,21.324019343767528
10.625550660792953,21.661010401401178
10.645374449339208,21.977080304505048
10.665198237885463,22.271896702579877
10.685022026431719,22.545149777458175
10.704845814977975,22.796552373471446
10.724669603524232,23.025840133325964
