Frequency (Hz),Amplitude
0.0,0.12581504363045148
0.019801980198019802,0.14121201190677912
0.039603960396039604,0.17960718937910117
0.0594059405940594,0.22963947171900623
0.07920792079207921,0.2851074064564373
0.09900990099009901,0.3432219499122589
0.1188118811881188,0.4026594604999128
0.13861386138613863,0.4627205969446458
0.15841584158415842,0.5229935278788279
0.1782178217821782,0.5832105711516575
0.19801980198019803,0.64318200669891
0.21782178217821782,0.702763119820674
0.2376237623762376,0.7618366855191564
0.25742574257425743,0.8203031323409986
0.27722772277227725,0.8780747571700578
0.297029702970297,0.9350721880192967
0.31683168316831684,0.991222150081657
0.33663366336633666,1.046456016532616
0.3564356435643564,1.1007088477390832
0.37623762376237624,1.1539187433541327
0.39603960396039606,1.2060264000055185
0.4158415841584158,1.256974807121538
0.43564356435643564,1.3067090374008623
0.45544554455445546,1.3551761032382013
0.4752475247524752,1.4023248597898141
0.495049504950495,1.4481059414254716
0.5148514851485149,1.4924717223160364
0.5346534653465347,1.5353762945953335
0.5544554455445545,1.5767754593739645
0.5742574257425742,1.6166267271592256
0.594059405940594,1.654889325133693
0.613861386138614,1.6915242093871963
0.6336633663366337,1.7264940806600773
0.6534653465346534,1.75976340249423
0.6732673267326733,1.7912984209400518
0.6930693069306931,1.8210671851532159
0.7128712871287128,1.849039568357868
0.7326732673267327,1.87518728875938
0.7524752475247525,1.8994839300736026
0.7722772277227723,1.921904961403475
0.7920792079207921,1.9424277562440901
0.8118811881188118,1.961031610438424
0.8316831683168316,1.9776977589365545
0.8514851485148516,1.9924093912381369
0.8712871287128713,2.0051516654186896
0.891089108910891,2.015911720657704
0.9108910891089109,2.0246786882016905
0.9306930693069307,2.031443700707337
0.9504950495049505,2.0361998999210766
0.9702970297029703,2.0389424426611757
0.99009900990099,2.0396685050765675
1.00990099009901,2.0383772851648123
1.0297029702970297,2.0350700035394613
1.0495049504950495,2.029749902443488
1.0693069306930694,2.0224222430130925
1.0891089108910892,2.0130943008036626
1.108910891089109,2.0017753595965333
1.1287128712871286,1.9884767035140989
1.1485148514851484,1.9732116074787398
1.1683168316831685,1.9559953260619891
1.188118811881188,1.9368450807806061
1.2079207920792079,1.9157800459098604
1.227722772277228,1.8928213328995556
1.2475247524752475,1.867991973496777
1.2673267326732673,1.8413169017015296
1.2871287128712872,1.812822934708764
1.3069306930693068,1.7825387530243977
1.3267326732673268,1.750494879985238
1.3465346534653466,1.7167236609666334
1.3663366336633662,1.6812592426302653
1.3861386138613863,1.6441375526540298
1.405940594059406,1.6053962805002262
1.4257425742574257,1.5650748599325572
1.4455445544554455,1.5232144541928792
1.4653465346534653,1.479857945022015
1.4851485148514851,1.4350499270769432
1.504950495049505,1.3888367098036716
1.5247524752475248,1.3412663295279488
1.5445544554455446,1.2923885755174684
1.5643564356435644,1.2422550351792245
1.5841584158415842,1.190919165601764
1.6039603960396038,1.1384364016572313
1.6237623762376237,1.0848643153755222
1.6435643564356437,1.0302628481616973
1.6633663366336633,0.9746946480975517
1.683168316831683,0.918225561557125
1.7029702970297032,0.8609253560905619
1.7227722772277227,0.802868798053652
1.7425742574257426,0.7441372889797456
1.7623762376237624,0.6848214089722191
1.782178217821782,0.6250249842574108
1.801980198019802,0.564871819786969
1.8217821782178218,0.5045173109082236
1.8415841584158414,0.4441694770806284
1.8613861386138615,0.38412935498456213
1.881188118811881,0.3248741122725336
1.900990099009901,0.26724215368801735
1.920792079207921,0.21288022927887176
1.9405940594059405,0.16537028360557662
1.9603960396039604,0.132587388581799
1.98019801980198,0.12670730952958328
2.0,0.15093411043199662
2.01980198019802,0.19425129239909142
2.0396039603960396,0.24668712127852094
2.0594059405940595,0.30340405037295637
2.0792079207920793,0.36222913042407984
2.099009900990099,0.4221002925990366
2.118811881188119,0.482437067367021
2.1386138613861387,0.5428864095091569
2.1584158415841586,0.6032120270155135
2.1782178217821784,0.6632420926840336
2.1980198019801978,0.722842668314547
2.217821782178218,0.7819033303196229
2.237623762376238,0.8403289770501098
2.257425742574257,0.8980349498422282
2.2772277227722775,0.95494401875509
2.297029702970297,1.010984462516355
2.3168316831683167,1.0660888143393923
2.336633663366337,1.1201930260127702
2.3564356435643563,1.1732359021335677
2.376237623762376,1.2251587131222865
2.3960396039603964,1.275904929115978
2.4158415841584158,1.325420037133274
2.4356435643564356,1.3736514165441045
2.455445544554456,1.42054825593137
2.4752475247524752,1.4660614996764225
2.495049504950495,1.5101438160825766
2.514851485148515,1.55274958120308
2.5346534653465347,1.5938348741563697
2.5544554455445545,1.6333574808385665
2.5742574257425743,1.671276903739969
2.594059405940594,1.7075543761435437
2.6138613861386135,1.7421528793975616
2.633663366336634,1.7750371622583396
2.6534653465346536,1.8061737615246913
2.673267326732673,1.835531023354309
2.6930693069306932,1.8630791247807568
2.712871287128713,1.8887900950470364
2.7326732673267324,1.9126378364473828
2.7524752475247527,1.9345981444280593
2.7722772277227725,1.9546487267436312
2.792079207920792,1.972769221502691
2.811881188118812,1.9889412139658842
2.8316831683168315,2.0031482519835695
2.8514851485148514,2.0153758599798492
2.8712871287128716,2.0256115514061266
2.891089108910891,2.033844839601338
2.910891089108911,2.04006724700745
2.9306930693069306,2.0442723126994733
2.9504950495049505,2.046455598198201
2.9702970297029703,2.046614691542132
2.99009900990099,2.044749209602618
3.00990099009901,2.0408607986338483
3.0297029702970297,2.034953133055867
3.0495049504950495,2.027031912476128
3.0693069306930694,2.0171048569623253
3.089108910891089,2.005181700586491
3.108910891089109,1.9912741832687733
3.128712871287129,1.9753960409578395
3.148514851485148,1.9575629941951318
3.1683168316831685,1.9377927351217197
3.1881188118811883,1.91610491299901
3.2079207920792077,1.8925211183316037
3.227722772277228,1.8670648656979922
3.2475247524752473,1.8397615754190626
3.267326732673267,1.8106385542213843
3.2871287128712874,1.7797249750882598
3.3069306930693068,1.7470518565349402
3.3267326732673266,1.7126520416007442
3.346534653465347,1.6765601769224032
3.366336633663366,1.6388126923454933
3.386138613861386,1.599447781653037
3.4059405940594063,1.5585053851493254
3.4257425742574257,1.5160271750517733
3.4455445544554455,1.4720565449305156
3.4653465346534653,1.4266386048279665
3.485148514851485,1.379820184230673
3.504950495049505,1.3316498458193293
3.5247524752475248,1.2821779139878993
3.5445544554455446,1.231456523649448
3.564356435643564,1.179539697067441
3.5841584158415842,1.1264834597362723
3.603960396039604,1.0723460112806673
3.6237623762376234,1.0171879749350974
3.6435643564356437,0.9610727610671361
3.6633663366336635,0.9040670993144153
3.683168316831683,0.8462418253764048
3.702970297029703,0.7876730618619829
3.722772277227723,0.7284440260335978
3.7425742574257423,0.6686478669620907
3.762376237623762,0.6083922556345016
3.7821782178217824,0.5478070880018936
3.801980198019802,0.4870579918626457
3.8217821782178216,0.42637128654359907
3.841584158415842,0.36608308923671035
3.8613861386138613,0.3067433618231358
3.881188118811881,0.24935577446899873
3.9009900990099013,0.19597795786069372
3.9207920792079207,0.1512497444149135
3.9405940594059405,0.12510327610967423
3.96039603960396,0.12947048765121022
3.98019801980198,0.16189798002771633
4.0,0.2096710108630103
4.01980198019802,0.26447804846593626
4.03960396039604,0.32260110298288214
4.0594059405940595,0.38235914798646564
4.079207920792079,0.44290637926674625
4.099009900990099,0.5037650466886197
4.118811881188119,0.564635039346881
4.138613861386139,0.6253093551843211
4.158415841584159,0.685633364525508
4.178217821782178,0.7454837338097366
4.198019801980198,0.8047568493173902
4.217821782178218,0.8633621326913523
4.237623762376238,0.9212180164025299
4.257425742574258,0.9782494348355735
4.2772277227722775,1.0343862145395402
4.297029702970297,1.0895620169442746
4.316831683168317,1.1437136310597251
4.336633663366336,1.1967804939014237
4.356435643564357,1.2487043626116372
4.376237623762377,1.2994290897290401
4.3960396039603955,1.3489004698637368
4.415841584158416,1.397066136571571
4.435643564356436,1.4438754949813761
4.455445544554455,1.4892796801564434
4.475247524752476,1.5332315341265512
4.4950495049504955,1.5756855965337857
4.514851485148514,1.6165981052209113
4.534653465346535,1.6559270040605814
4.554455445544555,1.693631956012897
4.574257425742574,1.7296743598941697
4.594059405940594,1.7640173696999484
4.613861386138614,1.7966259155916255
4.633663366336633,1.827466725852739
4.653465346534653,1.8565083492702923
4.673267326732674,1.8837211775088434
4.693069306930693,1.9090774671319095
4.712871287128713,1.9325513609921734
4.732673267326733,1.9541189087643371
4.752475247524752,1.9737580864359112
4.772277227722772,1.9914488146041522
4.792079207920793,2.0071729754540635
4.811881188118812,2.0209144283139477
4.8316831683168315,2.032659023702808
4.851485148514852,2.0423946157990938
4.871287128712871,2.0501110732726304
4.891089108910891,2.0558002884327493
4.910891089108912,2.0594561846548953
4.930693069306931,2.061074722056848
4.9504950495049505,2.0606539014032106
4.97029702970297,2.0581937662241163
4.99009900990099,2.0536964031410943
5.00990099009901,2.0471659403998084
5.02970297029703,2.038608544615971
5.0495049504950495,2.028032415748033
5.069306930693069,2.0154477803173
5.089108910891089,2.0008668829042557
5.108910891089109,1.9843039759586727
5.128712871287129,1.9657753079707447
5.148514851485149,1.945299110062082
5.1683168316831685,1.9228955810683883
5.188118811881188,1.8985868712016356
5.207920792079208,1.8723970643980319
5.227722772277227,1.8443521594814007
5.247524752475248,1.8144800502998084
5.267326732673268,1.782810505028499
5.2871287128712865,1.749375144876989
5.306930693069307,1.7142074224944999
5.326732673267327,1.6773426004410512
5.346534653465346,1.6388177301858384
5.366336633663367,1.598671632218717
5.3861386138613865,1.5569448780244803
5.405940594059405,1.513679774889476
5.425742574257426,1.4689203548068193
5.445544554455446,1.4227123691525771
5.465346534653465,1.3751032913671009
5.485148514851486,1.3261423306629452
5.504950495049505,1.2758804608984176
5.524752475247524,1.2243704703667988
5.544554455445545,1.1716670406072225
5.564356435643565,1.117826865850618
5.584158415841584,1.0629088300290102
5.603960396039604,1.00697426649627
5.623762376237624,0.9500873386024513
5.643564356435643,0.8923156003137541
5.663366336633663,0.8337308311019082
5.683168316831684,0.7744102994170273
5.702970297029703,0.7144387156776261
5.7227722772277225,0.6539113322666423
5.742574257425743,0.5929390264575382
5.762376237623762,0.5316569678978219
5.782178217821782,0.470240112424483
5.801980198019803,0.40893251515430834
5.821782178217822,0.34810670087245615
5.841584158415841,0.2883940694218047
5.861386138613861,0.2309989602932934
5.881188118811881,0.17852192521658333
5.900990099009901,0.13707846799737436
5.920792079207921,0.1190762583949545
5.9405940594059405,0.13438671599713492
5.96039603960396,0.17442041085078722
5.98019801980198,0.22632637466307043
6.0,0.2835244690212726
6.01980198019802,0.3432195223927682
6.03960396039604,0.4041299915294376
6.0594059405940595,0.46559100493764966
6.079207920792079,0.5272139140127831
6.099009900990099,0.5887460795843409
6.118811881188119,0.6500075217515854
6.138613861386139,0.7108598451895859
6.158415841584159,0.7711899036216264
6.178217821782178,0.8309007030859448
6.198019801980198,0.8899060877226466
6.217821782178218,0.9481275092571051
6.237623762376237,1.0054919974591858
6.257425742574258,1.061930850338461
6.2772277227722775,1.1173787705164457
6.297029702970296,1.1717732864739752
6.316831683168317,1.22505436044032
6.336633663366337,1.2771641213565745
6.356435643564356,1.3280466833234548
6.376237623762377,1.3776480234791493
6.396039603960396,1.4259159017986556
6.415841584158415,1.4727998108213471
6.435643564356436,1.5182509469465908
6.455445544554456,1.5622221973748824
6.475247524752475,1.6046681384352417
6.495049504950495,1.6455450421929063
6.514851485148515,1.6848108890422784
6.534653465346534,1.722425384568305
6.554455445544554,1.7583499793766615
6.574257425742575,1.7925478908981891
6.594059405940594,1.8249841263982278
6.6138613861386135,1.8556255065894847
6.633663366336634,1.884440689374335
6.653465346534653,1.9114001933388052
6.673267326732673,1.9364764206950265
6.693069306930694,1.9596436794268268
6.712871287128713,1.9808782044384021
6.732673267326732,2.0001581775419606
6.752475247524753,2.017463746149062
6.772277227722772,2.032777040553749
6.792079207920792,2.0460821897144723
6.811881188118813,2.0573653354578303
6.8316831683168315,2.066614645040432
6.851485148514851,2.0738203220162736
6.871287128712871,2.0789746153673723
6.891089108910891,2.0820718268635
6.910891089108911,2.0831083166251756
6.930693069306931,2.0820825068708793
6.9504950495049505,2.0789948838363563
6.97029702970297,2.073847997860509
6.99009900990099,2.066646461638322
7.00990099009901,2.057396946648138
7.02970297029703,2.04610817776702
7.0495049504950495,2.0327909260951444
7.069306930693069,2.017458000017515
7.089108910891089,2.000124234540178
7.108910891089109,1.9808064789472113
7.128712871287128,1.9595235828360433
7.148514851485149,1.9362963806013793
7.1683168316831685,1.9111476744532487
7.188118811881187,1.88410221607304
7.207920792079208,1.855186687033881
7.227722772277228,1.824429678139333
7.247524752475247,1.7918616678689048
7.267326732673268,1.7575150001627218
7.287128712871287,1.7214238618331839
7.306930693069306,1.6836242599634812
7.326732673267327,1.64415399974599
7.346534653465347,1.6030526633367577
7.366336633663366,1.5603615904654595
7.3861386138613865,1.5161238617591515
7.405940594059406,1.4703842860359975
7.425742574257425,1.4231893932333044
7.445544554455446,1.3745874352019722
7.465346534653466,1.324628397398564
7.485148514851485,1.27336402564695
7.504950495049505,1.220847873794027
7.524752475247524,1.1671353805173614
7.544554455445544,1.112283987187357
7.564356435643565,1.0563533142529058
7.584158415841584,0.9994054222970196
7.603960396039604,0.941505197753759
7.623762376237624,0.8827209259342429
7.643564356435643,0.8231251521520643
7.663366336633663,0.7627959980221282
7.683168316831684,0.7018192193850775
7.702970297029703,0.640291516210475
7.7227722772277225,0.5783260446822414
7.742574257425743,0.5160619930473755
7.762376237623762,0.45368209134673454
7.782178217821782,0.3914466802722672
7.801980198019803,0.32976519178089037
7.821782178217822,0.2693603705084514
7.841584158415841,0.21168678783767728
7.861386138613862,0.1600984378660706
7.881188118811881,0.12287916143929202
7.900990099009901,0.11516939168163079
7.92079207920792,0.14191712796045214
7.9405940594059405,0.18896830203463527
7.96039603960396,0.24477621947245515
7.980198019801979,0.30441919725184824
8.0,0.36585983335314315
8.01980198019802,0.42814300117303394
8.03960396039604,0.49075561918428406
8.05940594059406,0.5533860864737308
8.07920792079208,0.6158239508610537
8.099009900990099,0.6779137974493297
8.118811881188119,0.7395322518694004
8.138613861386139,0.8005757116779272
8.158415841584159,0.8609534275949924
8.178217821782178,0.9205834189638475
8.198019801980198,0.9793899697406236
8.217821782178218,1.037302045367177
8.237623762376238,1.0942522668217762
8.257425742574258,1.1501762329949563
8.277227722772277,1.2050120671130646
8.297029702970297,1.2587001108972153
8.316831683168317,1.3111827182703832
8.336633663366337,1.3624041174130308
8.356435643564357,1.4123103205060044
8.376237623762377,1.4608490671947978
8.396039603960396,1.507969792156498
8.415841584158416,1.553623610030397
8.435643564356436,1.597763312914461
8.455445544554456,1.6403433769615219
8.475247524752476,1.6813199755356087
8.495049504950495,1.720650997043876
8.514851485148515,1.758296066027769
8.534653465346535,1.7942165664366796
8.554455445544555,1.8283756662561836
8.574257425742575,1.8607383428475524
8.594059405940595,1.891271408493355
8.613861386138613,1.919943535748889
8.633663366336634,1.9467252822788559
8.653465346534654,1.9715891149210316
8.673267326732672,1.9945094327663706
8.693069306930694,2.0154625890833917
8.712871287128714,2.0344269119448217
8.732673267326732,2.0513827234387705
8.752475247524753,2.0663123573666407
8.772277227722773,2.079200175346135
8.792079207920791,2.090032581251692
8.811881188118813,2.0987980339358194
8.831683168316832,2.1054870581850005
8.85148514851485,2.1100922538724065
8.871287128712872,2.112608303277486
8.891089108910892,2.1130319765492884
8.91089108910891,2.1113621352971204
8.930693069306932,2.107599734298081
8.950495049504951,2.101747821317146
8.97029702970297,2.0938115350411124
8.990099009900991,2.083798101134055
9.00990099009901,2.071716826427775
9.029702970297029,2.057579091267659
9.04950495049505,2.0413983400411637
9.06930693069307,2.02319006992451
9.089108910891088,2.0029718178916434
9.10891089108911,1.9807631460403379
9.12871287128713,1.9565856253018934
9.148514851485148,1.9304628176156298
9.16831683168317,1.9024202566664996
9.188118811881187,1.872485427305
9.207920792079207,1.8406877437953741
9.227722772277229,1.807058527069864
9.247524752475247,1.771630981208855
9.267326732673267,1.7344401694191725
9.287128712871288,1.6955229898511013
9.306930693069306,1.6549181516839617
9.326732673267326,1.6126661520273289
9.346534653465348,1.5688092543417722
9.366336633663366,1.523391469293978
9.386138613861386,1.4764585392485925
9.405940594059407,1.4280579279957542
9.425742574257425,1.3782388178670353
9.445544554455445,1.3270521171759324
9.465346534653467,1.2745504820438638
9.485148514851485,1.220788358312046
9.504950495049505,1.1658220516698001
9.524752475247526,1.1097098377967158
9.544554455445544,1.052512129962533
9.564356435643564,0.9942917304105673
9.584158415841586,0.9351142061656647
9.603960396039604,0.875048453602554
9.623762376237623,0.8141675565175094
9.643564356435645,0.7525501137069528
9.663366336633663,0.6902823425917249
9.683168316831683,0.6274615151354446
9.702970297029704,0.5642017844078844
9.722772277227723,0.5006445298711575
9.742574257425742,0.43697778807153476
9.762376237623764,0.37347535546554
9.782178217821782,0.3105824692710978
9.801980198019802,0.24912419924949045
9.821782178217823,0.19087773683568587
9.841584158415841,0.1403116643740608
9.861386138613861,0.10907978423926434
9.881188118811881,0.11449138252773276
9.900990099009901,0.1527159041923968
9.92079207920792,0.20617810479972493
9.94059405940594,0.2657137715846138
9.96039603960396,0.32787750633263224
9.98019801980198,0.3912444726233999
10.0,0.45512447587713284
10.01980198019802,0.5191306996755972
10.03960396039604,0.5830173292679336
10.05940594059406,0.646610760900722
10.07920792079208,0.7097774266714681
10.099009900990099,0.7724074852930567
10.118811881188119,0.8344059976804746
10.138613861386139,0.8956878915238642
10.158415841584159,0.9561749603860272
10.178217821782178,1.0157940109940755
10.198019801980198,1.0744756866037601
10.217821782178218,1.1321537032312412
10.237623762376238,1.188764346099194
10.257425742574258,1.2442461346411466
10.277227722772277,1.2985395993227862
10.297029702970297,1.3515871341833632
10.316831683168317,1.4033329015660012
10.336633663366337,1.453722773354935
10.356435643564357,1.5027042980566743
10.376237623762377,1.5502266863404282
10.396039603960396,1.5962408098361125
10.415841584158416,1.6406992094676998
10.435643564356436,1.683556110619259
10.455445544554454,1.7247674431434552
10.475247524752476,1.7642908647282645
10.495049504950495,1.8020857865006974
10.514851485148514,1.838113400010595
10.534653465346535,1.8723367049320632
10.554455445544555,1.9047205369649902
10.574257425742573,1.9352315955276158
10.594059405940595,1.963838470914313
10.613861386138614,1.9905116706557695
10.633663366336632,2.015223644868599
10.653465346534654,2.037948810419545
10.673267326732674,2.0586635737604713
