Frequency (Hz),Amplitude
0.0,0.6237993259697486
0.04,0.6235931610286621
0.08,0.622975009105659
0.12,0.621945899652493
0.16,0.6205075509351224
0.19999999999999998,0.6186623738374395
0.24,0.6164134772551215
0.27999999999999997,0.6137646751489723
0.32,0.6107204953479025
0.36,0.607286190213131
0.39999999999999997,0.6034677492975697
0.44,0.599271914157349
0.48,0.594706195496385
0.52,0.5897788928495963
0.5599999999999999,0.5844991170353573
0.6,0.5788768156331418
0.64,0.5729228017668181
0.6799999999999999,0.5666487864973871
0.72,0.5600674151492981
0.76,0.5531923079102256
0.7999999999999999,0.5460381050526542
0.84,0.5386205171234427
0.88,0.5309563804298785
0.9199999999999999,0.5230637181116445
0.96,0.5149618070195597
1.0,0.5066712505135684
1.04,0.49821405713140915
1.0799999999999998,0.4896137248492813
1.1199999999999999,0.48089533033671045
1.1600000000000001,0.47208562217636707
1.2,0.4632131164474466
1.24,0.45430819232879094
1.28,0.44540318443262455
1.3199999999999998,0.43653246740254614
1.3599999999999999,0.42773252687829827
1.4,0.4190420092395743
1.44,0.4105017406164834
1.48,0.4021547035651882
1.52,0.3940459576921929
1.5599999999999998,0.38622248859830827
1.5999999999999999,0.378732968143374
1.64,0.37162740866797755
1.68,0.3649566950204332
1.72,0.3587719816588633
1.76,0.3531239483191026
1.7999999999999998,0.348061917142146
1.8399999999999999,0.34363284670295563
1.88,0.33988023339235923
1.92,0.3368429665878922
1.9599999999999997,0.3345541987190915
2.0,0.33304030186093364
2.0399999999999996,0.332319986057147
2.08,0.3324036491241085
2.12,0.33329301265688244
2.1599999999999997,0.33498107574109454
2.2,0.3374523897210312
2.2399999999999998,0.34068362873051883
2.28,0.3446444061191205
2.3200000000000003,0.3492982699619285
2.36,0.3546038033156644
2.4,0.3605157565936189
2.44,0.36698614857965084
2.48,0.37396528647779076
2.5199999999999996,0.3814026711426288
2.56,0.3892477688473385
2.6,0.3974506439741026
2.6399999999999997,0.40596245702229844
2.68,0.4147358391671925
2.7199999999999998,0.4237251585737404
2.76,0.43288669532808
2.8,0.44217874181721256
2.84,0.45156164424592815
2.88,0.4609977992098164
2.92,0.47045161720442474
2.96,0.47988946289098366
2.9999999999999996,0.48927958001302807
3.04,0.49859200714777097
3.08,0.5077984890152462
3.1199999999999997,0.5168723868571186
3.16,0.5257885904182987
3.1999999999999997,0.5345234332902529
3.2399999999999998,0.5430546127750202
3.28,0.5513611149726972
3.32,0.5594231454554893
3.36,0.567222065644063
3.4,0.574740334826457
3.44,0.581961457640099
3.4799999999999995,0.5888699367593591
3.52,0.595451230484516
3.5599999999999996,0.6016917149045009
3.5999999999999996,0.6075786502988191
3.64,0.6131001514487924
3.6799999999999997,0.6182451615413072
3.7199999999999998,0.6230034293663279
3.76,0.6273654895311762
3.7999999999999994,0.6313226454380241
3.84,0.6348669547955496
3.88,0.6379912174604477
3.9199999999999995,0.6406889654289762
3.96,0.642954454822946
4.0,0.6447826597380358
4.04,0.6461692678455088
4.079999999999999,0.6471106776608871
4.12,0.6476039974154637
4.16,0.6476470454885668
4.199999999999999,0.6472383523806559
4.24,0.6463771642296705
4.28,0.6450634478961002
4.319999999999999,0.6432978976659846
4.36,0.6410819436460055
4.4,0.6384177619514207
4.4399999999999995,0.6353082868158558
4.4799999999999995,0.6317572247827214
4.5200000000000005,0.62776907117137
4.56,0.6233491290476851
4.6,0.618503530968957
4.640000000000001,0.6132392638172498
4.68,0.6075641970841489
4.72,0.6014871150238109
4.76,0.595017753150031
4.8,0.5881668396177349
4.84,0.5809461420988912
4.88,0.5733685208375598
4.92,0.565447988646854
4.96,0.5571997786904928
5.0,0.54864042096975
5.039999999999999,0.5397878285079634
5.08,0.5306613942817187
5.12,0.5212820999789743
5.159999999999999,0.511672637654259
5.2,0.5018575452767449
5.24,0.49186335699812733
5.279999999999999,0.4817187686618638
5.319999999999999,0.47145481857790883
5.36,0.4611050828254933
5.3999999999999995,0.45070588322883
5.4399999999999995,0.44029650456442476
5.48,0.4299194153721821
5.52,0.4196204838118972
5.56,0.4094491761922981
5.6,0.39945872099860025
5.64,0.3897062154419682
5.68,0.38025264490639515
5.72,0.3711627786128667
5.76,0.3625048982130246
5.8,0.3543503112727443
5.84,0.3467726007477805
5.879999999999999,0.33984656718216966
5.92,0.33364683527529687
5.96,0.3282461229354206
5.999999999999999,0.32371320956522925
6.04,0.3201106886952744
6.08,0.31749264174309777
6.119999999999999,0.31590241419028725
6.16,0.31537070024187835
6.2,0.31591413598947493
6.239999999999999,0.31753455920149837
6.279999999999999,0.3202190204427118
6.32,0.32394053910580833
6.359999999999999,0.32865950862760884
6.3999999999999995,0.3343255864978586
6.44,0.3408798687869074
6.4799999999999995,0.3482571482362798
6.52,0.35638808306411385
6.56,0.3652011490245922
6.6,0.3746242977289092
6.64,0.38458629019622087
6.68,0.39501771048923423
6.72,0.4058516883391697
6.76,0.4170243728128171
6.8,0.4284752036548151
6.84,0.4401470256484401
6.88,0.451986086598942
6.92,0.46394195321757703
6.959999999999999,0.4759673725386529
7.0,0.488018100292443
7.04,0.5000527122627841
7.08,0.5120324102055102
7.119999999999999,0.5239208303696774
7.16,0.5356838599466949
7.199999999999999,0.5472894647423008
7.239999999999999,0.5587075298892495
7.28,0.5699097143735524
7.32,0.5808693194303818
7.359999999999999,0.5915611703936804
7.3999999999999995,0.6019615112892538
7.4399999999999995,0.6120479112943261
7.4799999999999995,0.6217991821079933
7.52,0.6311953052592395
7.5600000000000005,0.6402173684007906
7.599999999999999,0.6488475096834128
7.64,0.6570688693663836
7.68,0.6648655478878548
7.719999999999999,0.6722225696892548
7.76,0.6791258521577215
7.800000000000001,0.6855621791173889
7.839999999999999,0.6915191783634834
7.88,0.6969853027919012
7.92,0.7019498147310129
7.959999999999999,0.7064027731321291
8.0,0.7103350233206227
8.040000000000001,0.7137381890513039
8.08,0.7166046666501336
8.12,0.7189276210596995
8.159999999999998,0.7207009836390301
8.2,0.7219194515994831
8.24,0.7225784889882
8.28,0.7226743291595161
8.32,0.7222039787033431
8.36,0.7211652228280436
8.399999999999999,0.7195566322251353
8.44,0.7173775714737
8.48,0.7146282090755437
8.52,0.7113095292478977
8.56,0.7074233456398137
8.6,0.7029723171827243
8.639999999999999,0.6979599663356191
8.68,0.692390700042479
8.72,0.6862698337856951
8.76,0.6796036191959428
8.8,0.672399275768632
8.84,0.6646650273423337
8.879999999999999,0.6564101441187693
8.92,0.6476449911504257
8.959999999999999,0.6383810843957368
9.0,0.6286311556474772
9.040000000000001,0.6184092278843749
9.079999999999998,0.6077307028853373
9.12,0.5966124632881864
9.16,0.58507299167869
9.2,0.5731325097695954
9.24,0.5608131412810604
9.280000000000001,0.5481391027691219
9.32,0.5351369273679727
9.36,0.5218357272063084
9.399999999999999,0.5082675011021681
9.44,0.49446749498150006
9.48,0.4804746232041534
9.52,0.46633195944730066
9.559999999999999,0.45208730570916456
9.6,0.43779384690915674
9.639999999999999,0.4235108957870268
9.68,0.4093047273212393
9.72,0.3952494922366541
9.76,0.3814281833772019
9.8,0.36793360430911404
9.84,0.35486925379751494
9.879999999999999,0.3423499906171783
9.92,0.33050228056909525
9.959999999999999,0.31946375671894206
10.0,0.3093817591340228
10.04,0.3004104897286702
10.079999999999998,0.2927064639907303
10.12,0.28642211403372236
10.16,0.2816977297164287
10.2,0.2786523943671681
10.24,0.27737506589490935
10.280000000000001,0.277917273996711
10.319999999999999,0.28028884395597936
10.36,0.2844575360900534
10.4,0.290352644275643
10.44,0.2978717402569816
10.48,0.3068892003372989
10.52,0.3172650556970103
10.559999999999999,0.3288529974034812
10.6,0.3415068431980897
10.639999999999999,0.3550852374201804
10.68,0.3694546915803336
10.72,0.3844912544005684
10.76,0.40008115591206517
10.799999999999999,0.4161207478735767
10.84,0.4325160042426572
10.879999999999999,0.44918177866774534
10.92,0.46604095576855414
10.96,0.48302358497494435
11.0,0.5000660503887705
11.04,0.5171103056972215
11.08,0.534103187120747
11.12,0.5509958073865048
11.16,0.567743027879426
11.2,0.5843030030175966
11.24,0.6006367895208375
11.28,0.6167080129091304
11.319999999999999,0.632482583831354
11.36,0.6479284573995323
11.4,0.6630154294127883
11.44,0.6777149640944958
11.48,0.6920000486772108
11.52,0.7058450708228401
11.559999999999999,0.7192257154485129
11.6,0.7321188780384434
11.64,0.7445025919629688
11.68,0.7563559677032723
11.72,0.7676591422016046
11.759999999999998,0.7783932368290017
11.799999999999999,0.7885403226929172
11.84,0.7980833922014587
11.879999999999999,0.8070063359653684
11.92,0.8152939242573074
11.96,0.8229317923657195
11.999999999999998,0.8299064292797249
12.04,0.8362051692263749
12.08,0.8418161856536643
12.12,0.8467284873147317
12.16,0.8509319161621742
12.200000000000001,0.8544171468078549
12.239999999999998,0.8571756873445102
12.28,0.8591998813617637
12.32,0.8604829110218918
12.36,0.8610188010907925
12.4,0.8608024238477482
12.44,0.8598295048247172
12.479999999999999,0.858096629352352
12.52,0.8556012499171325
12.559999999999999,0.8523416943617771
12.6,0.848317174991356
12.64,0.8435277986801358
12.68,0.8379745781111314
12.719999999999999,0.8316594443223987
12.76,0.8245852607828971
12.799999999999999,0.8167558392785151
12.84,0.8081759579574687
12.88,0.7988513819672991
12.92,0.7887888872165075
12.959999999999999,0.7779962879175023
12.999999999999998,0.7664824687204016
13.04,0.754257422436968
13.08,0.7413322945919197
13.12,0.7277194363377019
13.16,0.7134324676480189
13.2,0.6984863531880136
13.239999999999998,0.6828974938774593
13.28,0.6666838379606449
13.32,0.6498650164300485
13.36,0.6324625089985264
13.4,0.6144998485819367
13.44,0.5960028745843569
13.479999999999999,0.5770000483670433
13.52,0.557522848396251
13.559999999999999,0.5376062680666488
13.6,0.5172894465752287
13.64,0.49661647312695734
13.68,0.47563741803455467
13.719999999999999,0.45440966198005134
13.76,0.43299961802060705
13.799999999999999,0.4114849709065224
13.84,0.38995759516404493
13.88,0.36852735489020255
13.919999999999998,0.34732702578804775
13.959999999999999,0.32651859120686355
14.0,0.30630109780461046
14.04,0.2869200082845642
14.08,0.2686773671472452
14.120000000000001,0.2519408083386502
14.16,0.23714719020671082
14.2,0.22479359421059583
14.239999999999998,0.21540616752305855
14.28,0.20947989564178793
14.32,0.20739472909259507
14.36,0.20933363134522545
14.399999999999999,0.2152400503065641
14.44,0.22483766009433143
14.479999999999999,0.23770064341790503
14.52,0.2533390201373212
14.56,0.2712676915625972
14.6,0.291047286314789
14.64,0.31230043169676536
14.68,0.33471250979561457
14.719999999999999,0.35802489402110926
14.76,0.3820257372961165
14.799999999999999,0.4065409013615494
14.84,0.4314260764840851
14.879999999999999,0.45656034505026777
14.919999999999998,0.481841093766122
14.959999999999999,0.50718006064964
15.0,0.5325002890197973
15.04,0.5577337870954642
15.079999999999998,0.5828197289640339
15.120000000000001,0.6077030683329804
15.159999999999998,0.6323334665386808
15.199999999999998,0.6566644601430273
15.24,0.6806528117902269
15.28,0.7042580018632716
15.319999999999999,0.7274418288753071
15.36,0.7501680942987142
15.399999999999999,0.772402353338177
15.439999999999998,0.7941117174987085
15.48,0.8152646980633088
15.52,0.8358310820570993
15.559999999999999,0.8557818341414559
15.600000000000001,0.8750890193041774
15.639999999999999,0.8937257423017416
15.679999999999998,0.9116661006494816
15.72,0.9288851486063189
15.76,0.945358870107607
15.799999999999999,0.9610641589966324
15.84,0.9759788052183397
15.879999999999999,0.9900814858862202
15.919999999999998,1.0033517603305797
15.96,1.0157700683939972
16.0,1.027317731366521
16.04,1.0379769550556712
16.080000000000002,1.047730834569421
16.12,1.0565633604582438
16.16,1.0644594259179727
16.200000000000003,1.071404834801206
16.24,1.0773863102229704
16.279999999999998,1.0823915035782041
16.319999999999997,1.0864090038151495
16.36,1.0894283468314319
16.4,1.0914400248787628
16.439999999999998,1.0924354958786548
16.48,1.0924071925661811
16.52,1.0913485313912972
16.56,1.0892539211189258
16.6,1.0861187710793687
16.64,1.081939499030484
16.68,1.0767135386026738
16.72,1.0704393463070812
16.759999999999998,1.063116408097154
16.799999999999997,1.054745245483956
16.84,1.045327421216883
16.88,1.0348655445539732
16.919999999999998,1.02336327616059
16.96,1.010825332692294
17.0,0.9972574911385305
17.04,0.9826665930288124
17.080000000000002,0.9670605486345468
17.12,0.9504483413391828
17.16,0.9328400323995305
17.2,0.9142467663860693
17.24,0.8946807776743503
17.279999999999998,0.8741553984706432
17.32,0.8526850690025585
17.36,0.8302853507037359
17.4,0.8069729434909334
17.44,0.7827657086020259
17.48,0.7576826989780541
17.52,0.7317441998974951
17.56,0.7049717836063218
17.6,0.6773883831880139
17.64,0.6490183931277012
17.68,0.6198878073357714
17.72,0.5900244104517234
17.759999999999998,0.5594580461286566
17.799999999999997,0.5282209985608218
17.84,0.4963485440507122
17.88,0.4638797639197796
17.919999999999998,0.4308587698728773
17.96,0.39733660021663614
18.0,0.3633742454108618
18.04,0.32904765120177243
18.080000000000002,0.29445634521885544
18.12,0.2597390579935208
18.159999999999997,0.22510367481374166
18.2,0.1908885697624505
18.24,0.15769751932317147
18.279999999999998,0.1267157167003067
18.32,0.1004456851171998
18.36,0.08391674217176874
18.4,0.08355219493417197
18.44,0.09980868945427954
18.48,0.12660659481644987
18.52,0.1587987120654608
18.560000000000002,0.19377179629077662
18.6,0.2302854869921716
18.64,0.26770821383095006
18.679999999999996,0.3056851439518649
18.72,0.34399651350299015
18.759999999999998,0.38249344997524864
18.799999999999997,0.42106675686037426
18.84,0.45963069698169023
18.88,0.4981140707195269
18.919999999999998,0.5364550616513329
18.96,0.5745981329248888
19.0,0.612492092236128
19.04,0.6500888498705067
19.080000000000002,0.6873426024118007
19.119999999999997,0.7242092860648489
19.159999999999997,0.7606462054680254
19.2,0.7966117795328312
19.24,0.8320653670312331
19.279999999999998,0.8669671475891236
19.32,0.9012780418474975
19.36,0.9349596597444613
19.4,0.9679742692672275
19.44,1.0002847802867065
19.48,1.0318547396225157
19.52,1.0626483345440836
19.560000000000002,1.0926304026532976
19.6,1.1217664466184745
19.639999999999997,1.1500226526060964
19.68,1.1773659115300346
19.72,1.203763842439156
19.759999999999998,1.2291848175132205
19.8,1.2535979882488575
19.84,1.2769733125022225
19.88,1.2992815821194228
19.919999999999998,1.320494450936037
19.96,1.3405844629655341
20.0,1.3595250806273431
20.04,1.377290712889276
20.08,1.3938567432186044
20.119999999999997,1.4091995572519156
20.159999999999997,1.4232965701068765
20.2,1.436126253269958
20.24,1.4476681610034243
20.279999999999998,1.4579029562231476
20.32,1.4668124358058388
20.36,1.4743795552911658
20.4,1.4805884529503075
20.44,1.4854244731987682
20.48,1.488874189337469
20.52,1.490925425612362
20.560000000000002,1.4915672785899177
20.599999999999998,1.4907901378529955
20.639999999999997,1.4885857060301566
20.68,1.4849470181808053
20.72,1.4798684605695145
20.759999999999998,1.4733457888755044
20.8,1.465376145898531
20.84,1.4559580788402195
20.88,1.4450915562617332
20.92,1.4327779848448452
20.96,1.4190202261158784
21.0,1.4038226133316278
21.04,1.3871909687756852
21.08,1.369132621775393
21.119999999999997,1.3496564278270995
21.159999999999997,1.3287727893160204
21.2,1.3064936784424561
21.24,1.2828326631279479
21.279999999999998,1.2578049368843345
21.32,1.2314273539026073
21.36,1.2037184709790254
21.4,1.1746985983757696
21.44,1.14438986235672
21.48,1.112816283010841
21.52,1.080003872169747
21.56,1.045980757878626
21.599999999999998,1.0107773441956711
21.639999999999997,0.9744265183808483
21.68,0.9369639222603218
21.72,0.8984283114489369
21.759999999999998,0.8588620363352467
21.8,0.8183116941435236
21.84,0.7768290250436399
21.88,0.7344721623148124
21.92,0.6913074057867385
21.96,0.6474117846433696
22.0,0.6028768380084167
22.04,0.5578143208798539
22.08,0.5123650359726851
22.119999999999997,0.4667128860587897
22.16,0.4211079018610179
22.2,0.3759051334611686
22.24,0.3316321711041584
22.28,0.28910840348049527
22.32,0.2496529368276836
22.36,0.21541288690484486
22.4,0.18970651696849283
22.44,0.1767546461821446
22.48,0.1797285957642017
22.519999999999996,0.19821108265394372
22.56,0.22868249730929022
22.599999999999998,0.2672127027314517
22.639999999999997,0.3109057493083595
22.68,0.35791919953937334
22.72,0.40711418215595446
22.759999999999998,0.45777097955154905
22.8,0.5094150787704546
22.84,0.5617178131800167
22.88,0.6144397700110844
22.92,0.6673978913222139
22.96,0.7204458033427644
23.0,0.7734617027691635
23.04,0.8263406825148295
23.08,0.8789897415231971
23.119999999999997,0.9313244629564205
23.16,0.983266756721029
23.2,1.0347432974958257
23.24,1.0856844273853066
23.28,1.1360233753028077
23.32,1.1856956962974912
23.36,1.2346388662240355
23.400000000000002,1.282791987842721
23.44,1.3300955779931596
23.479999999999997,1.3764914145251905
23.519999999999996,1.421922427799658
23.56,1.4663326257907632
23.599999999999998,1.5096670447678713
23.639999999999997,1.5518717196189198
23.68,1.5928936693705797
23.72,1.6326808945425344
23.759999999999998,1.671182383765605
23.8,1.708348127680206
23.84,1.7441291385699211
23.88,1.7784774745154943
23.92,1.8113462671060336
23.96,1.842689751937171
23.999999999999996,1.8724633012750136
24.04,1.9006234583811534
24.08,1.9271279730853608
24.119999999999997,1.951935838265009
24.16,1.975007326948254
24.2,1.9963040298045562
24.24,2.015788892824341
24.28,2.0334262550208053
24.32,2.049181886013302
24.36,2.0630230233738183
24.400000000000002,2.074918409637558
24.439999999999998,2.0848383288956533
24.479999999999997,2.092754642903671
24.52,2.0986408266542163
24.56,2.1024720033761612
24.599999999999998,2.1042249789373493
24.64,2.1038782756423733
24.68,2.1014121654330924
24.72,2.0968087025170608
24.759999999999998,2.0900517554689726
24.8,2.0811270388734555
24.84,2.0700221446045997
24.88,2.0567265728702036
24.92,2.0412317631883714
24.959999999999997,2.0235311255122506
24.999999999999996,2.0036200717789305
25.04,1.9814960482332207
25.08,1.9571585689716837
25.119999999999997,1.9306092512722008
25.16,1.9018518534282696
25.2,1.8708923160058681
25.24,1.8377388076997396
25.28,1.8024017773060759
25.32,1.7648940137797162
25.36,1.7252307169477907
25.4,1.6834295822679903
25.439999999999998,1.639510904134829
25.479999999999997,1.59349770377781
25.52,1.5454158899496255
25.56,1.4952944636529582
25.599999999999998,1.4431657825345303
25.64,1.3890659069577878
25.68,1.3330350592172335
25.72,1.275118241598329
25.76,1.2153660808539553
25.8,1.1538360009430664
25.84,1.0905938808242708
25.880000000000003,1.0257164443863738
25.919999999999998,0.9592947820380401
25.959999999999997,0.8914396686373145
25.999999999999996,0.822289819006949
26.04,0.7520251099935019
26.08,0.6808885167212542
26.119999999999997,0.6092239760345692
26.16,0.5375446608641956
26.2,0.46666189439116684
26.24,0.3979391120101273
26.28,0.3338024894301916
26.32,0.27870785177600477
26.36,0.24039448783491293
26.4,0.2289121456505392
26.439999999999998,0.24924231785876305
26.479999999999997,0.29584992623954814
26.52,0.3593803197477524
26.56,0.4330124536675025
26.599999999999998,0.5128530863563311
26.64,0.5967573118653599
26.68,0.6834949569346617
26.72,0.7723147142817638
26.76,0.8627258300075451
26.8,0.9543860588115708
26.84,1.0470416626491605
26.88,1.140493803035564
26.919999999999998,1.2345789060498416
26.959999999999997,1.3291567477878468
27.0,1.4241029792944508
27.04,1.5193042986180538
27.08,1.6146552536676941
27.119999999999997,1.7100560796728492
27.16,1.805411210566488
27.2,1.900628239933639
27.24,1.9956171884034417
27.28,2.0902899840732463
27.32,2.1845600937165264
27.36,2.2783422624985987
27.4,2.371552332985247
27.439999999999998,2.4641071229309857
27.479999999999997,2.55592434723074
27.52,2.6469225734788298
27.56,2.7370212034157926
27.599999999999998,2.826140474552553
27.64,2.9142014777029934
27.68,3.001126187202193
27.72,3.086837501356426
27.76,3.1712592912417246
27.8,3.254316456396104
27.839999999999996,3.3359349862754843
