Time (s),Filtered Signal
0.0,-0.06308404468759699
0.03337028824833703,-0.5910190669061985
0.06674057649667406,-1.0239873939941628
0.10011086474501109,-1.2902969382354428
0.13348115299334812,-1.355302813605441
0.16685144124168516,-1.2246637427425577
0.20022172949002218,-0.9370803787002635
0.2335920177383592,-0.5510973173974575
0.26696230598669624,-0.13120002045162105
0.3003325942350333,0.26334081360337835
0.3337028824833703,0.5858401803350604
0.3670731707317073,0.8062594866194026
0.40044345898004435,0.9127157006894887
0.4338137472283814,0.910896133184915
0.4671840354767184,0.8216277189199173
0.5005543237250555,0.6768618470887349
0.5339246119733925,0.5143356040345499
0.5672949002217295,0.37109872682862377
0.6006651884700666,0.2762583273218607
0.6340354767184035,0.24399353494170162
0.6674057649667406,0.26890224304258414
0.7007760532150776,0.32620939597456056
0.7341463414634146,0.37838229250042277
0.7675166297117517,0.3871582036153529
0.8008869179600887,0.32702062695769163
0.8342572062084257,0.19462642659448964
0.8676274944567628,0.009943567402582596
0.9009977827050998,-0.1913908177518785
0.9343680709534368,-0.37078632968389086
0.9677383592017739,-0.4986813609528914
1.001108647450111,-0.5612021117586407
1.0344789356984478,-0.5604135338116193
1.067849223946785,-0.5103420825942668
1.101219512195122,-0.43190866174740455
1.134589800443459,-0.3484798786218868
1.167960088691796,-0.2816933306591719
1.2013303769401331,-0.2465578684732456
1.23470066518847,-0.2461713612216435
1.268070953436807,-0.2684787759625518
1.3014412416851442,-0.2882461099795196
1.3348115299334813,-0.2756369346807724
1.3681818181818182,-0.20911936074491771
1.4015521064301553,-0.08713334561352337
1.4349223946784924,0.06764810905342838
1.4682926829268292,0.21466459515208958
1.5016629711751663,0.31039733203624337
1.5350332594235034,0.3251984124562388
1.5684035476718403,0.25399319348424043
1.6017738359201774,0.11583903845172738
1.6351441241685145,-0.056750418120984164
1.6685144124168514,-0.23224896120797778
1.7018847006651885,-0.38999435130981486
1.7352549889135256,-0.5203018542388028
1.7686252771618625,-0.6160669286955287
1.8019955654101996,-0.6629500952517253
1.8353658536585367,-0.636663601902761
1.8687361419068735,-0.5116574650470914
1.9021064301552106,-0.27793161651746356
1.9354767184035477,0.043640636820782085
1.9688470066518848,0.398079993919676
2.002217294900222,0.7102640708824864
2.035587583148559,0.9119086186935103
2.0689578713968957,0.9694643392710169
2.102328159645233,0.8989420165547345
2.13569844789357,0.7592969775645797
2.1690687361419068,0.6264050508953243
2.202439024390244,0.5594177779808999
2.235809312638581,0.575264751779562
2.269179600886918,0.6431973063163338
2.302549889135255,0.7015318892639731
2.335920177383592,0.6880918799542146
2.369290465631929,0.5695720791143526
2.4026607538802662,0.3561459069044444
2.436031042128603,0.09530932912690025
2.46940133037694,-0.1508528174228772
2.5027716186252773,-0.3332344322942955
2.536141906873614,-0.4350066909300431
2.569512195121951,-0.4746026717291555
2.6028824833702884,-0.49276352749529984
2.6362527716186253,-0.5312992399540738
2.6696230598669626,-0.6139118257893121
2.7029933481152995,-0.7369031971005447
2.7363636363636363,-0.8719951648535306
2.7697339246119737,-0.9781493183916925
2.8031042128603105,-1.016612688328697
2.8364745011086474,-0.9637774388644239
2.8698447893569847,-0.81847274858011
2.9032150776053216,-0.6023838731846739
2.9365853658536585,-0.353786497985285
2.969955654101996,-0.11611484955389617
3.0033259423503327,0.07549564453048344
3.0366962305986696,0.20511630635604444
3.070066518847007,0.27984248753421476
3.1034368070953438,0.3243658864559127
3.1368070953436806,0.36824168938604673
3.170177383592018,0.4314644291530412
3.203547671840355,0.5149678264914782
3.2369179600886917,0.6002389120720797
3.270288248337029,0.6577302538111462
3.303658536585366,0.6597186287244041
3.337028824833703,0.5917791454361484
3.37039911308204,0.45851260536776967
3.403769401330377,0.28228590407621823
3.437139689578714,0.09660740241941865
3.470509977827051,-0.06291103108007769
3.503880266075388,-0.1673046729747427
3.537250554323725,-0.20101130554323204
3.5706208425720622,-0.16574105866091302
3.603991130820399,-0.08084922332885203
3.637361419068736,0.02036630192428783
3.6707317073170733,0.09862512784948915
3.70410199556541,0.11989952147682693
3.737472283813747,0.06721513104412223
3.7708425720620844,-0.051108414934754834
3.8042128603104213,-0.20088673949845848
3.8375831485587586,-0.33118450885264866
3.8709534368070955,-0.3913724861457225
3.9043237250554323,-0.3504812485224831
3.9376940133037697,-0.2111238673185511
3.9710643015521065,-0.01142866768193341
4.004434589800444,0.18716092796389489
4.037804878048781,0.32237598851838584
4.071175166297118,0.3552034313682388
4.1045454545454545,0.28555669663449085
4.137915742793791,0.15262675801018025
4.171286031042128,0.01927857795455892
4.204656319290466,-0.05340394451317615
4.238026607538803,-0.031063580792376665
4.27139689578714,0.07976493816089973
4.304767184035477,0.2340976345824129
4.3381374722838135,0.36645368973299475
4.371507760532151,0.41678778503544445
4.404878048780488,0.3537245396889841
4.438248337028825,0.18586849756500595
4.471618625277162,-0.04276645105260629
4.504988913525499,-0.27053640387325273
4.538359201773836,-0.44139485249223653
4.571729490022173,-0.5242247844756336
4.60509977827051,-0.5211522500045704
4.638470066518847,-0.46251155179405834
4.671840354767184,-0.39147021842241086
4.705210643015521,-0.34518889354256405
4.738580931263858,-0.3403959205976061
4.771951219512196,-0.36903244943471003
4.8053215077605325,-0.40503637012787674
4.838691796008869,-0.4183280907596504
4.872062084257206,-0.38895623326636386
4.905432372505543,-0.31471764500317573
4.93880266075388,-0.20924436530712617
4.972172949002218,-0.09263637956968127
5.005543237250555,0.01950726341672716
5.0389135254988915,0.12238249877574897
5.072283813747228,0.22045049908295622
5.105654101995565,0.3198143007283194
5.139024390243902,0.4199975917574375
5.17239467849224,0.5109434923581092
5.205764966740577,0.5775871353455341
5.239135254988914,0.6091716941110648
5.2725055432372505,0.6069580946743739
5.305875831485587,0.5846579300458123
5.339246119733925,0.5605945538981654
5.372616407982262,0.5462118417446915
5.405986696230599,0.5382059813222099
5.439356984478936,0.5193400084485571
5.472727272727273,0.46746056659931223
5.5060975609756095,0.3672522927543988
5.539467849223947,0.2181432531228674
5.572838137472284,0.03485956505302668
5.606208425720621,-0.15819800123325378
5.639578713968958,-0.3346575390491049
5.672949002217295,-0.4722214027240044
5.706319290465632,-0.5558715858600065
5.7396895787139695,-0.5793751972230591
5.773059866962306,-0.5466013996513859
5.806430155210643,-0.4727167086885559
5.83980044345898,-0.3836130813888403
5.873170731707317,-0.31155021365775837
5.906541019955654,-0.2864986313928211
5.939911308203992,-0.3252798648322618
5.9732815964523285,-0.4227838182268782
6.006651884700665,-0.5498861960339375
6.040022172949002,-0.6606235000421274
6.073392461197339,-0.707330113901911
6.106762749445676,-0.658455345782614
6.140133037694014,-0.5116842222436503
6.173503325942351,-0.2961687250053303
6.2068736141906875,-0.06198404429609747
6.240243902439024,0.1394729417122498
6.273614190687361,0.2761706573471422
6.306984478935698,0.3483962761941981
6.340354767184036,0.3881562393416265
6.373725055432373,0.44474493653565744
6.40709534368071,0.5619514366724303
6.4404656319290465,0.756018147686509
6.473835920177383,1.0035731804945542
6.507206208425721,1.245199047821442
6.540576496674058,1.4042465892172902
6.573946784922395,1.4141511522435608
6.607317073170732,1.2435018243204874
6.640687361419069,0.9085423063067898
6.674057649667406,0.467944078628869
6.707427937915743,0.0024395271416862265
6.74079822616408,-0.4115848773580608
6.774168514412417,-0.7235229251478226
6.807538802660754,-0.9174823033068162
6.840909090909091,-1.0077808055027482
6.874279379157428,-1.0259225235120404
6.9076496674057655,-1.0061782351238455
6.941019955654102,-0.9751535884025161
6.974390243902439,-0.947087300791316
7.007760532150776,-0.923668110616318
7.041130820399113,-0.8962372937911351
7.07450110864745,-0.8489938897639062
7.107871396895788,-0.763004966751993
7.1412416851441245,-0.62138607621756
7.174611973392461,-0.41557036640382816
7.207982261640798,-0.15138246021999766
7.241352549889135,0.14759246132661022
7.274722838137472,0.44212173941212013
7.30809312638581,0.6862570669444684
7.341463414634147,0.8413990896809235
7.3748337028824835,0.8905238545693474
7.40820399113082,0.8460647089858435
7.441574279379157,0.7466421251194684
7.474944567627494,0.6425541496555671
7.508314855875832,0.5755488900056107
7.541685144124169,0.5618740905759637
7.575055432372506,0.5867435156187397
7.6084257206208425,0.6131946282054644
7.641796008869179,0.6012683749604544
7.675166297117517,0.5281760015307015
7.708536585365854,0.39951895400724285
7.741906873614191,0.24614375211975129
7.775277161862528,0.10851344107315868
7.808647450110865,0.016702257725466813
7.842017738359202,-0.023977050726827653
7.875388026607539,-0.03496517409332339
7.908758314855876,-0.05378017509426735
7.942128603104213,-0.11649558216706832
7.97549889135255,-0.2418839249215551
8.008869179600888,-0.42404796314684656
8.042239467849225,-0.635709164033963
8.075609756097561,-0.8393945832158992
8.108980044345898,-1.0008962158046415
8.142350332594235,-1.0994332306635441
8.175720620842572,-1.131237679706424
8.209090909090909,-1.1063347631586247
8.242461197339246,-1.0407769579556054
8.275831485587583,-0.9478506545892212
8.30920177383592,-0.8317386575298307
8.342572062084257,-0.686017886769994
8.375942350332595,-0.4975398586927431
8.409312638580932,-0.25419052365011696
8.442682926829269,0.04653206540334728
8.476053215077606,0.39156856628673914
8.509423503325943,0.7514107038961554
8.54279379157428,1.0847639628182806
8.576164079822616,1.3472994535222715
8.609534368070953,1.5018836919785363
8.64290465631929,1.5275435932343302
8.676274944567627,1.4249738417285949
8.709645232815964,1.217196603160181
8.743015521064303,0.9449277864528217
8.77638580931264,0.6574154638712293
8.809756097560976,0.40091155991983163
8.843126385809313,0.20797293136857462
8.87649667405765,0.09075836429607212
8.909866962305987,0.04014659917778506
8.943237250554324,0.030403942955090496
8.97660753880266,0.02735139954076778
9.009977827050998,-0.0026291948455942813
9.043348115299334,-0.08481773961880976
9.076718403547671,-0.23060455692728538
9.110088691796008,-0.43446735700323263
9.143458980044347,-0.6737783603262686
9.176829268292684,-0.9120432777357858
9.21019955654102,-1.106027530568078
9.243569844789358,-1.216151150260776
9.276940133037694,-1.217782997791383
9.310310421286031,-1.109619658790649
9.343680709534368,-0.9153668423000582
9.377050997782705,-0.6770086662736917
9.410421286031042,-0.44143570435126195
9.443791574279379,-0.24542777306760322
9.477161862527716,-0.10506721104217613
9.510532150776053,-0.01369501123753716
9.543902439024391,0.05161188844366558
9.577272727272728,0.11902776064220721
9.610643015521065,0.21182262345394884
9.644013303769402,0.3425679430275255
9.677383592017739,0.5116044513287049
9.710753880266076,0.7071998596164473
9.744124168514412,0.9053982080036291
9.77749445676275,1.0705386821204317
9.810864745011086,1.1599328316103275
9.844235033259423,1.1353712390900303
9.87760532150776,0.979574031483918
9.910975609756099,0.71019000245446
9.944345898004435,0.38180541263851075
9.977716186252772,0.07047069742835885
10.01108647450111,-0.15556462245897013
10.044456762749446,-0.2658890228876522
10.077827050997783,-0.28248170012064894
10.11119733924612,-0.26877812555768565
10.144567627494457,-0.2966220842801087
10.177937915742794,-0.4074876467655619
10.21130820399113,-0.588801771456564
10.244678492239467,-0.778661657362958
10.278048780487804,-0.896700686949161
10.311419068736143,-0.8844035664522168
10.34478935698448,-0.7332954104539895
10.378159645232817,-0.4867734601777015
10.411529933481154,-0.21629381073887777
10.44490022172949,0.013644618830580945
10.478270509977827,0.17239060532342626
10.511640798226164,0.2686621674310039
10.545011086474501,0.3343181484909898
10.578381374722838,0.397986805080178
10.611751662971175,0.4647243232921889
10.645121951219512,0.513101763354913
10.67849223946785,0.510354532233266
10.711862527716187,0.4358083118582173
10.745232815964524,0.2983764361929902
10.778603104212861,0.1375473582043623
10.811973392461198,0.006608282102657654
10.845343680709535,-0.053298835366860205
10.878713968957872,-0.03453424044447451
10.912084257206208,0.031860822116492285
10.945454545454545,0.09046211892427365
10.978824833702882,0.08847029695593676
11.012195121951219,0.002080795755128504
11.045565410199556,-0.15083395995296228
11.078935698447895,-0.3178729870274994
11.112305986696231,-0.43544340904224205
11.145676274944568,-0.45705318076612467
11.179046563192905,-0.37356716958484165
11.212416851441242,-0.2168850504617677
11.245787139689579,-0.04642999207858434
11.279157427937916,0.07480476481626062
11.312527716186253,0.10428757307003804
11.34589800443459,0.034773384851077255
11.379268292682926,-0.1048099603652106
11.412638580931263,-0.2614905195079919
11.4460088691796,-0.3779843578964895
11.479379157427939,-0.4126073611040076
11.512749445676276,-0.3525406848182419
11.546119733924613,-0.21615755981391976
11.57949002217295,-0.04370749131111411
11.612860310421286,0.12045445317409414
11.646230598669623,0.24749293892200058
11.67960088691796,0.3372022888287936
11.712971175166297,0.41752236110196567
11.746341463414634,0.5284481639019993
11.77971175166297,0.6959243366705804
11.813082039911308,0.9079591458289914
11.846452328159646,1.106630673774485
11.879822616407983,1.203664362046528
11.91319290465632,1.1157631378691308
11.946563192904657,0.8046202842008808
11.979933481152994,0.3020948273502261
12.01330376940133,-0.29327525116396036
12.046674057649668,-0.8487080275154785
12.080044345898004,-1.2445209450666563
12.113414634146341,-1.415069923646359
12.146784922394678,-1.3656870606452078
12.180155210643015,-1.1603891264940198
12.213525498891352,-0.8891112206475194
12.24689578713969,-0.6314265325960747
12.280266075388028,-0.43260992441396556
12.313636363636364,-0.29931359974294897
12.347006651884701,-0.2115451051548859
12.380376940133038,-0.1408089548239406
12.413747228381375,-0.06408792191457215
12.447117516629712,0.03133099674650512
12.480487804878049,0.15036969664268657
12.513858093126386,0.2941994636894037
12.547228381374723,0.46080289524642104
12.58059866962306,0.6413482711819535
12.613968957871396,0.8160203352661297
12.647339246119735,0.9542560235150694
12.680709534368072,1.0218306987646288
12.714079822616409,0.9927671190932781
12.747450110864746,0.8605640968003244
12.780820399113082,0.6429074557797999
12.81419068736142,0.37700519655802794
12.847560975609756,0.10731360710941794
12.880931263858093,-0.1287933180546187
12.91430155210643,-0.3109299782180908
12.947671840354767,-0.4371526353793861
12.981042128603104,-0.5174552152103201
13.014412416851442,-0.5638733806856218
13.04778270509978,-0.5830751270585721
13.081152993348116,-0.5752049274406323
13.114523281596453,-0.5386299962618715
13.14789356984479,-0.476683356920507
13.181263858093127,-0.40156398156326834
13.214634146341464,-0.3325354259360568
13.2480044345898,-0.28900689445811334
13.281374722838137,-0.2818979347994546
13.314745011086474,-0.3074904565417865
13.348115299334811,-0.34670571339088635
13.381485587583148,-0.3703740147656683
13.414855875831487,-0.3487576850233083
13.448226164079824,-0.26209931619181004
13.48159645232816,-0.10856635919775076
13.514966740576497,0.0933466356670803
13.548337028824834,0.3092502969273001
13.581707317073171,0.49915547950270556
13.615077605321508,0.6303926717675814
13.648447893569845,0.6884685379784371
13.681818181818182,0.6813381488914851
13.715188470066519,0.6347418200354268
13.748558758314855,0.5799699670698922
13.781929046563192,0.5391934543189683
13.815299334811531,0.5153094285398027
13.848669623059868,0.4916674412669436
13.882039911308205,0.44231675130015363
13.915410199556542,0.34775430496009624
13.948780487804878,0.20770168655748114
13.982150776053215,0.043496848656545774
14.015521064301552,-0.11185028901264463
14.048891352549889,-0.23080331701739895
14.082261640798226,-0.3058981873732815
14.115631929046563,-0.3529311825955909
14.1490022172949,-0.40018838581545935
14.182372505543238,-0.469483731881742
14.215742793791575,-0.5601118223715525
14.249113082039912,-0.6456824279249477
14.282483370288249,-0.6865094094533084
14.315853658536586,-0.6510000689020188
14.349223946784923,-0.5339646050600109
14.38259423503326,-0.3614103485754368
14.415964523281596,-0.17922291200520135
14.449334811529933,-0.03232873019795688
14.48270509977827,0.054104970748934444
14.516075388026607,0.08192345087422179
14.549445676274944,0.07355176178566034
14.582815964523283,0.05756320241534189
14.61618625277162,0.055439398765666115
14.649556541019956,0.07623213171344037
14.682926829268293,0.11965049830041434
14.71629711751663,0.18262366720200987
14.749667405764967,0.2631276521008313
14.783037694013304,0.3583696907151192
14.81640798226164,0.45954044017066703
14.849778270509978,0.5484964966524501
14.883148558758315,0.6007270716592094
14.916518847006651,0.5945396911364695
14.949889135254988,0.5216386594684664
14.983259423503327,0.39248059506514127
15.016629711751664,0.23237722934793667
15.05,0.06983197450805598
15.083370288248338,-0.07640437285321461
15.116740576496674,-0.2038839557220007
15.150110864745011,-0.32254463778055165
15.183481152993348,-0.4425811744997627
15.216851441241685,-0.5615518893188727
15.250221729490022,-0.6589915196719432
15.283592017738359,-0.70269855160403
15.316962305986696,-0.6642451007270506
15.350332594235034,-0.5359241089175478
15.383702882483371,-0.3401907532907831
15.417073170731708,-0.12609567458554252
15.450443458980045,0.04673905071837924
15.483813747228382,0.13040878552645305
15.517184035476719,0.10828234568842197
15.550554323725056,0.0037451000297836334
15.583924611973393,-0.1259371941381812
15.61729490022173,-0.20915683245314812
15.650665188470066,-0.18625880250779142
15.684035476718403,-0.03294005056128628
15.71740576496674,0.22848490838659183
15.750776053215079,0.5351102326693827
15.784146341463416,0.80530851182349
15.817516629711752,0.9683347699034586
15.85088691796009,0.9898301905110727
15.884257206208426,0.882655134124358
15.917627494456763,0.6985406109343902
15.9509977827051,0.5042897653195701
15.984368070953437,0.3529171130366887
16.017738359201775,0.262178824894335
16.05110864745011,0.20958026936386018
16.08447893569845,0.14570030194462355
16.117849223946784,0.019704596883018993
16.151219512195123,-0.19432786076504233
16.184589800443458,-0.48186898239872084
16.217960088691797,-0.7899020834107672
16.251330376940132,-1.0453150375589735
16.28470066518847,-1.1816357945909601
16.31807095343681,-1.162921022639782
16.351441241685144,-0.9955927889917551
16.384811529933483,-0.7247321248281314
16.418181818181818,-0.4178140468340637
16.451552106430157,-0.14318673813011565
16.48492239467849,0.04870368650529516
16.51829268292683,0.13584247977368422
16.551662971175165,0.1254110946343377
16.585033259423504,0.04677781440619575
16.61840354767184,-0.05950866867445564
16.651773835920178,-0.15301014941778163
16.685144124168513,-0.20242006297430948
16.71851441241685,-0.19104519950050214
16.75188470066519,-0.11835628142543914
16.785254988913525,0.0022386346918041138
16.818625277161864,0.14868717151490068
16.8519955654102,0.29723542478360043
16.885365853658538,0.42901130474286137
16.918736141906873,0.5342135533100422
16.95210643015521,0.6126554434345025
16.985476718403547,0.6707780954997505
17.018847006651885,0.7165865473683731
17.05221729490022,0.7546462590168374
17.08558758314856,0.7830410195254923
17.118957871396898,0.7932477113237266
17.152328159645233,0.7727321568080113
17.18569844789357,0.709184383062299
17.219068736141907,0.5949222250612599
17.252439024390245,0.43009305378073154
17.28580931263858,0.22376411812228927
17.31917960088692,-0.007355506665838317
17.352549889135254,-0.2421530413098878
