Frequency (Hz),Amplitude
0.0,2.0589895256778696
0.019867549668874173,2.059039873584694
0.039735099337748346,2.05919069297774
0.059602649006622516,2.05944131196677
0.07947019867549669,2.0597906143676967
0.09933774834437085,2.0602370451272387
0.11920529801324503,2.0607786178680136
0.13907284768211922,2.061412924505688
0.15894039735099338,2.0621371468762315
0.17880794701986755,2.0629480702996403
0.1986754966887417,2.0638420989948214
0.2185430463576159,2.0648152732496086
0.23841059602649006,2.065863288240714
0.2582781456953642,2.0669815143897954
0.27814569536423844,2.0681650191344896
0.2980132450331126,2.0694085899872587
0.31788079470198677,2.070706758750022
0.33774834437086093,2.0720538267486766
0.3576158940397351,2.0734438909491746
0.3774834437086093,2.0748708708154595
0.3973509933774834,2.0763285357690577
0.4172185430463576,2.0778105331111174
0.4370860927152318,2.079310416269005
0.45695364238410596,2.0808216732324323
0.4768211920529801,2.082337755047034
0.49668874172185434,2.08385210423764
0.5165562913907285,2.085358183037772
0.5364238410596026,2.086849501307163
0.5562913907284769,2.0883196440243244
0.5761589403973509,2.089762298247266
0.5960264900662252,2.0911712794410873
0.6158940397350993,2.092540557077586
0.6357615894039735,2.0938642794179447
0.6556291390728477,2.0951367973958703
0.6754966887417219,2.0963526875246994
0.695364238410596,2.0975067737576443
0.7152317880794702,2.098594148236782
0.7350993377483444,2.0996101908710214
0.7549668874172186,2.100550587689787
0.7748344370860927,2.1014113479233605
0.7947019867549668,2.1021888197661838
0.8145695364238411,2.1028797047839682
0.8344370860927152,2.103481070929397
0.8543046357615894,2.1039903641361053
0.8741721854304636,2.1044054184634082
0.8940397350993378,2.1047244647688164
0.9139072847682119,2.104946137888113
0.9337748344370861,2.105069482306332
0.9536423841059603,2.105093956305999
0.9735099337748344,2.105019434581827
0.9933774834437087,2.1048462093142395
1.0132450331125828,2.1045749896964536
1.033112582781457,2.1042068999133594
1.0529801324503312,2.1037434755726507
1.0728476821192052,2.1031866585919707
1.0927152317880795,2.1025387905487722
1.1125827814569538,2.101802604503013
1.1324503311258278,2.100981215305515
1.1523178807947019,2.100078108409332
1.1721854304635762,2.099097127204407
1.1920529801324504,2.098042458900499
1.2119205298013245,2.0969186189873996
1.2317880794701985,2.09573043430603
1.2516556291390728,2.0944830247694965
1.271523178807947,2.0931817837777205
1.2913907284768211,2.091832357375561
1.3112582781456954,2.090440622209733
1.3311258278145695,2.0890126623462617
1.3509933774834437,2.0875547450165945
1.370860927152318,2.086073295367196
1.390728476821192,2.084574870294044
1.410596026490066,2.083066131450855
1.4304635761589404,2.081553817526344
1.4503311258278146,2.0800447158931754
1.4701986754966887,2.0785456337381
1.4900662251655628,2.0770633687893705
1.5099337748344372,2.0756046797639103
1.5298013245033113,2.0741762566630677
1.5496688741721854,2.0727846910508685
1.5695364238410596,2.071436446453989
1.5894039735099337,2.070137829026732
1.609271523178808,2.068894958627795
1.6291390728476822,2.067713740457858
1.6490066225165563,2.066599837408982
1.6688741721854303,2.0655586432766446
1.6887417218543048,2.064595256984721
1.7086092715231789,2.0637144579716162
1.728476821192053,2.0629206828822233
1.7483443708609272,2.062218003705979
1.7682119205298013,2.06161010749484
1.7880794701986755,2.0611002777881446
1.8079470198675496,2.060691377862138
1.8278145695364238,2.060385835912533
1.847682119205298,2.0601856322670824
1.8675496688741722,2.060092288713131
1.8874172185430464,2.060106860012151
1.9072847682119205,2.0602299276592313
1.9271523178807946,2.060461595931072
1.9470198675496688,2.060801490250899
1.9668874172185429,2.061248757883636
1.9867549668874174,2.0618020709587834
2.0066225165562916,2.06245963180345
2.0264900662251657,2.0632191805524522
2.0463576158940397,2.064078004987872
2.066225165562914,2.065032952545916
2.086092715231788,2.0660804444159027
2.1059602649006623,2.067216491643016
2.1258278145695364,2.0684367131354304
2.1456953642384105,2.0697363554653667
2.165562913907285,2.07111031434485
2.185430463576159,2.0725531576483047
2.205298013245033,2.074059149847964
2.2251655629139075,2.075622277722067
2.2450331125827816,2.0772362771920507
2.2649006622516556,2.0788946611419665
2.2847682119205297,2.0805907480716694
2.3046357615894038,2.0823176914350703
2.324503311258278,2.0840685095154265
2.3443708609271523,2.085836115691304
2.364238410596027,2.087613348949607
2.384105960264901,2.0893930045057303
2.403973509933775,2.091167864394878
2.423841059602649,2.09293072790389
2.443708609271523,2.0946744417179857
2.463576158940397,2.0963919296628823
2.4834437086092715,2.0980762219289333
2.5033112582781456,2.0997204836700782
2.52317880794702,2.101318042877219
2.543046357615894,2.102862417431812
2.562913907284768,2.104347341252303
2.5827814569536423,2.1057667894519874
2.6026490066225163,2.107115002433678
2.622516556291391,2.1083865088519715
2.642384105960265,2.109576147379984
2.662251655629139,2.1106790872229704
2.6821192052980134,2.1116908473260345
2.7019867549668874,2.11260731422842
2.7218543046357615,2.113424758521112
2.741721854304636,2.114139849868674
2.76158940397351,2.1147496705603714
2.781456953642384,2.115251727558936
2.801324503311258,2.115643963018809
2.821192052980132,2.115924763248742
2.8410596026490067,2.1160929660964594
2.8609271523178808,2.1161478667356914
2.8807947019867552,2.116089221838551
2.9006622516556293,2.1159172521184875
2.9205298013245033,2.115632643231476
2.9403973509933774,2.1152365450253936
2.9602649006622515,2.1147305691299647
2.9801324503311255,2.1141167848820133
3.0,2.1133977135833435
3.0198675496688745,2.112576321091367
3.0397350993377485,2.1116560087454923
3.0596026490066226,2.110640602635477
3.0794701986754967,2.1095343412215923
3.0993377483443707,2.108341861320161
3.119205298013245,2.1070681824724313
3.1390728476821192,2.1057186897192444
3.1589403973509933,2.104299114809273
3.1788079470198674,2.102815515873859
3.198675496688742,2.101274255607885
3.218543046357616,2.099681978002233
3.23841059602649,2.098045583680547
3.2582781456953644,2.096372203900508
3.2781456953642385,2.094669173287358
3.2980132450331126,2.0929440013759844
3.3178807947019866,2.091204343046119
3.3377483443708607,2.089457967944278
3.3576158940397347,2.0877127289948385
3.3774834437086096,2.0859765301119357
3.3973509933774837,2.0842572932329375
3.4172185430463577,2.0825629248030997
3.437086092715232,2.080901281849999
3.456953642384106,2.0792801377944756
3.47682119205298,2.0777071481527982
3.4966887417218544,2.076189816291957
3.5165562913907285,2.074735459406233
3.5364238410596025,2.07335117488873
3.556291390728477,2.07204380727573
3.576158940397351,2.0708199159447536
3.596026490066225,2.0696857437488823
3.615894039735099,2.068647186769998
3.6357615894039736,2.0677097653720047
3.6556291390728477,2.0668785967321393
3.6754966887417218,2.066158369023335
3.695364238410596,2.065553317414044
3.7152317880794703,2.065067202043545
3.7350993377483444,2.0647032881204255
3.754966887417219,2.0644643282803177
3.774834437086093,2.064352547325335
3.794701986754967,2.064369629453052
3.814569536423841,2.0645167080665794
3.834437086092715,2.0647943582401327
3.854304635761589,2.0652025918963663
3.8741721854304636,2.065740855732941
3.8940397350993377,2.0664080319165206
3.9139072847682117,2.0672024415429693
3.9337748344370858,2.0681218508432857
3.9536423841059607,2.069163480095418
3.9735099337748347,2.070324015183965
3.993377483443709,2.071599621731764
4.013245033112583,2.072985961710709
4.033112582781457,2.0744782124235566
4.052980132450331,2.076071087734252
4.072847682119205,2.0777588614115436
4.0927152317880795,2.0795353924395177
4.112582781456953,2.081394152139153
4.132450331125828,2.0833282529373083
4.152317880794702,2.0853304786133955
4.172185430463576,2.0873933158496727
4.19205298013245,2.089508986908566
4.211920529801325,2.091669483259097
4.231788079470199,2.093866599975247
4.251655629139073,2.096091970730675
4.271523178807947,2.0983371032174825
4.291390728476821,2.1005934148210583
4.311258278145695,2.1028522683881117
4.33112582781457,2.1051050079313827
4.3509933774834435,2.107342994121157
4.370860927152318,2.1095576394213253
4.390728476821192,2.1117404427353312
4.410596026490066,2.1138830234356125
4.43046357615894,2.1159771546583666
4.450331125827815,2.1180147957535915
4.470198675496689,2.119988123788854
4.490066225165563,2.1218895640129474
4.509933774834438,2.1237118191936046
4.529801324503311,2.1254478977508278
4.549668874172186,2.1270911406144
4.569536423841059,2.1286352467409086
4.589403973509934,2.1300742972317273
4.6092715231788075,2.131402777999134
4.629139072847682,2.132615600933034
4.649006622516556,2.133708123525297
4.66887417218543,2.134676166913259
4.688741721854305,2.1355160323074416
4.708609271523179,2.1362245157720783
4.728476821192054,2.1367989213297975
4.748344370860927,2.1372370723645844
4.768211920529802,2.1375373212990287
4.788079470198675,2.13769855752416
4.80794701986755,2.1377202135615465
4.827814569536423,2.1376022694390233
4.847682119205298,2.1373452552626895
4.867549668874172,2.136950251969124
4.887417218543046,2.136418890243164
4.9072847682119205,2.135753347587702
4.927152317880794,2.134956343533762
4.947019867549669,2.1340311329804407
4.966887417218543,2.1329814976563934
4.986754966887418,2.131811735696767
5.006622516556291,2.1305266493320247
5.026490066225166,2.1291315306881335
5.04635761589404,2.1276321457012433
5.066225165562914,2.1260347161540705
5.086092715231788,2.1243458998458147
5.105960264900662,2.1225727689130185
5.125827814569536,2.1207227863247544
5.14569536423841,2.1188037805823186
5.1655629139072845,2.1168239186612836
5.185430463576159,2.1147916772420152
5.205298013245033,2.112715812283916
5.225165562913908,2.1106053270083276
5.245033112582782,2.108469438365779
5.264900662251656,2.106317542074188
5.28476821192053,2.104159176326537
5.304635761589404,2.102003984278698
5.324503311258278,2.0998616754406223
5.344370860927152,2.0977419861070277
5.364238410596027,2.0956546389765167
5.3841059602649,2.093609302120918
5.403973509933775,2.0916155474791864
5.4238410596026485,2.0896828090620763
5.443708609271523,2.0878203410653597
5.463576158940397,2.0860371760994383
5.483443708609272,2.084342083752721
5.503311258278146,2.082743529713533
5.52317880794702,2.081249635681895
5.543046357615895,2.0798681403065116
5.562913907284768,2.0786063613845616
5.582781456953643,2.077471159562161
5.602649006622516,2.076468903770669
5.622516556291391,2.0756054386294247
5.642384105960264,2.0748860540379326
5.662251655629139,2.0743154571707603
5.682119205298013,2.073897747075556
5.701986754966887,2.0736363920600196
5.7218543046357615,2.073534210035815
5.741721854304636,2.0735933519683125
5.7615894039735105,2.0738152885592207
5.781456953642384,2.0742008002661767
5.801324503311259,2.0747499707385137
5.821192052980132,2.07546218372318
5.841059602649007,2.0763361234679403
5.860927152317881,2.077369778622793
5.880794701986755,2.078560449613521
5.900662251655629,2.079904759435509
5.920529801324503,2.0813986677902943
5.940397350993377,2.083037488463399
5.960264900662251,2.0848159098190786
5.980132450331126,2.086728018266821
6.0,2.0887673245355667
6.0198675496688745,2.090926792574635
6.039735099337749,2.093198870886395
6.059602649006623,2.095575526083537
6.079470198675497,2.09804827845459
6.099337748344371,2.1006082393142984
6.119205298013245,2.1032461499114725
6.139072847682119,2.1059524216643553
6.158940397350993,2.1087171774944378
6.178807947019867,2.111530294031414
6.198675496688741,2.1143814444668148
6.218543046357616,2.1172601418393135
6.23841059602649,2.1201557825426485
6.258278145695365,2.1230576898556257
6.2781456953642385,2.125955157303399
6.298013245033113,2.128837491670122
6.317880794701987,2.1316940554940356
6.337748344370861,2.1345143088877014
6.357615894039735,2.1372878505379473
6.377483443708609,2.140004457751783
6.397350993377484,2.1426541254261697
6.417218543046357,2.145227103830895
6.437086092715232,2.147713935104718
6.456953642384105,2.150105488375113
6.47682119205298,2.152392993421919
6.496688741721854,2.154568072814138
6.516556291390729,2.156622772457436
6.5364238410596025,2.1585495904974192
6.556291390728477,2.160341504530671
6.5761589403973515,2.161991997081351
6.596026490066225,2.1634950793065206
6.6158940397351,2.1648453128976644
6.635761589403973,2.166037830149698
6.655629139072848,2.1670683521719796
6.675496688741721,2.1679332052176874
6.695364238410596,2.168629335110614
6.715231788079469,2.1691543197488627
6.735099337748344,2.1695063796664
6.754966887417219,2.1696843866336293
6.774834437086093,2.169687870278107
6.794701986754967,2.16951702270681
6.814569536423841,2.169172701110707
6.8344370860927155,2.1686564283320835
6.854304635761589,2.1679703913748734
6.874172185430464,2.167117437837578
6.894039735099337,2.166101070248535
6.913907284768212,2.164925438283195
6.933774834437086,2.1635953288435097
6.95364238410596,2.1621161539805973
6.973509933774834,2.1604939366428804
6.993377483443709,2.1587352942344022
7.013245033112583,2.1568474199702528
7.033112582781457,2.154838062019989
7.052980132450331,2.1527155004341476
7.072847682119205,2.1504885218542564
7.0927152317880795,2.1481663920134797
7.112582781456954,2.145758826042197
7.132450331125828,2.1432759566018817
7.152317880794702,2.1407282998802684
7.172185430463576,2.1381267194919653
7.19205298013245,2.135482388341233
7.211920529801324,2.1328067485168485
7.231788079470198,2.130111469304038
7.251655629139073,2.1274084034139498
7.271523178807947,2.1247095415481
7.291390728476822,2.1220269654329464
7.311258278145695,2.1193727994776435
7.33112582781457,2.1167591612272365
7.3509933774834435,2.1141981108023162
7.370860927152318,2.1117015995351207
7.390728476821192,2.1092814180307022
7.410596026490066,2.1069491438995924
7.430463576158941,2.1047160894253607
7.450331125827814,2.102593249445932
7.470198675496689,2.1005912497410577
7.490066225165562,2.098720296229841
7.509933774834438,2.0969901252914327
7.52980132450331,2.095409955527629
7.549668874172186,2.0939884412895067
7.569536423841059,2.092733628289033
7.589403973509934,2.0916529116129152
7.6092715231788075,2.0907529964473044
7.629139072847682,2.0900398618101783
7.649006622516557,2.0895187275720812
7.66887417218543,2.0891940250261825
7.6887417218543055,2.089069371244848
7.708609271523178,2.0891475474331718
7.728476821192054,2.0894304814594773
7.748344370860927,2.089919234710519
7.768211920529802,2.090613993383519
7.788079470198675,2.09151406429089
7.80794701986755,2.092617875215629
7.827814569536423,2.0939229798169645
7.847682119205298,2.0954260670477796
7.8675496688741715,2.0971229750079314
7.887417218543046,2.099008709121414
7.907284768211921,2.1010774644912353
7.927152317880795,2.1033226522538024
7.9470198675496695,2.1057369297260813
7.966887417218543,2.1083122341124483
7.986754966887418,2.1110398195165305
8.006622516556291,2.1139102969840584
8.026490066225167,2.1169136772885753
8.046357615894038,2.120039416160728
8.066225165562914,2.123276461654671
8.086092715231787,2.1266133033419425
8.105960264900663,2.1300380230233467
8.125827814569536,2.133538346652375
8.14569536423841,2.1371016971707095
8.165562913907285,2.140715247964996
8.185430463576159,2.1443659766653806
8.205298013245034,2.148040719019947
8.225165562913906,2.151726222593845
8.245033112582782,2.1554092000579947
8.264900662251655,2.1590763818491054
8.28476821192053,2.1627145680004727
8.304635761589404,2.166310678960293
8.324503311258278,2.1698518052321294
8.344370860927151,2.1733252556890155
8.364238410596027,2.176718604429746
8.3841059602649,2.1800197360614484
8.403973509933774,2.1832168893077806
8.42384105960265,2.1862986988559068
8.443708609271523,2.189254235368468
8.463576158940398,2.1920730435981666
8.483443708609272,2.19474517855332
8.503311258278146,2.1972612396717675
8.52317880794702,2.1996124029684974
8.543046357615895,2.201790451129286
8.562913907284768,2.203787801528113
8.582781456953642,2.205597532150466
8.602649006622515,2.2072134054083863
8.62251655629139,2.2086298898351195
8.642384105960264,2.2098421796490046
8.66225165562914,2.210846212176637
8.682119205298013,2.2116386831255275
8.701986754966887,2.212217059695171
8.721854304635762,2.212579591514641
8.741721854304636,2.2127253193924656
8.76158940397351,2.212654081862653
8.781456953642383,2.212366519507762
8.801324503311259,2.211864077037559
8.821192052980132,2.211149003098657
8.841059602649008,2.2102243477878614
8.86092715231788,2.2090939578389612
8.880794701986755,2.2077624694505333
8.90066225165563,2.206235298719972
8.920529801324504,2.2045186296471346
8.940397350993377,2.202619399670319
8.960264900662251,2.2005452826963476
8.980132450331126,2.198304669587624
9.0,2.1959066460697767
9.019867549668875,2.1933609680268655
9.039735099337747,2.1906780341543177
9.059602649006623,2.1878688559451995
9.079470198675496,2.184945024992525
9.099337748344372,2.181918677597967
9.119205298013245,2.1788024566881172
9.139072847682119,2.1756094710511538
9.158940397350994,2.1723532519204487
9.178807947019868,2.169047706947806
9.198675496688743,2.165707071626635
9.218543046357615,2.162345858244935
9.23841059602649,2.1589788024698486
9.258278145695364,2.155620807688606
9.27814569536424,2.1522868872558374
9.298013245033111,2.1489921048233684
9.317880794701987,2.1457515129560982
9.33774834437086,2.142580090265664
9.357615894039736,2.1394926773221012
9.37748344370861,2.13650391163209
9.397350993377483,2.1336281620000137
9.417218543046358,2.1308794626148337
9.437086092715232,2.1282714472302597
9.456953642384107,2.1258172838284044
9.47682119205298,2.123529610176152
9.496688741721854,2.121420470699238
9.516556291390728,2.11950125511084
9.536423841059603,2.117782639237485
9.556291390728477,2.1162745284870224
9.57615894039735,2.114986004398893
9.596026490066224,2.113925274706743
9.6158940397351,2.1130996273270095
9.635761589403973,2.112515388664646
9.655629139072847,2.1121778865986576
9.675496688741722,2.112091418475637
9.695364238410596,2.112259224399992
9.715231788079471,2.1126834660648943
9.735099337748345,2.1133652113195316
9.754966887417218,2.1143044246161784
9.774834437086092,2.115499963426503
9.794701986754967,2.116949580660568
9.814569536423841,2.118649933065932
9.834437086092716,2.1205965955286548
9.854304635761588,2.1227840811440983
9.874172185430464,2.1252058668736784
9.894039735099337,2.127854424556277
9.913907284768213,2.1307212569984753
9.933774834437086,2.1337969388295237
9.95364238410596,2.137071161772652
9.973509933774835,2.140532783957063
9.993377483443709,2.144169882872566
10.013245033112582,2.147969811553191
10.033112582781456,2.15191925756609
10.052980132450331,2.156004304378026
10.072847682119205,2.160210494672856
10.09271523178808,2.164522895200168
10.112582781456952,2.1689261627458083
10.132450331125828,2.1734046108304463
10.152317880794701,2.1779422767603887
10.172185430463577,2.1825229886764204
10.192052980132452,2.1871304322698215
10.211920529801324,2.191748216859858
10.2317880794702,2.19635994055319
10.251655629139073,2.2009492542323645
10.271523178807948,2.2054999241473827
10.29139072847682,2.2099958929103938
10.311258278145695,2.2144213387194243
10.331125827814569,2.2187607326611647
10.350993377483444,2.2229988939662206
10.370860927152318,2.2271210431114437
10.390728476821192,2.231112852683716
10.410596026490065,2.234960495937701
10.43046357615894,2.238650692995867
10.450331125827816,2.2421707546530354
10.470198675496688,2.245508623760128
10.490066225165563,2.2486529141718328
10.509933774834437,2.251592947251286
10.529801324503312,2.2543187859317335
10.549668874172186,2.2568212663397578
10.56953642384106,2.2590920269886676
10.589403973509933,2.2611235355519668
10.609271523178808,2.2629091132280474
10.629139072847682,2.2644429567064215
10.649006622516556,2.265720157744136
10.66887417218543,2.266736720358634
10.688741721854305,2.2674895756395705
10.70860927152318,2.2679765941780636
10.728476821192054,2.2681965961068937
10.748344370860927,2.268149358739943
10.7682119205298,2.2678356217932913
10.788079470198676,2.267257090164361
