Frequency (Hz),Amplitude
0.0,5.639917023282298
0.020066889632107024,5.639121129231598
0.04013377926421405,5.636735953804558
0.060200668896321065,5.632769015086848
0.0802675585284281,5.627232836212354
0.10033444816053512,5.620144934695697
0.12040133779264213,5.611527807188162
0.14046822742474915,5.601408909344574
0.1605351170568562,5.589820630395031
0.1806020066889632,5.576800261919237
0.20066889632107024,5.562389960221408
0.22073578595317725,5.5466367016008435
0.24080267558528426,5.529592229706383
0.2608695652173913,5.511312994053424
0.2809364548494983,5.491860078669555
0.3010033444816054,5.471299119720753
0.3210702341137124,5.449700210855651
0.34113712374581934,5.427137794892644
0.3612040133779264,5.403690540365882
0.3812709030100334,5.379441201345174
0.4013377926421405,5.354476458854409
0.42140468227424743,5.328886742139502
0.4414715719063545,5.302766027983835
0.4615384615384615,5.276211616244349
0.4816053511705685,5.249323879791231
0.5016722408026756,5.22220598708629
0.5217391304347826,5.194963595738113
0.5418060200668896,5.167704515533917
0.5618729096989966,5.140538339677639
0.5819397993311036,5.113576043268475
0.6020066889632107,5.086929548440981
0.6220735785953176,5.060711256062116
0.6421404682274248,5.035033544444312
0.6622073578595318,5.010008236187415
0.6822742474916387,4.985746035000403
0.7023411371237458,4.962355935168251
0.7224080267558528,4.939944607204776
0.7424749163879598,4.91861576414957
0.7625418060200668,4.898469513899263
0.7826086956521738,4.879601703880423
0.802675585284281,4.862103265235727
0.8227424749163879,4.846059564468236
0.8428093645484949,4.831549771128506
0.862876254180602,4.818646250595261
0.882943143812709,4.807413991254211
0.903010033444816,4.797910075389418
0.923076923076923,4.790183202843201
0.9431438127090299,4.784273275961697
0.963210702341137,4.780211053523495
0.983277591973244,4.778017880262955
1.0033444816053512,4.777705497275827
1.0234113712374582,4.779275937075121
1.0434782608695652,4.7827215054026535
1.0635451505016722,4.788024850158573
1.0836120401337792,4.795159116054028
1.1036789297658862,4.804088181889095
1.1237458193979932,4.814766975772928
1.1438127090301002,4.827141862193462
1.1638795986622072,4.841151093656922
1.1839464882943145,4.856725318686204
1.2040133779264215,4.873788137312896
1.2240802675585283,4.8922566948254715
1.2441471571906353,4.912042304438313
1.2642140468227423,4.933051089703803
1.2842809364548495,4.955184637872665
1.3043478260869565,4.9783406559811345
1.3244147157190636,5.002413622166602
1.3444816053511706,5.0272954255448
1.3645484949832773,5.052875988881066
1.3846153846153846,5.079043869217443
1.4046822742474916,5.105686832543704
1.4247491638795986,5.132692399494921
1.4448160535117056,5.159948359898988
1.4648829431438126,5.187343254767886
1.4849498327759196,5.214766825014677
1.5050167224080266,5.242110426778988
1.5250836120401337,5.2692674137537905
1.5451505016722407,5.296133487328384
1.5652173913043477,5.3226070156997745
1.5852842809364547,5.34858932336407
1.605351170568562,5.373984952587904
1.625418060200669,5.398701898586092
1.6454849498327757,5.422651820203736
1.6655518394648827,5.445750227927075
1.6856187290969897,5.4679166510362345
1.705685618729097,5.489074785670593
1.725752508361204,5.509152625511993
1.745819397993311,5.528082576706951
1.765886287625418,5.5458015585519185
1.7859531772575248,5.562251091359925
1.806020066889632,5.57737737281568
1.826086956521739,5.591131344012104
1.846153846153846,5.603468746247314
1.866220735785953,5.614350169547488
1.8862876254180598,5.623741093770434
1.9063545150501673,5.631611923036676
1.926421404682274,5.637938014130403
1.9464882943143813,5.642699699411596
1.966555183946488,5.645882304683122
1.9866220735785953,5.647476162361866
2.0066889632107023,5.6474766202110045
2.026755852842809,5.645884045800548
2.0468227424749164,5.642703826774534
2.0668896321070234,5.6379463669151795
2.0869565217391304,5.631627077906314
2.1070234113712374,5.623766366609205
2.1270903010033444,5.614389617573666
2.1471571906354514,5.603527170414545
2.1672240802675584,5.591214291588354
2.1872909698996654,5.577491140006265
2.2073578595317724,5.562402725817838
2.2274247491638794,5.5459988615941045
2.2474916387959865,5.528334105030001
2.267558528428094,5.509467692173995
2.2876254180602005,5.489463460078941
2.3076923076923075,5.468389757653209
2.3277591973244145,5.446319343376979
2.3478260869565215,5.423329268437496
2.367892976588629,5.399500743732123
2.3879598662207355,5.374918989092366
2.408026755852843,5.349673063000753
2.4280936454849495,5.323855671009887
2.4481605351170566,5.2975629510359505
2.468227424749164,5.270894233693561
2.4882943143812706,5.243951775872874
2.508361204013378,5.216840465841489
2.5284280936454846,5.189667498290945
2.548494983277592,5.1625420179493045
2.568561872909699,5.1355747306555
2.5886287625418056,5.108877481145074
2.608695652173913,5.082562797236547
2.6287625418060196,5.056743400636636
2.648829431438127,5.031531685202026
2.668896321070234,5.00703916420228
2.688963210702341,4.983375888915805
2.709030100334448,4.9606498417463065
2.7290969899665547,4.93896630795307
2.749163879598662,4.918427231020863
2.769230769230769,4.8991305576254565
2.789297658862876,4.881169579043751
2.809364548494983,4.864632276675167
2.82943143812709,4.849600680042067
2.849498327759197,4.836150246180019
2.869565217391304,4.8243492696740296
2.8896321070234112,4.8142583327095005
2.9096989966555182,4.805929804359192
2.9297658862876252,4.7994073979019065
2.9498327759197323,4.794725794260543
2.9698996655518393,4.791910338663918
2.9899665551839463,4.7909768164025515
3.0100334448160533,4.7919313120984794
3.0301003344481603,4.794770155294047
3.0501672240802673,4.799479953442068
3.0702341137123748,4.806037711616004
3.0903010033444813,4.814411036521645
3.1103678929765888,4.824558420747582
3.1304347826086953,4.836429601701177
3.1505016722408024,4.8499659883913475
3.1705685618729094,4.865101148178777
3.1906354515050164,4.881761344844059
3.210702341137124,4.899866118836274
3.2307692307692304,4.919328900356418
3.250836120401338,4.940057645986451
3.270903010033445,4.961955489870556
3.2909698996655514,4.984921400956487
3.311036789297659,5.008850838473053
3.3311036789297654,5.0336363986132975
3.351170568561873,5.05916844627106
3.3712374581939795,5.085335726601217
3.391304347826087,5.112025952106913
3.411371237458194,5.139126361868794
3.4314381270903005,5.1665242503979
3.451505016722408,5.194107464395777
3.471571906354515,5.221764866429332
3.491638795986622,5.249386765165809
3.511705685618729,5.276865312361345
3.531772575250836,5.304094867254895
3.551839464882943,5.330972329391221
3.5719063545150496,5.3573974411876195
3.591973244147157,5.383273061775779
3.612040133779264,5.408505413801337
3.632107023411371,5.4330043049567465
3.652173913043478,5.456683326067461
3.672240802675585,5.479460027554407
3.692307692307692,5.501256076065484
3.712374581939799,5.521997393011999
3.732441471571906,5.5416142766687
3.752508361204013,5.560041509403834
3.7725752508361197,5.5772184515028
3.7926421404682276,5.593089122939564
3.8127090301003346,5.607602274336595
3.832775919732441,5.620711448239748
3.852842809364548,5.632375031720341
3.872909698996655,5.642556301204767
3.8929765886287626,5.65122346032239
3.9130434782608696,5.658349671456437
3.933110367892976,5.663913081580013
3.953177257525083,5.66789684286003
3.9732441471571907,5.670289128415819
3.9933110367892977,5.671083143525906
4.013377926421405,5.670277132485286
4.033444816053511,5.667874381226211
4.053511705685618,5.6638832157265995
4.073578595317726,5.658316996142147
4.093645484949833,5.65119410650886
4.113712374581939,5.642537939772838
4.133779264214047,5.632376877811592
4.153846153846153,5.620744266016787
4.173913043478261,5.607678381910259
4.193979933110368,5.593222397164227
4.214046822742475,5.577424332291624
4.234113712374581,5.560337003164622
4.254180602006689,5.542017958407537
4.274247491638796,5.52252940659677
4.294314381270903,5.501938132084697
4.314381270903009,5.480315398149157
4.334448160535117,5.457736836056908
4.354515050167224,5.434282318520862
4.374581939799331,5.4100358159305015
4.394648829431437,5.385085233646867
4.414715719063545,5.359522228582154
4.434782608695651,5.333442003236011
4.454849498327759,5.306943075341452
4.474916387959866,5.280127021290925
4.494983277591973,5.253098191575173
4.5150501672240795,5.225963396582268
4.535117056856188,5.1988315612803495
4.555183946488294,5.171813347553607
4.575250836120401,5.145020743284073
4.595317725752508,5.1185666176794795
4.615384615384615,5.092564242843259
4.635451505016722,5.06712678216983
4.655518394648829,5.042366746824785
4.6755852842809364,5.0183954223305465
4.695652173913043,4.995322268112832
4.71571906354515,4.973254293756561
4.735785953177258,4.952295416650127
4.7558528428093645,4.932545806636832
4.775919732441471,4.914101224209538
4.795986622073578,4.89705235964138
4.816053511705686,4.881484181201932
4.8361204013377925,4.867475301221968
4.856187290969899,4.855097369200744
4.8762541806020065,4.844414501359553
4.896321070234113,4.835482756003618
4.916387959866221,4.828349663739243
4.936454849498328,4.82305382099406
4.956521739130435,4.819624554408087
4.976588628762541,4.818081662519647
4.996655518394649,4.818435239794112
5.016722408026756,4.820685586479761
5.036789297658863,4.824823206079745
5.056856187290969,4.830828890465214
5.076923076923077,4.838673890890831
5.096989966555184,4.848320171476865
5.117056856187291,4.859720740156533
5.137123745819398,4.872820050708312
5.157190635451505,4.8875544683456065
5.177257525083611,4.903852790451917
5.197324414715719,4.921636813445945
5.217391304347826,4.940821936440883
5.237458193979933,4.96131779231513
5.257525083612039,4.983028897016133
5.277591973244148,5.0058553083444846
5.297658862876254,5.029693286073921
5.317725752508361,5.054435946014484
5.337792642140468,5.07997390147829
5.357859531772575,5.106195886520572
5.377926421404682,5.132989356264871
5.397993311036789,5.160241060548457
5.418060200668896,5.187837588015018
5.438127090301003,5.215665878614466
5.458193979933109,5.243613703229117
5.478260869565218,5.271570109821619
5.498327759197324,5.299425836086037
5.518394648829431,5.327073689080007
5.538461538461538,5.354408892723458
5.558528428093646,5.38132940437339
5.578595317725752,5.407736201931019
5.598662207357859,5.433533543114774
5.618729096989966,5.458629198648613
5.638795986622073,5.482934661178654
5.65886287625418,5.506365331749628
5.678929765886288,5.5288406856552506
5.698996655518394,5.550284419429618
5.719063545150501,5.570624580676652
5.739130434782608,5.589793682347748
5.759197324414716,5.607728802978482
5.7792642140468224,5.624371674287438
5.799331103678929,5.639668757427892
5.8193979933110365,5.653571309068605
5.839464882943144,5.666035438364608
5.8595317725752505,5.677022155766093
5.879598662207358,5.686497414501879
5.8996655518394645,5.69443214546631
5.919732441471571,5.700802286133779
5.9397993311036785,5.705588804023834
5.959866220735786,5.708777715142252
5.9799331103678925,5.710360097728323
5.999999999999999,5.710332101546125
6.020066889632107,5.708694952867123
6.040133779264214,5.705454955201613
6.060200668896321,5.700623485747677
6.080267558528428,5.6942169874368505
6.100334448160535,5.68625695636543
6.120401337792642,5.676769924307937
6.1404682274247495,5.665787435915184
6.160535117056856,5.653346020101625
6.180602006688963,5.6394871550262895
6.200668896321069,5.624257225967196
6.2207357859531776,5.60770747528128
6.240802675585284,5.5898939435308845
6.260869565217391,5.570877400743409
6.280936454849498,5.550723266655076
6.301003344481605,5.529501518672892
6.321070234113712,5.507286586173631
6.341137123745819,5.484157229647046
6.361204013377926,5.4601964030856625
6.381270903010033,5.4354910979293845
6.40133779264214,5.410132166794351
6.421404682274248,5.384214125157099
6.441471571906354,5.357834929134325
6.461538461538461,5.331095727500844
6.481605351170568,5.304100586133328
6.501672240802676,5.2769561831616425
6.521739130434782,5.2497714732627125
6.54180602006689,5.2226573197522645
6.561872909698996,5.195726093424869
6.581939799331103,5.16909123747076
6.60200668896321,5.142866798263416
6.622073578595318,5.117166922368733
6.642140468227424,5.0921053207746425
6.662207357859531,5.0677947020754885
6.682274247491639,5.04434617716023
6.702341137123746,5.021868638833665
6.722408026755852,5.000468120726076
6.742474916387959,4.980247140794032
6.762541806020066,4.96130403565217
6.782608695652174,4.943732292867234
6.80267558528428,4.927619889151359
6.822742474916388,4.913048643069898
6.842809364548494,4.900093591388111
6.862876254180601,4.88882239848156
6.882943143812709,4.879294808292823
6.903010033444816,4.871562148106805
6.9230769230769225,4.865666892923047
6.94314381270903,4.861642298423798
6.963210702341137,4.859512109483084
6.983277591973244,4.859290349860858
7.0033444816053505,4.860981197217539
7.023411371237458,4.864578945920451
7.0434782608695645,4.870068058355687
7.063545150501672,4.877423303674344
7.083612040133779,4.886609981159629
7.103678929765886,4.897584223766822
7.123745819397993,4.910293375921441
7.143812709030099,4.924676438411704
7.1638795986622075,4.940664572216287
7.183946488294314,4.958181652390923
7.204013377926421,4.977144862705455
7.224080267558528,4.997465321571755
7.2441471571906355,5.019048729914398
7.264214046822742,5.041796031982366
7.2842809364548495,5.065604080646077
7.304347826086956,5.090366299429867
7.324414715719063,5.115973334353377
7.34448160535117,5.142313689555222
7.364548494983278,5.169274341609519
7.384615384615384,5.1967413283861195
7.404682274247491,5.224600309218626
7.424749163879598,5.252737094007428
7.444816053511706,5.281038139679037
7.464882943143812,5.309391013136902
7.48494983277592,5.337684820464023
7.505016722408026,5.365810602672339
7.525083612040134,5.393661698738204
7.545150501672239,5.421134077021565
7.565217391304348,5.448126636443939
7.585284280936455,5.4745414790053335
7.605351170568561,5.500284155359654
7.625418060200669,5.5252638852519675
7.645484949832775,5.549393754656366
7.665551839464882,5.572590891448904
7.685618729096991,5.594776621413821
7.705685618729096,5.61587660631902
7.725752508361204,5.635820965715678
7.74581939799331,5.654544384021095
7.765886287625418,5.671986204338596
7.785953177257525,5.688090510356696
7.806020066889631,5.702806197555011
7.826086956521739,5.716087034828653
7.846153846153847,5.727891717527975
7.866220735785952,5.738183912797666
7.88628762541806,5.746932297989239
7.906354515050166,5.754110592814165
7.926421404682274,5.7596975858017485
7.946488294314381,5.763677155525848
7.966555183946488,5.7660382869678495
7.986622073578595,5.766775083288817
8.006688963210701,5.7658867731919585
8.02675585284281,5.763377713965284
8.046822742474916,5.759257390204736
8.066889632107022,5.753540408127391
8.08695652173913,5.746246485293843
8.107023411371236,5.737400435466069
8.127090301003344,5.727032148232678
8.147157190635452,5.715176562935894
8.167224080267557,5.70187363633417
8.187290969899665,5.687168303330011
8.207357859531772,5.671110429985001
8.227424749163879,5.6537547579325755
8.247491638795987,5.6351608391846995
8.267558528428093,5.615392960211797
8.2876254180602,5.5945200540574715
8.307692307692307,5.5726155991321376
8.327759197324415,5.549757503215082
8.347826086956522,5.526027971085758
8.367892976588628,5.501513354105625
8.387959866220736,5.4763039799857856
8.408026755852843,5.450493960909226
8.42809364548495,5.424180978133962
8.448160535117056,5.397466041193667
8.468227424749163,5.370453219841042
8.488294314381271,5.343249346956217
8.508361204013378,5.315963690774764
8.528428093645484,5.288707594987722
8.548494983277592,5.261594085536574
8.568561872909697,5.234737443277558
8.588628762541806,5.20825274212835
8.608695652173914,5.182255352839716
8.628762541806019,5.156860413157164
8.648829431438127,5.132182265850008
8.668896321070234,5.108333866881331
8.68896321070234,5.085426166859981
8.709030100334449,5.0635674698376985
8.729096989966555,5.042862774467094
8.749163879598662,5.023413103490775
8.769230769230768,5.0053148284531925
8.789297658862875,4.988658997376441
8.809364548494983,4.9735306738775265
8.82943143812709,4.96000829678426
8.849498327759196,4.94816306969059
8.869565217391303,4.938058390041285
8.889632107023411,4.9297493272230115
8.909698996655518,4.923282158743774
8.929765886287624,4.918693972897877
8.949832775919733,4.916012345347084
8.96989966555184,4.915255095820182
8.989966555183946,4.916430129679954
9.010033444816054,4.919535367476093
9.030100334448159,4.924558763854241
9.050167224080267,4.931478415391661
9.070234113712376,4.940262755147502
9.09030100334448,4.95087083001911
9.110367892976589,4.963252655447864
9.130434782608695,4.977349640672706
9.150501672240802,4.993095076628866
9.17056856187291,5.010414677762091
9.190635451505017,5.029227168488106
9.210702341137123,5.049444904773182
9.23076923076923,5.0709745213305215
9.250836120401337,5.09371759519438
9.270903010033445,5.11757131691572
9.290969899665551,5.142429161281648
9.311036789297658,5.168181550252822
9.331103678929765,5.194716501697649
9.351170568561873,5.221920258437805
9.37123745819398,5.249677893070837
9.391304347826086,5.277873884969636
9.411371237458194,5.306392666750309
9.4314381270903,5.335119138327947
9.451505016722408,5.363939147430771
9.471571906354516,5.392739936106914
9.49163879598662,5.42141055333115
9.511705685618729,5.44984223430014
9.531772575250837,5.477928747397594
9.551839464882942,5.505566710119857
9.57190635451505,5.532655875485381
9.591973244147155,5.559099390615581
9.612040133779264,5.584804029278993
9.632107023411372,5.609680400243378
9.652173913043477,5.633643133290291
9.672240802675585,5.656611044720948
9.692307692307692,5.67850728412891
9.712374581939798,5.699259464139248
9.732441471571907,5.7187997747229
9.752508361204013,5.737065083591158
9.77257525083612,5.753997024065447
9.792642140468226,5.769542071701886
9.812709030100335,5.783651610834316
9.832775919732441,5.796281992082418
9.852842809364548,5.807394581757157
9.872909698996656,5.816955803983415
9.89297658862876,5.824937176250582
9.91304347826087,5.831315338996397
9.933110367892976,5.836072079726937
9.953177257525082,5.839194352076624
9.97324414715719,5.840674290115942
9.993311036789297,5.840509218120271
10.013377926421404,5.83870165592109
10.033444816053512,5.835259319868998
10.053511705685617,5.830195119346745
10.073578595317725,5.823527148678623
10.093645484949834,5.815278674189055
10.113712374581938,5.8054781160682225
10.133779264214047,5.794159024604518
10.153846153846153,5.781360050242773
10.17391304347826,5.767124906822531
10.193979933110368,5.751502327242601
10.214046822742475,5.734546010686333
10.234113712374581,5.716314560426635
10.254180602006688,5.696871411112432
10.274247491638796,5.6762847443183
10.294314381270903,5.654627391020095
10.31438127090301,5.631976719541642
10.334448160535118,5.60841450740527
10.354515050167223,5.584026795414271
10.37458193979933,5.558903722203679
10.394648829431437,5.533139337420988
10.414715719063544,5.50683139164713
10.434782608695652,5.480081101146491
10.454849498327757,5.452992885550756
10.474916387959865,5.425674076642469
10.494983277591974,5.398234596519791
10.515050167224079,5.370786603601952
10.535117056856187,5.34344410518456
10.555183946488295,5.316322535583392
10.5752508361204,5.289538299320593
10.595317725752508,5.2632082793141715
10.615384615384615,5.237449310632456
10.635451505016722,5.212377621068068
10.65551839464883,5.188108240566673
10.675585284280936,5.164754382403189
10.695652173913043,5.142426799916908
10.71571906354515,5.121233123575254
10.735785953177256,5.101277184105889
10.755852842809364,5.082658328385256
10.775919732441471,5.065470735660544
10.795986622073578,5.049802742469486
10.816053511705684,5.035736185265846
10.836120401337793,5.023345770215257
10.856187290969899,5.012698479858025
10.876254180602006,5.00385302630965
10.896321070234114,4.996859360363813
10.916387959866219,4.991758245264375
10.936454849498327,4.988580903025096
10.956521739130435,4.987348740014875
10.97658862876254,4.988073157123982
10.996655518394649,4.990755448228451
11.016722408026755,4.995386788931141
