Frequency (Hz),Amplitude
0.0,3.0863343517486257
0.019867549668874173,3.0848170107418036
0.039735099337748346,3.080266478987011
0.059602649006622516,3.0726872288193596
0.07947019867549669,3.0620867092594044
0.09933774834437085,3.0484753387112935
0.11920529801324503,3.0318664947507648
0.13907284768211922,3.0122765010132073
0.15894039735099338,2.9897246111954283
0.17880794701986755,2.9642329901874014
0.1986754966887417,2.9358266923535297
0.2185430463576159,2.904533636985968
0.23841059602649006,2.8703845809554074
0.2582781456953642,2.833413088588064
0.27814569536423844,2.793655498800669
0.2980132450331126,2.751150889528401
0.31788079470198677,2.705941039484197
0.33774834437086093,2.6580703872910973
0.3576158940397351,2.607585988033238
0.3774834437086093,2.5545374672747383
0.3973509933774834,2.49897697260016
0.4172185430463576,2.4409591227349754
0.4370860927152318,2.3805409543098732
0.45695364238410596,2.317781866339244
0.4768211920529801,2.252743562491849
0.49668874172185434,2.185489991241304
0.5165562913907285,2.1160872839966194
0.5364238410596026,2.0446036913287147
0.5562913907284769,1.9711095174314306
0.5761589403973509,1.8956770529851377
0.5960264900662252,1.8183805066344947
0.6158940397350993,1.739295935353622
0.6357615894039735,1.6585011740639766
0.6556291390728477,1.5760757650096893
0.6754966887417219,1.4921008876110504
0.695364238410596,1.4066592898609762
0.7152317880794702,1.3198352228917716
0.7350993377483444,1.2317143812874447
0.7549668874172186,1.1423838533692867
0.7748344370860927,1.0519320886735073
0.7947019867549668,0.9604488954967207
0.8145695364238411,0.8680254926366082
0.8344370860927152,0.774754663211662
0.8543046357615894,0.6807311123165286
0.8741721854304636,0.5860522636234096
0.8940397350993378,0.4908200986287314
0.9139072847682119,0.39514581906589363
0.9337748344370861,0.2991636978645532
0.9536423841059603,0.20308459551949795
0.9735099337748344,0.10753669547533834
0.9933774834437087,0.0240599727902011
1.0132450331125828,0.0912781203618091
1.033112582781457,0.18652892473878788
1.0529801324503312,0.28259481845509227
1.0728476821192052,0.3786236180691395
1.0927152317880795,0.47437580087868547
1.1125827814569538,0.5697098790263262
1.1324503311258278,0.6645120818089748
1.1523178807947019,0.7586792595447511
1.1721854304635762,0.8521133328313263
1.1920529801324504,0.944719150865629
1.2119205298013245,1.0364035750556864
1.2317880794701985,1.1270750683331112
1.2516556291390728,1.216643515784885
1.271523178807947,1.3050201597845386
1.2913907284768211,1.3921175953714375
1.3112582781456954,1.4778497988392563
1.3311258278145695,1.5621321752370259
1.3509933774834437,1.644881616831584
1.370860927152318,1.7260165679079942
1.390728476821192,1.80545709311007
1.410596026490066,1.8831249475637408
1.4304635761589404,1.9589436476402338
1.4503311258278146,2.032838541589688
1.4701986754966887,2.104736879509601
1.4900662251655628,2.174567882262596
1.5099337748344372,2.2422628090564367
1.5298013245033113,2.3077550234657678
1.5496688741721854,2.3709800577203914
1.5695364238410596,2.431875675117325
1.5894039735099337,2.4903819304366213
1.609271523178808,2.546441228258297
1.6291390728476822,2.5999983790905135
1.6490066225165563,2.6510006532290165
1.6688741721854303,2.6993978322762278
1.6887417218543048,2.7451422582546643
1.7086092715231789,2.7881888802551753
1.728476821192053,2.8284952985651683
1.7483443708609272,2.8660218062265845
1.7682119205298013,2.9007314279770724
1.7880794701986755,2.932589956531761
1.8079470198675496,2.9615659861663133
1.8278145695364238,2.9876309435654527
1.847682119205298,3.0107591159042264
1.8675496688741722,3.0309276761325665
1.8874172185430464,3.0481167054367826
1.9072847682119205,3.062309212854627
1.9271523178807946,3.073491152023664
1.9470198675496688,3.081651435045674
1.9668874172185429,3.0867819434529027
1.9867549668874174,3.0888775362648175
2.0066225165562916,3.0879360551272006
2.0264900662251657,3.0839583265282897
2.0463576158940397,3.0769481610896428
2.066225165562914,3.0669123499327093
2.086092715231788,3.053860658124412
2.1059602649006623,3.037805815208977
2.1258278145695364,3.018763502835401
2.1456953642384105,2.996752339493531
2.165562913907285,2.971793862374538
2.185430463576159,2.943912506374561
2.205298013245033,2.913135580263704
2.2251655629139075,2.8794932400452273
2.2450331125827816,2.843018459533409
2.2649006622516556,2.803746998181367
2.2847682119205297,2.761717366193944
2.3046357615894038,2.716970786963689
2.324503311258278,2.6695511568720667
2.3443708609271523,2.6195050025017284
2.364238410596027,2.5668814353096683
2.384105960264901,2.5117321038162714
2.403973509933775,2.4541111433697678
2.423841059602649,2.3940751235524265
2.443708609271523,2.3316829933014005
2.463576158940397,2.2669960238264117
2.4834437086092715,2.2000777494171575
2.5033112582781456,2.1309939062479333
2.52317880794702,2.0598123693053836
2.543046357615894,1.986603087591254
2.562913907284768,1.9114380177869756
2.5827814569536423,1.8343910566172468
2.6026490066225163,1.7555379722220412
2.622516556291391,1.6749563349537606
2.642384105960265,1.592725448178043
2.662251655629139,1.5089262799072451
2.6821192052980134,1.423641396492547
2.7019867549668874,1.336954900246946
2.7218543046357615,1.248952373954634
2.741721854304636,1.1597208370992615
2.76158940397351,1.0693487220177451
2.781456953642384,0.9779258845158247
2.801324503311258,0.8855436759527997
2.821192052980132,0.7922951298383912
2.8410596026490067,0.6982753742253689
2.8609271523178808,0.6035825229251828
2.8807947019867552,0.5083196819582851
2.9006622516556293,0.41259989682401826
2.9205298013245033,0.3165603123154541
2.9403973509933774,0.22041371941009508
2.9602649006622515,0.12473868985392314
2.9801324503311255,0.03571623091621201
3.0,0.07608485496660933
3.0198675496688745,0.1705420638804134
3.0397350993377485,0.2665970236929067
3.0596026490066226,0.36275997264068327
3.0794701986754967,0.4587068427769717
3.0993377483443707,0.554272888698913
3.119205298013245,0.6493353579578415
3.1390728476821192,0.7437868123107031
3.1589403973509933,0.8375267764053927
3.1788079470198674,0.9304585766082223
3.198675496688742,1.0224879933729796
3.218543046357616,1.1135226469830868
3.23841059602649,1.203471713697173
3.2582781456953644,1.292245803612739
3.2781456953642385,1.3797569229744504
3.2980132450331126,1.465918482851103
3.3178807947019866,1.5506453342484892
3.3377483443708607,1.6338538186714708
3.3576158940397347,1.715461827801873
3.3774834437086096,1.7953888684923902
3.3973509933774837,1.87355613071212
3.4172185430463577,1.9498865569214474
3.437086092715232,2.024304911863653
3.456953642384106,2.0967378520777666
3.47682119205298,2.167113994639744
3.4966887417218544,2.2353639847714124
3.5165562913907285,2.3014205620451382
3.5364238410596025,2.3652186249727905
3.556291390728477,2.426695293809488
3.576158940397351,2.485789971433192
3.596026490066225,2.542444402182739
3.615894039735099,2.596602728553587
3.6357615894039736,2.6482115456630226
3.6556291390728477,2.697219953406388
3.6754966887417218,2.7435796062340283
3.695364238410596,2.7872447604849366
3.7152317880794703,2.8281723192191315
3.7350993377483444,2.8663218744952665
3.754966887417219,2.9016557470448037
3.774834437086093,2.9341390232976905
3.794701986754967,2.9637395897186307
3.814569536423841,2.9904281644162625
3.834437086092715,3.0141783259911605
3.854304635761589,3.034966539591769
3.8741721854304636,3.052772180150653
3.8940397350993377,3.067577552776515
3.9139072847682117,3.079367910280665
3.9337748344370858,3.088131467819571
3.9536423841059607,3.0938594146383323
3.9735099337748347,3.0965459229028522
3.993377483443709,3.0961881536116094
4.013245033112583,3.0927862595809046
4.033112582781457,3.0863433855005726
4.052980132450331,3.076865665060189
4.072847682119205,3.0643622151487326
4.0927152317880795,3.048845127133963
4.112582781456953,3.0303294552306363
4.132450331125828,3.0088332019699076
4.152317880794702,2.9843773007853236
4.172185430463576,2.9569855957340683
4.19205298013245,2.926684818375199
4.211920529801325,2.893504561830063
4.231788079470199,2.8574772520532106
4.251655629139073,2.8186381163458414
4.271523178807947,2.7770251491472306
4.291390728476821,2.732679075143496
4.311258278145695,2.6856433097371237
4.33112582781457,2.6359639169250513
4.3509933774834435,2.5836895646380884
4.370860927152318,2.528871477599808
4.390728476821192,2.4715633877697045
4.410596026490066,2.4118214824426354
4.43046357615894,2.3497043500861063
4.450331125827815,2.285272924008147
4.470198675496689,2.2185904239632244
4.490066225165563,2.1497222958227016
4.509933774834438,2.0787361494618257
4.529801324503311,2.0057016950498827
4.549668874172186,1.9306906779785857
4.569536423841059,1.8537768127322223
4.589403973509934,1.7750357161026946
4.6092715231788075,1.6945448402992018
4.629139072847682,1.6123834067238978
4.649006622516556,1.5286323415266494
4.66887417218543,1.443374214591443
4.688741721854305,1.3566931844815893
4.708609271523179,1.2686749533295267
4.728476821192054,1.1794067381684326
4.748344370860927,1.0889772696867728
4.768211920529802,0.9974768377296639
4.788079470198675,0.9049974191525817
4.80794701986755,0.8116329572396941
4.827814569536423,0.7174799360509765
4.847682119205298,0.6226385704910469
4.867549668874172,0.5272154025225311
4.887417218543046,0.4313295093835625
4.9072847682119205,0.3351296116610923
4.927152317880794,0.23885287312191397
4.947019867549669,0.14312086748417738
4.966887417218543,0.052526164630400766
4.986754966887418,0.06286000138237724
5.006622516556291,0.15511551550913896
5.026490066225166,0.2510240358101718
5.04635761589404,0.3473611541584105
5.066225165562914,0.4435978954849129
5.086092715231788,0.5395150965750751
5.105960264900662,0.6349693836861723
5.125827814569536,0.7298436554951333
5.14569536423841,0.8240321768893338
5.1655629139072845,0.9174350532906204
5.185430463576159,1.009955887568756
5.205298013245033,1.101500696920481
5.225165562913908,1.1919773884889369
5.245033112582782,1.2812955052762418
5.264900662251656,1.3693661120610483
5.28476821192053,1.456101757873901
5.304635761589404,1.541416482153317
5.324503311258278,1.6252258466287761
5.344370860927152,1.7074469826728915
5.364238410596027,1.7879986480240857
5.3841059602649,1.8668012891221162
5.403973509933775,1.9437771066638443
5.4238410596026485,2.0188501228084252
5.443708609271523,2.091946248969733
5.463576158940397,2.162993353456754
5.483443708609272,2.2319213284330846
5.503311258278146,2.298662155805816
5.52317880794702,2.3631499717491424
5.543046357615895,2.4253211296334314
5.562913907284768,2.485114261176709
5.582781456953643,2.5424703356690332
5.602649006622516,2.5973327171444573
5.622516556291391,2.6496472193938647
5.642384105960264,2.699362158726006
5.662251655629139,2.7464284043951475
5.682119205298013,2.790799426622694
5.701986754966887,2.8324313421475034
5.7218543046357615,2.871282957245928
5.741721854304636,2.9073158081678954
5.7615894039735105,2.940494198940411
5.781456953642384,2.970785236493883
5.801324503311259,2.998158863071027
5.821192052980132,3.0225878858817037
5.841059602649007,3.044048003970652
5.860927152317881,3.0625178322686906
5.880794701986755,3.077978922801056
5.900662251655629,3.090415783030113
5.920529801324503,3.0998158913127605
5.940397350993377,3.10616970945597
5.960264900662251,3.109470692357315
5.980132450331126,3.109715294720212
6.0,3.106902974836965
6.0198675496688745,3.101036195435739
6.039735099337749,3.09212042159069
6.059602649006623,3.0801641156978303
6.079470198675497,3.065178729522227
6.099337748344371,3.047178693325291
6.119205298013245,3.026181402084349
6.139072847682119,3.00220719881994
6.158940397350993,2.975279355049401
6.178807947019867,2.945424048389085
6.198675496688741,2.912670337330928
6.218543046357616,2.877050133222669
6.23841059602649,2.8385981694852753
6.258278145695365,2.7973519681046604
6.2781456953642385,2.7533518034399087
6.298013245033113,2.706640663394487
6.317880794701987,2.657264208002608
6.337748344370861,2.6052707254892407
6.357615894039735,2.5507110858688904
6.377483443708609,2.4936386921574623
6.397350993377484,2.4341094292812198
6.417218543046357,2.372181610780083
6.437086092715232,2.307915923418728
6.456953642384105,2.2413753698398398
6.47682119205298,2.1726252094221294
6.496688741721854,2.101732897543092
6.516556291390729,2.0287680234981775
6.5364238410596025,1.9538022474002597
6.556291390728477,1.8769092364857678
6.5761589403973515,1.7981646014025976
6.596026490066225,1.717645833274247
6.6158940397351,1.6354322426648922
6.635761589403973,1.5516049020780667
6.655629139072848,1.466246594420429
6.675496688741721,1.3794417711513458
6.695364238410596,1.2912765259769678
6.715231788079469,1.2018385936066955
6.735099337748344,1.1112173895751563
6.754966887417219,1.0195041190990073
6.774834437086093,0.926792006062695
6.794701986754967,0.8331767404050551
6.814569536423841,0.7387573448185687
6.8344370860927155,0.6436379030330401
6.854304635761589,0.5479312168444092
6.874172185430464,0.45176728825471046
6.894039735099337,0.3553158280418306
6.913907284768212,0.2588593855864101
6.933774834437086,0.16312501826604356
6.95364238410596,0.0722472548889136
6.973509933774834,0.054117973924058156
6.993377483443709,0.1405449698430816
7.013245033112583,0.23586605080534498
7.033112582781457,0.3323165552657606
7.052980132450331,0.42889253996649807
7.072847682119205,0.5252562983031478
7.0927152317880795,0.6212211567793967
7.112582781456954,0.7166503007124589
7.132450331125828,0.8114275663643781
7.152317880794702,0.9054468756033007
7.172185430463576,0.998607805696813
7.19205298013245,1.0908135349750256
7.211920529801324,1.181969824745893
7.231788079470198,1.2719844962209839
7.251655629139073,1.3607671614803911
7.271523178807947,1.448229092526614
7.291390728476822,1.5342831689593441
7.311258278145695,1.6188438720929286
7.33112582781457,1.701827307288591
7.3509933774834435,1.783151243755288
7.370860927152318,1.8627351652560022
7.390728476821192,1.940500327580764
7.410596026490066,2.0163698200992917
7.430463576158941,2.0902686295997586
7.450331125827814,2.1621237051852518
7.470198675496689,2.2318640233645346
7.490066225165562,2.2994206527157175
7.509933774834438,2.364726817663654
7.52980132450331,2.4277179610243667
7.549668874172186,2.488331805047655
7.569536423841059,2.546508410745296
7.589403973509934,2.602190235332151
7.6092715231788075,2.6553221876380086
7.629139072847682,2.705851681370003
7.649006622516557,2.7537286861229995
7.66887417218543,2.7989057760487257
7.6887417218543055,2.8413381761053427
7.708609271523178,2.8809838058179555
7.728476821192054,2.9178033204881
7.748344370860927,2.9517601497964168
7.768211920529802,2.9828205337485065
7.788079470198675,3.010953555918792
7.80794701986755,3.0361311739517687
7.827814569536423,3.0583282472843116
7.847682119205298,3.0775225620565507
7.8675496688741715,3.0936948531826522
7.887417218543046,3.106828823556399
7.907284768211921,3.1169111603701007
7.927152317880795,3.1239315485286574
7.9470198675496695,3.127882681144012
7.966887417218543,3.1287602670987877
7.986754966887418,3.1265630356708134
8.006622516556291,3.1212927382139917
8.026490066225167,3.1129541468940625
8.046357615894038,3.101555050481197
8.066225165562914,3.0871062472046997
8.086092715231787,3.069621534678725
8.105960264900663,3.0491176969110443
8.125827814569536,3.0256144884108407
8.14569536423841,2.9991346154149303
8.165562913907285,2.969703714255782
8.185430463576159,2.9373503268986214
8.205298013245034,2.902105873679255
8.225165562913906,2.864004623278694
8.245033112582782,2.8230836599756945
8.264900662251655,2.779382848223809
8.28476821192053,2.7329447946057126
8.304635761589404,2.6838148072245533
8.324503311258278,2.63204085260054
8.344370860927151,2.577673510150636
8.364238410596027,2.5207659243414176
8.3841059602649,2.461373754619935
8.403973509933774,2.3995551232464147
8.42384105960265,2.3353705611767412
8.443708609271523,2.2688829521749296
8.463576158940398,2.2001574753778246
8.483443708609272,2.1292615465923403
8.503311258278146,2.0562647586847502
8.52317880794702,1.9812388215327952
8.543046357615895,1.9042575021695154
8.562913907284768,1.825396565976768
8.582781456953642,1.744733720123644
8.602649006622515,1.662348560951429
8.62251655629139,1.5783225277827118
8.642384105960264,1.492738866847781
8.66225165562914,1.4056826109727956
8.682119205298013,1.3172405838925898
8.701986754966887,1.2275014435219245
8.721854304635762,1.1365557881428405
8.741721854304636,1.0444963670663212
8.76158940397351,0.9514184709911369
8.781456953642383,0.8574206451266111
8.801324503311259,0.7626060135832815
8.821192052980132,0.6670848393629278
8.841059602649008,0.570979793914896
8.86092715231788,0.4744378229486571
8.880794701986755,0.3776604683184424
8.90066225165563,0.28099701515162084
8.920529801324504,0.1853268078552603
8.940397350993377,0.09471980852325029
8.960264900662251,0.05427276621548812
8.980132450331126,0.1276709364672505
9.0,0.22134017237518602
9.019867549668875,0.3176491352520884
9.039735099337747,0.4145279832104413
9.059602649006623,0.5113894483350789
9.079470198675496,0.6079593960274369
9.099337748344372,0.7040624114465319
9.119205298013245,0.7995624698809994
9.139072847682119,0.8943420466542346
9.158940397350994,0.9882934966732831
9.178807947019868,1.0813150800276992
9.198675496688743,1.1733089795602856
9.218543046357615,1.2641802573803564
9.23841059602649,1.353836288294849
9.258278145695364,1.4421864505181983
9.27814569536424,1.5291419621686688
9.298013245033111,1.6146158037661238
9.317880794701987,1.698522693141158
9.33774834437086,1.7807790931058631
9.357615894039736,1.8613032399765848
9.37748344370861,1.9400151854986372
9.397350993377483,2.016836847377635
9.417218543046358,2.0916920652487296
9.437086092715232,2.164506659937864
9.456953642384107,2.235208494527941
9.47682119205298,2.3037275361759457
9.496688741721854,2.3699959179177026
9.516556291390728,2.4339479998956373
9.536423841059603,2.4955204295829643
9.556291390728477,2.5546522006755095
9.57615894039735,2.611284710392282
9.596026490066224,2.665361814977589
9.6158940397351,2.716829883234963
9.635761589403973,2.7656378479523482
9.655629139072847,2.8117372550996538
9.675496688741722,2.8550823106972345
9.695364238410596,2.8956299252673263
9.715231788079471,2.933339755791709
9.735099337748345,2.968174245108117
9.754966887417218,3.000098658685408
9.774834437086092,3.0290811187247284
9.794701986754967,3.0550926355391943
9.814569536423841,3.0781071361704204
9.834437086092716,3.098101490204797
9.854304635761588,3.1150555327569323
9.874172185430464,3.1289520845919534
9.894039735099337,3.1397769693623423
9.913907284768213,3.1475190279388214
9.933774834437086,3.1521701298186797
9.95364238410596,3.1537251815983898
9.973509933774835,3.152182132501294
9.993377483443709,3.1475419769545763
10.013245033112582,3.1398087542133615
10.033112582781456,3.128989545033579
10.052980132450331,3.1150944653987276
10.072847682119205,3.0981366573096283
10.09271523178808,3.078132276649967
10.112582781456952,3.05510047814474
10.132450331125828,3.029063397432415
10.152317880794701,3.000046130276613
10.172185430463577,2.9680767089474087
10.192052980132452,2.9331860758078205
10.211920529801324,2.895408054146361
10.2317880794702,2.854779316303164
10.251655629139073,2.811339349143985
10.271523178807948,2.7651304169449475
10.29139072847682,2.7161975217602503
10.311258278145695,2.6645883613570414
10.331125827814569,2.6103532848153166
10.350993377483444,2.553545245908726
10.370860927152318,2.4942197544038462
10.390728476821192,2.432434825444094
10.410596026490065,2.3682509272210126
10.43046357615894,2.3017309271845856
10.450331125827816,2.2329400371092656
10.470198675496688,2.1619457574212193
10.490066225165563,2.0888178213143327
10.509933774834437,2.0136281393542825
10.529801324503312,1.9364507455129256
10.549668874172186,1.8573617459273193
10.56953642384106,1.7764392721941655
10.589403973509933,1.693763441783809
10.609271523178808,1.6094163293372241
10.629139072847682,1.5234819544492846
10.649006622516556,1.4360462944776877
10.66887417218543,1.3471973357303413
10.688741721854305,1.2570251845079077
10.70860927152318,1.165622273652187
