Frequency (Hz),Amplitude
0.0,7.892449872448459
0.01993355481727575,7.89004463628237
0.0398671096345515,7.8828340076279915
0.059800664451827246,7.8708332351622055
0.079734219269103,7.854067763903835
0.09966777408637874,7.832573281306054
0.11960132890365449,7.806395782294072
0.13953488372093023,7.775591653747539
0.159468438538206,7.740227779054488
0.17940199335548174,7.7003816634797975
0.19933554817275748,7.656141581188759
0.21926910299003324,7.607606744841415
0.23920265780730898,7.554887498716479
0.25913621262458475,7.498105536325729
0.27906976744186046,7.437394143428202
0.29900332225913623,7.372898467231773
0.318936877076412,7.3047758123593605
0.3388704318936877,7.233195963832413
0.3588039867109635,7.158341536856514
0.37873754152823924,7.080408352547076
0.39867109634551495,6.999605837862964
0.4186046511627907,6.916157446873642
0.4385382059800665,6.830301099009491
0.4584717607973422,6.74228962807137
0.47840531561461797,6.652391233428777
0.49833887043189373,6.560889921937586
0.5182724252491695,6.468085925582112
0.5382059800664452,6.3742960756182665
0.5581395348837209,6.279854109011274
0.5780730897009968,6.185110877202727
0.5980066445182725,6.0904344207376235
0.6179401993355482,5.996209866147573
0.637873754152824,5.902839093948861
0.6578073089700996,5.810740119055962
0.6777408637873754,5.720346117912363
0.6976744186046512,5.63210403101328
0.717607973421927,5.546472666313198
0.7375415282392027,5.46392022960625
0.7574750830564785,5.384921213877623
0.7774086378737541,5.3099525924837945
0.7973421926910299,5.239489282355001
0.8172757475083057,5.173998874347797
0.8372093023255814,5.113935668755527
0.8571428571428572,5.05973410394952
0.877076411960133,5.011801722735508
0.8970099667774087,4.9705118800175665
0.9169435215946844,4.936196450772041
0.9368770764119602,4.909138841887077
0.9568106312292359,4.889567637520058
0.9767441860465116,4.877651208642655
0.9966777408637875,4.873493589188049
1.0166112956810631,4.8771318631969836
1.036544850498339,4.888535223465998
1.0564784053156147,4.9076057605096866
1.0764119601328903,4.934180932288422
1.0963455149501662,4.9680375624256445
1.1162790697674418,5.008897128855649
1.1362126245847177,5.056432044394634
1.1561461794019936,5.110272599882885
1.176079734219269,5.170014239168473
1.196013289036545,5.235224859374132
1.2159468438538206,5.305451873137321
1.2358803986710964,5.380228824269401
1.255813953488372,5.459081407214975
1.275747508305648,5.541532797680652
1.2956810631229239,5.627108252440285
1.3156146179401993,5.715338978021645
1.3355481727574752,5.805765299758499
1.3554817275747508,5.897939184810206
1.3754152823920267,5.991426186280342
1.3953488372093024,6.085806882011063
1.4152823920265782,6.180677882622625
1.435215946843854,6.27565248046094
1.4551495016611296,6.370361005660161
1.4750830564784054,6.464450948617423
1.495016611295681,6.557586900648248
1.514950166112957,6.649450357040626
1.5348837209302328,6.739739419551157
1.5548172757475083,6.828168428827556
1.5747508305647842,6.914467551420604
1.5946843853820598,6.998382341001939
1.6146179401993357,7.079673289116356
1.6345514950166113,7.158115377213929
1.6544850498338872,7.233497638760625
1.6744186046511629,7.305622737835754
1.6943521594684385,7.374306568713315
1.7142857142857144,7.439377879418674
1.73421926910299,7.500677921082566
1.754152823920266,7.558060124023813
1.7740863787375416,7.611389800827716
1.7940199335548175,7.660543876205135
1.8139534883720931,7.705410643081948
1.8338870431893688,7.745889544148789
1.8538205980066447,7.781890977972784
1.8737541528239203,7.813336128715567
1.893687707641196,7.840156818499832
1.9136212624584719,7.86229538150684
1.9335548172757475,7.879704558959333
1.9534883720930232,7.892347414240766
1.9734219269102993,7.90019726751577
1.993355481727575,7.903237649344001
2.0132890365448506,7.901462272915698
2.0332225913621262,7.894875024679422
2.0531561461794023,7.883489973278367
2.073089700996678,7.867331396858413
2.0930232558139537,7.84643382895715
2.1129568106312293,7.820842123326357
2.132890365448505,7.790611538177244
2.1528239202657806,7.755807840467302
2.1727574750830567,7.716507430963412
2.1926910299003324,7.672797490915887
2.212624584717608,7.624776151254398
2.2325581395348837,7.572552685262599
2.25249169435216,7.516247725693389
2.2724252491694354,7.455993507239515
2.292358803986711,7.391934135157688
2.312292358803987,7.324225880641053
2.332225913621263,7.253037503218947
2.352159468438538,7.178550600006357
2.3720930232558137,7.100959980992198
2.39202657807309,7.020474068703235
2.4119601328903655,6.937315319458674
2.431893687707641,6.8517206619814335
2.4518272425249172,6.763941947288862
2.471760797342193,6.674246401475933
2.4916943521594686,6.582917070149328
2.511627906976744,6.490253239792644
2.5315614617940203,6.396570817169727
2.551495016611296,6.302202642948434
2.5714285714285716,6.207498710026284
2.5913621262458477,6.112826250591206
2.611295681063123,6.0185696488593
2.6312292358803986,5.925130128916816
2.6511627906976742,5.832925159523558
2.6710963455149503,5.742387510672212
2.691029900332226,5.653963890935876
2.7109634551495017,5.568113091226199
2.7308970099667778,5.485303560836392
2.7508305647840534,5.4060103470820335
2.770764119601329,5.330711342105464
2.7906976744186047,5.259882801019533
2.810631229235881,5.1939941256979845
2.8305647840531565,5.133501948592558
2.850498338870432,5.078843600224216
2.870431893687708,5.030430100157587
2.8903654485049834,4.9886388702287885
2.910299003322259,4.953806424704272
2.9302325581395348,4.926221337729833
2.950166112956811,4.906117816286129
2.9700996677740865,4.8936702101554905
2.990033222591362,4.888988764690791
3.0099667774086383,4.892116866628468
3.029900332225914,4.903029951314832
3.0498338870431896,4.921636139256811
3.0697674418604657,4.947778561775987
3.089700996677741,4.9812392319956915
3.1096345514950166,5.021744229873725
3.129568106312292,5.068969907189915
3.1495016611295683,5.122549784945226
3.169435215946844,5.182081811761884
3.1893687707641196,5.247135673972211
3.2093023255813957,5.3172598898585575
3.2292358803986714,5.39198847444986
3.249169435215947,5.470847020013521
3.2691029900332227,5.553358094662303
3.289036544850499,5.639045912764944
3.3089700996677744,5.7274402733658105
3.32890365448505,5.818079795472006
3.3488372093023258,5.910514502016587
3.3687707641196014,6.004307818564942
3.388704318936877,6.099038059870138
3.4086378737541527,6.194299478830043
3.428571428571429,6.28970294981328
3.4485049833887045,6.384876353074042
3.46843853820598,6.479464720182815
3.4883720930232562,6.573130192919437
3.508305647840532,6.665551840522662
3.5282392026578075,6.756425372981268
3.548172757475083,6.845462781438432
3.5681063122923593,6.932391930895027
3.588039867109635,7.016956125283628
3.60797342192691,7.098913660630505
3.6279069767441863,7.178037378378322
3.647840531561462,7.254114227939165
3.6677740863787376,7.326944845108288
3.6877076411960132,7.396343151015055
3.7076411960132893,7.4621359747453875
3.727574750830565,7.524162701570469
3.7475083056478407,7.582274947800683
3.7674418604651168,7.636336262598061
3.787375415282392,7.686221856582487
3.807308970099668,7.731818356717273
3.8272425249169437,7.7730235867294155
3.8471760797342194,7.809746372183038
3.867109634551495,7.841906369259951
3.887043189368771,7.869433916294496
3.9069767441860463,7.892269907145242
3.9269102990033224,7.910365685555582
3.9468438538205985,7.923682959748976
3.9667774086378738,7.932193736617078
3.98671096345515,7.935880274984743
4.0066445182724255,7.934735057571297
4.026578073089701,7.928760781409003
4.046511627906977,7.917970366625037
4.0664451827242525,7.90238698364003
4.086378737541528,7.882044098982266
4.106312292358805,7.856985540059776
4.1262458471760795,7.827265579370056
4.146179401993356,7.792949038756653
4.166112956810632,7.754111414438743
4.186046511627907,7.710839023640474
4.205980066445183,7.663229173724329
4.225913621262459,7.611390354780449
4.245847176079734,7.555442456631019
4.26578073089701,7.495517011164363
4.2857142857142865,7.431757460800989
4.305647840531561,7.364319453694915
4.325581395348838,7.293371165964621
4.345514950166113,7.219093650799239
4.365448504983389,7.141681213663089
4.385382059800665,7.0613418119823415
4.40531561461794,6.9782974765927355
4.425249169435216,6.892784750798311
4.445182724252492,6.805055141073482
4.465116279069767,6.7153755711611565
4.485049833887043,6.624028828500704
4.50498338870432,6.531313988483824
4.524916943521594,6.437546797909981
4.544850498338871,6.3430599941404315
4.5647840531561465,6.248203530803877
4.584717607973422,6.153344674510947
4.604651162790698,6.05886792999
4.624584717607974,5.965174743572167
4.644518272425249,5.872682927386678
4.664451827242526,5.781825739525505
4.6843853820598005,5.6930505495733374
4.704318936877076,5.606817015306406
4.724252491694353,5.52359469632957
4.7441860465116275,5.443860035451803
4.764119601328904,5.368092650316088
4.78405315614618,5.296770897748416
4.803986710963455,5.23036670267038
4.823920265780731,5.169339682712108
4.8438538205980075,5.114130648219657
4.863787375415282,5.065154613005177
4.883720930232559,5.022793509994246
4.9036544850498345,4.987388862177096
4.92358803986711,4.959234705900452
4.943521594684386,4.938571092973439
4.963455149501661,4.925578503472662
4.983388704318937,4.920373477874404
5.003322259136213,4.923005724067307
5.023255813953488,4.933456875043488
5.043189368770764,4.951640974017876
5.063122923588041,4.977406656042751
5.083056478405315,5.010540891035614
5.102990033222592,5.050774064067153
5.122923588039868,5.097786103702337
5.142857142857143,5.151213333143858
5.162790697674419,5.2106557125045825
5.182724252491695,5.275684160433744
5.20265780730897,5.345847683466469
5.222591362126246,5.420680094437845
5.242524916943522,5.499706159701562
5.262458471760797,5.582447072369558
5.282392026578074,5.668425200638168
5.3023255813953485,5.7571681035883895
5.322259136212625,5.8482118403951
5.342192691029901,5.941103622704386
5.362126245847176,6.035403874978192
5.382059800664452,6.130687775296425
5.4019933554817285,6.226546351060183
5.421926910299003,6.322587201823482
5.44186046511628,6.418434916480555
5.4617940199335555,6.513731245389171
5.48172757475083,6.608135080598129
5.501661129568107,6.701322289806464
5.5215946843853825,6.792985442444876
5.541528239202658,6.882833459604519
5.561461794019934,6.970591213586377
5.5813953488372094,7.055999097659357
5.601328903654485,7.138812582189356
5.621262458471762,7.218801769589715
5.641196013289036,7.295750957478068
5.661129568106313,7.369458216930387
5.681063122923589,7.43973499072085
5.700996677740864,7.506405714852748
5.72093023255814,7.569307465450839
5.740863787375416,7.628289632140764
5.760797342192691,7.683213618331134
5.780730897009967,7.733952568295911
5.800664451827243,7.780391120589165
5.820598006644518,7.82242518708109
5.840531561461795,7.859961756756411
5.8604651162790695,7.892918723344492
5.880398671096346,7.921224735836352
5.900332225913622,7.944819070974917
5.920265780730897,7.963651526869937
5.940199335548173,7.9776823369801715
5.960132890365449,7.98688210381553
5.980066445182724,7.991231751836173
6.0,7.990722499159681
6.0199335548172765,7.985355847828271
6.039867109634551,7.975143592532751
6.059800664451828,7.960107847836536
6.0797342192691035,7.940281094088696
6.099667774086379,7.915706242358203
6.119601328903655,7.886436718859303
6.139534883720931,7.852536569467188
6.159468438538206,7.8140805850408075
6.179401993355482,7.771154448370379
6.1993355481727574,7.723854903645426
6.219269102990033,7.672289949387622
6.23920265780731,7.616579055800985
6.259136212624584,7.556853407449192
6.279069767441861,7.4932561720594775
6.299003322259137,7.42594279605667
6.318936877076412,7.355081327125741
6.338870431893688,7.280852763657855
6.3588039867109645,7.203451430319419
6.378737541528239,7.123085378153238
6.398671096345516,7.039976806527609
6.418604651162791,6.9543625028354805
6.438538205980066,6.86649429404651
6.458471760797343,6.776639501958687
6.4784053156146175,6.6850813912056095
6.498338870431894,6.592119595673535
6.51827242524917,6.498070504895402
6.538205980066445,6.403267587161284
6.558139534883721,6.30806162048664
6.578073089700998,6.212820796234452
6.598006644518272,6.117930653188115
6.617940199335549,6.02379379242435
6.6378737541528245,5.9308293157842735
6.6578073089701,5.83947192362179
6.677740863787376,5.750170601577905
6.6976744186046515,5.663386822399935
6.717607973421927,5.57959218856118
6.737541528239203,5.499265446128349
6.7574750830564785,5.422888811576181
6.777408637873754,5.350943572610951
6.797342192691031,5.283904952756037
6.8172757475083055,5.222236268006474
6.837209302325582,5.166382451713085
6.857142857142858,5.1167630789635625
6.877076411960133,5.073765080286423
6.897009966777409,5.037735390957046
6.9169435215946855,5.008973829583386
6.93687707641196,4.987726530470688
6.956810631229236,4.974180261625521
6.9767441860465125,4.968457939339497
6.996677740863787,4.970615599653969
7.016611295681064,4.9806410094266145
7.036544850498339,4.998454002226626
7.056478405315615,5.023908517255874
7.076411960132891,5.0567962149674965
7.096345514950166,5.096851452624915
7.116279069767442,5.143757335873939
7.136212624584719,5.197152523817708
7.156146179401993,5.256638456073962
7.17607973421927,5.321786687894313
7.196013289036546,5.392146057800429
7.21594684385382,5.467249464043758
7.235880398671097,5.546620084124226
7.2558139534883725,5.6297769291734285
7.275747508305648,5.716239677372827
7.295681063122924,5.805532774682016
7.3156146179402,5.8971888256022345
7.335548172757475,5.990751321431698
7.355481727574752,6.085776769339014
7.3754152823920265,6.181836293976142
7.395348837209303,6.27851678586559
7.415282392026579,6.3754216689960215
7.435215946843854,6.472171355345954
7.45514950166113,6.568403447585583
7.475083056478406,6.663772743884769
7.495016611295681,6.757951091240492
7.514950166112956,6.8506271264807985
7.5348837209302335,6.941505937387824
7.554817275747508,7.0303086703645405
7.574750830564784,7.1167721058107
7.5946843853820605,7.200648217871686
7.614617940199336,7.2817037314393245
7.634551495016611,7.3597196861503615
7.6544850498338874,7.434491014573216
7.674418604651163,7.505826139717841
7.694352159468439,7.573546595373296
7.714285714285715,7.637486671503553
7.73421926910299,7.697493085953592
7.754152823920266,7.7534246829803415
7.774086378737542,7.8051521585820005
7.794019933554818,7.852557812214989
7.813953488372093,7.895535324229562
7.83388704318937,7.93398955819529
7.853820598006645,7.967836387205936
7.8737541528239205,7.9970025432317176
7.893687707641197,8.021425488612099
7.913621262458472,8.041053308842665
7.9335548172757475,8.055844625897633
7.953488372093024,8.065768531436623
7.9734219269103,8.070804539367014
7.9933554817275745,8.070942557365791
8.013289036544851,8.066182877104639
8.033222591362128,8.056536183066262
8.053156146179402,8.042023579985852
8.073089700996679,8.022676639097101
8.093023255813954,7.998537463505335
8.11295681063123,7.969658773147549
8.132890365448505,7.93610400992886
8.152823920265782,7.897947463742072
8.172757475083056,7.855274420177889
8.192691029900331,7.8081813308116645
8.21262458471761,7.75677600700076
8.232558139534884,7.701177838135466
8.252491694352159,7.641518035243295
8.272425249169435,7.5779399007371735
8.292358803986712,7.51059912490278
8.312292358803987,7.439664109416398
8.332225913621263,7.365316317743847
8.352159468438538,7.287750651658
8.372093023255815,7.207175852287513
8.392026578073091,7.123814923021819
8.411960132890366,7.037905570192893
8.43189368770764,6.949700655666787
8.451827242524917,6.8594686532369975
8.471760797342194,6.767494097941275
8.491694352159469,6.67407801404582
8.511627906976745,6.579538303384516
8.53156146179402,6.484210070948411
8.551495016611296,6.388445859063653
8.571428571428573,6.292615755194331
8.591362126245848,6.197107331452304
8.611295681063122,6.102325366487332
8.6312292358804,6.008691292906953
8.651162790697676,5.916642306258714
8.67109634551495,5.826630065641445
8.691029900332227,5.7391189121889745
8.710963455149502,5.654583531237005
8.730897009966778,5.5735059884067395
8.750830564784053,5.496372080709737
8.77076411960133,5.423666962639021
8.790697674418604,5.355870035294618
8.81063122923588,5.2934491244681325
8.830564784053157,5.236854020791641
8.850498338870432,5.186509509599271
8.870431893687707,5.142808076390582
8.890365448504983,5.106102530311556
8.91029900332226,5.076698836059513
8.930232558139535,5.054849476621615
8.950166112956811,5.040747678366441
8.970099667774086,5.034522811264074
8.990033222591363,5.036237228717391
9.00996677740864,5.045884736084434
9.029900332225914,5.063390781127596
9.049833887043189,5.08861435342033
9.069767441860467,5.121351475048006
9.089700996677742,5.161340073357901
9.109634551495017,5.208265957386249
9.129568106312293,5.261769578556359
9.14950166112957,5.321453244653739
9.169435215946844,5.3868884713246645
9.189368770764121,5.457623191842163
9.209302325581396,5.533188596483713
9.22923588039867,5.6131054301984316
9.249169435215949,5.696889634801768
9.269102990033224,5.784057274747563
9.289036544850498,5.874128730381025
9.308970099667773,5.96663217792767
9.328903654485051,6.061106401135811
9.348837209302326,6.157102996228513
9.368770764119601,6.254188040968195
9.388704318936878,6.35194330175764
9.408637873754152,6.449967051361911
9.428571428571429,6.547874565444584
9.448504983388705,6.64529835984956
9.46843853820598,6.741888223350763
9.488372093023255,6.83731109311814
9.508305647840533,6.931250812882027
9.528239202657808,7.023407807018745
9.548172757475083,7.113498697696591
9.56810631229236,7.201255886885609
9.588039867109636,7.286427120453453
9.60797342192691,7.368775047706124
9.627906976744187,7.448076786526478
9.647840531561462,7.524123501641171
9.667774086378738,7.596720001431539
9.687707641196015,7.665684357022706
9.70764119601329,7.730847546066146
9.727574750830565,7.7920531226153535
9.747508305647841,7.849156913725268
9.767441860465118,7.9020267428390545
9.787375415282392,7.950542179620285
9.807308970099669,7.994594315612832
9.827242524916944,8.034085564937126
9.84717607973422,8.068929489138732
9.867109634551497,8.099050645274314
9.887043189368772,8.12438445633896
9.906976744186046,8.144877103193505
9.926910299003321,8.160485437234517
9.9468438538206,8.171176913153523
9.966777408637874,8.176929541253001
9.986710963455149,8.177731858916601
10.006644518272426,8.173582920970961
10.026578073089702,8.16449230881896
10.046511627906977,8.15048015837003
10.066445182724253,8.13157720693835
10.086378737541528,8.107824859422193
10.106312292358805,8.079275274215265
10.126245847176081,8.045991469429426
10.146179401993356,8.008047450126151
10.16611295681063,7.96552835735319
10.186046511627907,7.918530639861643
10.205980066445184,7.8671622494255935
10.225913621262459,7.811542860694317
10.245847176079735,7.751804116463218
10.26578073089701,7.688089899138839
10.285714285714286,7.620556628976682
10.305647840531563,7.549373589365693
10.325581395348838,7.474723278990978
10.345514950166113,7.396801790092687
10.36544850498339,7.3158192112136105
10.385382059800666,7.232000051741532
10.40531561461794,7.145583684149481
10.425249169435217,7.056824798053849
10.445182724252492,6.965993857975797
10.465116279069768,6.873377553930874
10.485049833887045,6.779279230608043
10.50498338870432,6.684019276862039
10.524916943521594,6.587935452474702
10.544850498338871,6.49138312361404
10.564784053156147,6.394735372152986
10.584717607973422,6.298382937094194
10.604651162790697,6.202733938976847
10.624584717607974,6.108213330650925
10.64451827242525,6.015262010706116
10.664451827242525,5.924335529869091
10.684385382059801,5.835902316809829
10.704318936877076,5.750441349253514
10.724252491694353,5.668439200525514
10.74418604651163,5.590386402235368
10.764119601328904,5.516773082264706
10.784053156146179,5.448083864798027
10.803986710963457,5.384792056424113
10.823920265780732,5.327353188904742
10.843853820598007,5.276198043207224
10.863787375415283,5.231725337284605
10.88372093023256,5.194294316588044
10.903654485049834,5.16421753471881
10.923588039867111,5.14175414460694
10.943521594684386,5.127104031238023
