Time (s),Filtered Signal
0.0,0.029752209767235232
0.03337028824833703,0.5448520288382149
0.06674057649667406,0.9536618029746554
0.10011086474501109,1.1813572026472603
0.13348115299334812,1.2045019542093867
0.16685144124168516,1.0554587794786716
0.20022172949002218,0.8090550971801737
0.2335920177383592,0.5562117312379914
0.26696230598669624,0.37389472480198355
0.3003325942350333,0.30210348289085837
0.3337028824833703,0.3357718391397767
0.3670731707317073,0.4333199115172943
0.40044345898004435,0.5367780225676686
0.4338137472283814,0.5941295568377616
0.4671840354767184,0.5748479557825488
0.5005543237250555,0.47414541326439164
0.5339246119733925,0.3074941803361203
0.5672949002217295,0.10109843636899421
0.6006651884700666,-0.11585774741952594
0.6340354767184035,-0.31466829774895844
0.6674057649667406,-0.4679473290581818
0.7007760532150776,-0.5517370559317851
0.7341463414634146,-0.5515456876841249
0.7675166297117517,-0.4711611155680603
0.8008869179600887,-0.33920855429208213
0.8342572062084257,-0.20725999056940855
0.8676274944567628,-0.1362068661994883
0.9009977827050998,-0.1735573570580068
0.9343680709534368,-0.3302952418817867
0.9677383592017739,-0.5684463770837531
1.001108647450111,-0.8075086601930181
1.0344789356984478,-0.950147264273327
1.067849223946785,-0.9184556205697936
1.101219512195122,-0.6861563192437165
1.134589800443459,-0.2926549906148703
1.167960088691796,0.16792872752313526
1.2013303769401331,0.578913080408686
1.23470066518847,0.8413638495913422
1.268070953436807,0.9062604426968031
1.3014412416851442,0.7863571467256217
1.3348115299334813,0.5450041306557194
1.3681818181818182,0.2691885028144336
1.4015521064301553,0.03971183265174357
1.4349223946784924,-0.08976967467589098
1.4682926829268292,-0.09984389563786339
1.5016629711751663,-0.0014517628827571544
1.5350332594235034,0.17192959286866133
1.5684035476718403,0.37061930549428596
1.6017738359201774,0.5337193310457199
1.6351441241685145,0.5975443059580334
1.6685144124168514,0.5117610579917746
1.7018847006651885,0.2612916545228512
1.7352549889135256,-0.11580881996032767
1.7686252771618625,-0.527553275585442
1.8019955654101996,-0.8519927276799221
1.8353658536585367,-0.9811154787791325
1.8687361419068735,-0.8669788312223712
1.9021064301552106,-0.5474510322760744
1.9354767184035477,-0.13623339059413023
1.9688470066518848,0.22148669619390393
2.002217294900222,0.40896339996001013
2.035587583148559,0.3859137537639151
2.0689578713968957,0.2021231375141906
2.102328159645233,-0.02955605709502423
2.13569844789357,-0.18759162814407304
2.1690687361419068,-0.1975195090450951
2.202439024390244,-0.06299114210513497
2.235809312638581,0.14149318779589515
2.269179600886918,0.3111278391153825
2.302549889135255,0.3637891373887819
2.335920177383592,0.27923884901657975
2.369290465631929,0.10584031032742659
2.4026607538802662,-0.0672718848859905
2.436031042128603,-0.15727904944609378
2.46940133037694,-0.12952590396711422
2.5027716186252773,-0.013173950460521187
2.536141906873614,0.11615692463434528
2.569512195121951,0.17655605754880102
2.6028824833702884,0.12165090516589279
2.6362527716186253,-0.03661281373151843
2.6696230598669626,-0.23412215810425632
2.7029933481152995,-0.38468098193854633
2.7363636363636363,-0.41802008299247667
2.7697339246119737,-0.30780948185690776
2.8031042128603105,-0.07888572261712042
2.8364745011086474,0.20578277869077496
2.8698447893569847,0.4690076268681385
2.9032150776053216,0.6426907813621461
2.9365853658536585,0.6832949854628261
2.969955654101996,0.5784997967305487
3.0033259423503327,0.34771475413582625
3.0366962305986696,0.038590901489614464
3.070066518847007,-0.2808777081611012
3.1034368070953438,-0.5361149306381906
3.1368070953436806,-0.6648034334792358
3.170177383592018,-0.6358715180994716
3.203547671840355,-0.46095346236973445
3.2369179600886917,-0.19204900791159157
3.270288248337029,0.09530379183801822
3.303658536585366,0.3270879601750409
3.337028824833703,0.4536017531286903
3.37039911308204,0.4606552599428785
3.403769401330377,0.3659399074452594
3.437139689578714,0.20485219548168737
3.470509977827051,0.01456178802521329
3.503880266075388,-0.17581296122588802
3.537250554323725,-0.346329695385699
3.5706208425720622,-0.4819054783073586
3.603991130820399,-0.5684441593418866
3.637361419068736,-0.5934025879930638
3.6707317073170733,-0.5503171763590661
3.70410199556541,-0.44332620129798356
3.737472283813747,-0.2877208564126492
3.7708425720620844,-0.10567937151026922
3.8042128603104213,0.08012811234354704
3.8375831485587586,0.251178552714743
3.8709534368070955,0.39385764458718797
3.9043237250554323,0.49722786739511776
3.9376940133037697,0.5505801467616792
3.9710643015521065,0.5432875098828907
4.004434589800444,0.4677856947211845
4.037804878048781,0.32472846007076606
4.071175166297118,0.12823464693224035
4.1045454545454545,-0.09136467904938464
4.137915742793791,-0.2897856276506123
4.171286031042128,-0.4174729751798413
4.204656319290466,-0.4336809707380446
4.238026607538803,-0.3217590353283495
4.27139689578714,-0.09927140587850823
4.304767184035477,0.1827628469701841
4.3381374722838135,0.45326534330775686
4.371507760532151,0.6432519403758234
4.404878048780488,0.7084884022974017
4.438248337028825,0.6436758719157808
4.471618625277162,0.48251091847118466
4.504988913525499,0.2835932824450149
4.538359201773836,0.1075583469657548
4.571729490022173,-0.005948134549810907
4.60509977827051,-0.05261211479993063
4.638470066518847,-0.06313730325141387
4.671840354767184,-0.08772516234488166
4.705210643015521,-0.17124983135492283
4.738580931263858,-0.3298246129323708
4.771951219512196,-0.5397738816592459
4.8053215077605325,-0.7448423487720828
4.838691796008869,-0.8788526448387461
4.872062084257206,-0.8933436971415766
4.905432372505543,-0.777177723150552
4.93880266075388,-0.55916185053168
4.972172949002218,-0.2932732625703709
5.005543237250555,-0.03463457537888997
5.0389135254988915,0.1814112160942344
5.072283813747228,0.34696227736023305
5.105654101995565,0.4731349594647779
5.139024390243902,0.5714363279201019
5.17239467849224,0.6363964314689283
5.205764966740577,0.6404632210047675
5.239135254988914,0.5457763692152627
5.2725055432372505,0.32826695261831695
5.305875831485587,0.0021499716130387093
5.339246119733925,-0.36898687021688276
5.372616407982262,-0.6834775966045725
5.405986696230599,-0.8345470382934134
5.439356984478936,-0.7536509708502898
5.472727272727273,-0.4460044163976009
5.5060975609756095,-0.0005563632626139532
5.539467849223947,0.4345404851907883
5.572838137472284,0.7053382239267872
5.606208425720621,0.714287205911521
5.639578713968958,0.463941008709657
5.672949002217295,0.06000679557173089
5.706319290465632,-0.3314509571348726
5.7396895787139695,-0.5558725137096974
5.773059866962306,-0.5382503311816897
5.806430155210643,-0.3137487949367498
5.83980044345898,-0.004272441006253916
5.873170731707317,0.2482868892390984
5.906541019955654,0.3578243600564698
5.939911308203992,0.3381995446830667
5.9732815964523285,0.2909493329744533
6.006651884700665,0.3420530734409833
6.040022172949002,0.5619373858856274
6.073392461197339,0.9135182684791389
6.106762749445676,1.2588595889657308
6.140133037694014,1.4232540462678214
6.173503325942351,1.2837763220271194
6.2068736141906875,0.8354286784057849
6.240243902439024,0.19960888142401131
6.273614190687361,-0.4298963367562925
6.306984478935698,-0.8757221769745144
6.340354767184036,-1.0556885829321587
6.373725055432373,-1.0130650784828907
6.40709534368071,-0.8853907041059615
6.4404656319290465,-0.8295303332826451
6.473835920177383,-0.9408817908581207
6.507206208425721,-1.2053979033219582
6.540576496674058,-1.5055674077695433
6.573946784922395,-1.6754672465740057
6.607317073170732,-1.578048737270881
6.640687361419069,-1.1692589443293924
6.674057649667406,-0.5209688928480497
6.707427937915743,0.20623783550341687
6.74079822616408,0.8271527590916105
6.774168514412417,1.2038511522233344
6.807538802660754,1.293872889384517
6.840909090909091,1.1550745356289063
6.874279379157428,0.9082929417543122
6.9076496674057655,0.6783262033259551
6.941019955654102,0.5421422801889579
6.974390243902439,0.5069050156976486
7.007760532150776,0.5235104273308303
7.041130820399113,0.5234047119388464
7.07450110864745,0.4568912378361697
7.107871396895788,0.3139688305215486
7.1412416851441245,0.12093603800707475
7.174611973392461,-0.08017865723878777
7.207982261640798,-0.2544891819149486
7.241352549889135,-0.3861584886577921
7.274722838137472,-0.4749089396053984
7.30809312638581,-0.5228670251071323
7.341463414634147,-0.5229554275315811
7.3748337028824835,-0.4580709835026997
7.40820399113082,-0.31257904250657786
7.441574279379157,-0.08914667854128613
7.474944567627494,0.1802304176007294
7.508314855875832,0.43757863308118616
7.541685144124169,0.6174837402790732
7.575055432372506,0.6730767388715891
7.6084257206208425,0.5970507369356369
7.641796008869179,0.42690980623971914
7.675166297117517,0.230743181470651
7.708536585365854,0.0789592828131035
7.741906873614191,0.014278204318980262
7.775277161862528,0.033569929815869995
7.808647450110865,0.09005898612535279
7.842017738359202,0.11521236587370975
7.875388026607539,0.0505892868504404
7.908758314855876,-0.12460890929737875
7.942128603104213,-0.3824366127656148
7.97549889135255,-0.6560742159542896
8.008869179600888,-0.8658582231241897
8.042239467849225,-0.9499887038871994
8.075609756097561,-0.8871726477562373
8.108980044345898,-0.7026230250414925
8.142350332594235,-0.4561190980436853
8.175720620842572,-0.21800935883842906
8.209090909090909,-0.04334016858594506
8.242461197339246,0.04567425477640297
8.275831485587583,0.06260514021719098
8.30920177383592,0.045252042265361864
8.342572062084257,0.03570996742467309
8.375942350332595,0.06146848249108149
8.409312638580932,0.12590656729535726
8.442682926829269,0.21158661473476661
8.476053215077606,0.293278389320449
8.509423503325943,0.35297026571204787
8.54279379157428,0.3886619728994042
8.576164079822616,0.41260804094494263
8.609534368070953,0.4406884720547227
8.64290465631929,0.47945619007174506
8.676274944567627,0.5186018110143648
8.709645232815964,0.5335560739805967
8.743015521064303,0.49739914607400787
8.77638580931264,0.39610161589907406
8.809756097560976,0.2390333661808216
8.843126385809313,0.05869528447321937
8.87649667405765,-0.10122531610292936
8.909866962305987,-0.2045525522784913
8.943237250554324,-0.23940411350867938
8.97660753880266,-0.22458907624909677
9.009977827050998,-0.20150059672859916
9.043348115299334,-0.21418397801610237
9.076718403547671,-0.286423470260749
9.110088691796008,-0.40702980713154874
9.143458980044347,-0.5314114228724098
9.176829268292684,-0.6000182761757985
9.21019955654102,-0.565816841469327
9.243569844789358,-0.41788904765057244
9.276940133037694,-0.1894625175978422
9.310310421286031,0.05406021854487861
9.343680709534368,0.2417500141520846
9.377050997782705,0.325961709077225
9.410421286031042,0.29992123348812066
9.443791574279379,0.19653557742658284
9.477161862527716,0.07027875584268152
9.510532150776053,-0.027927329358775455
9.543902439024391,-0.07031436126990213
9.577272727272728,-0.05783492894272398
9.610643015521065,-0.011316663366041839
9.644013303769402,0.044631926325776054
9.677383592017739,0.09503097908122016
9.710753880266076,0.13846103900588277
9.744124168514412,0.18130678793032795
9.77749445676275,0.22785501343879774
9.810864745011086,0.2734469804501087
9.844235033259423,0.3050515547787563
9.87760532150776,0.30855440490503694
9.910975609756099,0.2778893692263556
9.944345898004435,0.2200495578467083
9.977716186252772,0.1523772782268853
10.01108647450111,0.09305329156254648
10.044456762749446,0.050051912561495514
10.077827050997783,0.01548776365166451
10.11119733924612,-0.030193889871894933
10.144567627494457,-0.10549424822235917
10.177937915742794,-0.21373355903042968
10.21130820399113,-0.3366124964013268
10.244678492239467,-0.4407666981937507
10.278048780487804,-0.4948401480910974
10.311419068736143,-0.4875126052786613
10.34478935698448,-0.4352382903030179
10.378159645232817,-0.373796991665293
10.411529933481154,-0.33729634280800364
10.44490022172949,-0.3362728414606763
10.478270509977827,-0.347953123353518
10.511640798226164,-0.3254135353556012
10.545011086474501,-0.22188748200736383
10.578381374722838,-0.01787953070415624
10.611751662971175,0.2631134676444104
10.645121951219512,0.5587571531911313
10.67849223946785,0.7904282641082702
10.711862527716187,0.8937758885829228
10.745232815964524,0.8434189280152559
10.778603104212861,0.6611308309315098
10.811973392461198,0.40482768593753926
10.845343680709535,0.14437189322955937
10.878713968957872,-0.06438195887647848
10.912084257206208,-0.19598324263566802
10.945454545454545,-0.25618538816000275
10.978824833702882,-0.26891679912150573
11.012195121951219,-0.2578074526495397
11.045565410199556,-0.23288552910058394
11.078935698447895,-0.1896636319294594
11.112305986696231,-0.12034536161537601
11.145676274944568,-0.02921188774941067
11.179046563192905,0.05909359366785618
11.212416851441242,0.1061349428899167
11.245787139689579,0.07979972132222213
11.279157427937916,-0.0228736064300373
11.312527716186253,-0.164886563178422
11.34589800443459,-0.2801312620818798
11.379268292682926,-0.3035211920294082
11.412638580931263,-0.205845862809061
11.4460088691796,-0.0140462201745272
11.479379157427939,0.19612798237179785
11.512749445676276,0.3337415771835237
11.546119733924613,0.3366111695467177
11.57949002217295,0.20301588774739246
11.612860310421286,-0.005857203927916608
11.646230598669623,-0.19480201457794916
11.67960088691796,-0.28038953322730936
11.712971175166297,-0.23024537865884365
11.746341463414634,-0.07595960519615505
11.77971175166297,0.10596355549949106
11.813082039911308,0.23375155828345162
11.846452328159646,0.25908679067789286
11.879822616407983,0.18543397212862303
11.91319290465632,0.05888994631012868
11.946563192904657,-0.06047427374151307
11.979933481152994,-0.12966597187218085
12.01330376940133,-0.14020273433530314
12.046674057649668,-0.11530007808006523
12.080044345898004,-0.0915828757665422
12.113414634146341,-0.09707341749359981
12.146784922394678,-0.13691570894505223
12.180155210643015,-0.19237857369525563
12.213525498891352,-0.23144933039935708
12.24689578713969,-0.2246473379826636
12.280266075388028,-0.15887424369747272
12.313636363636364,-0.04411552098937871
12.347006651884701,0.0891174592983367
12.380376940133038,0.20058482102872227
12.413747228381375,0.25551529765209263
12.447117516629712,0.23843049233586994
12.480487804878049,0.15981705492719828
12.513858093126386,0.05245426833928752
12.547228381374723,-0.041347729386756564
12.58059866962306,-0.0861726715667927
12.613968957871396,-0.06654511804429056
12.647339246119735,0.008630400793887667
12.680709534368072,0.11134668283868893
12.714079822616409,0.20642864060419064
12.747450110864746,0.2647833646682684
12.780820399113082,0.2728467865468876
12.81419068736142,0.23523181131497048
12.847560975609756,0.17047596046701824
12.880931263858093,0.10236072529490771
12.91430155210643,0.05066839501415003
12.947671840354767,0.024966025738737768
12.981042128603104,0.023234466960225176
13.014412416851442,0.03482051145223275
13.04778270509978,0.04550925129599838
13.081152993348116,0.04225849228645248
13.114523281596453,0.01615893858126796
13.14789356984479,-0.03639727215889601
13.181263858093127,-0.11351474138226086
13.214634146341464,-0.20789445077523822
13.2480044345898,-0.3073621506749053
13.281374722838137,-0.39652553714488986
13.314745011086474,-0.4599604113783151
13.348115299334811,-0.4862604928473499
13.381485587583148,-0.47129110561760157
13.414855875831487,-0.4189804149530568
13.448226164079824,-0.3391794039569866
13.48159645232816,-0.24377276478439208
13.514966740576497,-0.14313498881774406
13.548337028824834,-0.04451179253446134
13.581707317073171,0.04761920837998159
13.615077605321508,0.13047364511585016
13.648447893569845,0.20252188374140437
13.681818181818182,0.26392942410859394
13.715188470066519,0.3168941962964128
13.748558758314855,0.36472069084256736
13.781929046563192,0.4095436065764646
13.815299334811531,0.4499954868150399
13.848669623059868,0.4805593186364027
13.882039911308205,0.49339476703351964
13.915410199556542,0.4817505287335729
13.948780487804878,0.44290023242091575
13.982150776053215,0.3787124140625648
14.015521064301552,0.29342327496665155
14.048891352549889,0.19006541979114205
14.082261640798226,0.06818794589344643
14.115631929046563,-0.0748284008541373
14.1490022172949,-0.23847278441228237
14.182372505543238,-0.41212821537697436
14.215742793791575,-0.570763668781009
14.249113082039912,-0.677591014154033
14.282483370288249,-0.6952224321539021
14.315853658536586,-0.6022292136941794
14.349223946784923,-0.40778237768036346
14.38259423503326,-0.15598636819509692
14.415964523281596,0.08490923933373139
14.449334811529933,0.246117435885248
14.48270509977827,0.28532761185092126
14.516075388026607,0.20473294905748257
14.549445676274944,0.05096247132471806
14.582815964523283,-0.10399683060981213
14.61618625277162,-0.1928329152160349
14.649556541019956,-0.18062479837311862
14.682926829268293,-0.07800269704784825
14.71629711751663,0.06581062863232971
14.749667405764967,0.1865053032103141
14.783037694013304,0.23378034867153624
14.81640798226164,0.1928087053642625
14.849778270509978,0.08871551601800277
14.883148558758315,-0.027164182920984555
14.916518847006651,-0.10203551787811659
14.949889135254988,-0.10546839160686042
14.983259423503327,-0.04147155909307539
15.016629711751664,0.055935656258898875
15.05,0.1405623811071116
15.083370288248338,0.17630344110825974
15.116740576496674,0.15329394203254462
15.150110864745011,0.09061455584256889
15.183481152993348,0.02455129011026656
15.216851441241685,-0.011709027781646376
15.250221729490022,-0.00662558840869743
15.283592017738359,0.02291537307711353
15.316962305986696,0.04103383353556665
15.350332594235034,0.014326489666728838
15.383702882483371,-0.06609272690612704
15.417073170731708,-0.17491783355605023
15.450443458980045,-0.2622381288356746
15.483813747228382,-0.27852529436967355
15.517184035476719,-0.20181041452542048
15.550554323725056,-0.05172916827868856
15.583924611973393,0.11807609797496832
15.61729490022173,0.24571027356014463
15.650665188470066,0.2911969153809969
15.684035476718403,0.2547596069061532
15.71740576496674,0.17349061436228336
15.750776053215079,0.0986798667663534
15.784146341463416,0.06671251109840252
15.817516629711752,0.0797490193618227
15.85088691796009,0.106603407909692
15.884257206208426,0.10277207801077094
15.917627494456763,0.03803377708098379
15.9509977827051,-0.08374472544605993
15.984368070953437,-0.22328786171998982
16.017738359201775,-0.32367052571915234
16.05110864745011,-0.33788315912092914
16.08447893569845,-0.25226064081356403
16.117849223946784,-0.0942770012820625
16.151219512195123,0.07889986645402348
16.184589800443458,0.2054226559143095
16.217960088691797,0.24542992215492207
16.251330376940132,0.19699777958562587
16.28470066518847,0.0943711797642682
16.31807095343681,-0.010018265429447632
16.351441241685144,-0.0706478810095799
16.384811529933483,-0.0690034806301567
16.418181818181818,-0.01959005872444081
16.451552106430157,0.03986265074594515
16.48492239467849,0.06797216661500802
16.51829268292683,0.03896585748474882
16.551662971175165,-0.04707437707948955
16.585033259423504,-0.16625377101424707
16.61840354767184,-0.28231101368148304
16.651773835920178,-0.36091378159134746
16.685144124168513,-0.3804061769824157
16.71851441241685,-0.33575570191357745
16.75188470066519,-0.23636150705819725
16.785254988913525,-0.10086461778644884
16.818625277161864,0.0478629309239848
16.8519955654102,0.1862004622965666
16.885365853658538,0.2924614761720642
16.918736141906873,0.35027862886004796
16.95210643015521,0.3531074554406019
16.985476718403547,0.30811263343734946
17.018847006651885,0.23620826490762206
17.05221729490022,0.16581198685434445
17.08558758314856,0.12119079489891757
17.118957871396898,0.11038287000919676
17.152328159645233,0.11965123002512322
17.18569844789357,0.11917201823856373
17.219068736141907,0.07873952468818353
17.252439024390245,-0.014029309622675333
17.28580931263858,-0.14310565760378136
