Frequency (Hz),Amplitude
0.0,4.480998499380924
0.019823788546255508,4.483395535305249
0.039647577092511016,4.49056950441764
0.059471365638766524,4.50246930081585
0.07929515418502203,4.519010767817422
0.09911894273127755,4.540078180598264
0.11894273127753305,4.565526231605197
0.13876651982378857,4.595182437073754
0.15859030837004406,4.628849870754905
0.17841409691629956,4.666310125191805
0.1982378854625551,4.70732640135031
0.2180616740088106,4.751646633306457
0.2378854625550661,4.799006564855526
0.25770925110132165,4.849132707967475
0.27753303964757714,4.901745127601711
0.29735682819383263,4.9565600122706135
0.31718061674008813,5.013292003904152
0.3370044052863437,5.071656273283851
0.3568281938325991,5.131370338136978
0.37665198237885467,5.192155629702621
0.3964757709251102,5.253738820202519
0.41629955947136565,5.315852928311935
0.4361233480176212,5.378238222664503
0.4559471365638767,5.440642944924715
0.4757709251101322,5.5028238743140045
0.49559471365638774,5.564546754962926
0.5154185022026433,5.625586606332292
0.5352422907488987,5.685727935413551
0.5550660792951543,5.7447648676550145
0.5748898678414097,5.8025012117010295
0.5947136563876653,5.858750471174505
0.6145374449339208,5.913335814949962
0.6343612334801763,5.966090015700733
0.6541850220264318,6.0168553649863155
0.6740088105726874,6.0654835717881
0.6938325991189428,6.111835650206095
0.7136563876651982,6.1557818009888114
0.7334801762114539,6.1972012906783975
0.7533039647577093,6.235982331395401
0.7731277533039648,6.272021963653688
0.7929515418502204,6.305225944068807
0.8127753303964759,6.335508639390939
0.8325991189427313,6.36279292794232
0.8524229074889869,6.387010109257977
0.8722466960352424,6.408099822506429
0.8920704845814978,6.426009974095046
0.9118942731277534,6.440696674732988
0.931718061674009,6.4521241861287
0.9515418502202644,6.460264877428355
0.9713656387665199,6.465099191455353
0.9911894273127755,6.466615620779621
1.0110132158590308,6.464810693628492
1.0308370044052866,6.4596889696412765
1.0506607929515421,6.451263045465952
1.0704845814977975,6.4395535701935085
1.090308370044053,6.424589270620818
1.1101321585903086,6.4064069863229
1.1299559471365639,6.385051714495579
1.1497797356828194,6.360576664497135
1.1696035242290752,6.33304332196694
1.1894273127753305,6.302521522325332
1.209251101321586,6.269089533357888
1.2290748898678416,6.232834146449906
1.248898678414097,6.193850775858009
1.2687224669603525,6.1522435651754455
1.288546255506608,6.108125499857324
1.3083700440528636,6.06161852430989
1.3281938325991192,6.012853661603609
1.3480176211453747,5.961971133328524
1.36784140969163,5.909120476461179
1.3876651982378856,5.85446065333849
1.4074889867841411,5.798160149925477
1.4273127753303965,5.7403970565053015
1.4471365638766522,5.681359123706949
1.4669603524229078,5.621243785410277
1.4867841409691631,5.56025813853753
1.5066079295154187,5.49861886806719
1.5264317180616742,5.43655210382111
1.5462555066079295,5.374293193728143
1.5660792951541853,5.312086376430489
1.5859030837004409,5.250184334377566
1.6057268722466962,5.1888476070844884
1.6255506607929517,5.128343843195307
1.6453744493392073,5.068946869603127
1.6651982378854626,5.0109355563914715
1.6850220264317182,4.954592458056354
1.7048458149779737,4.900202214635601
1.7246696035242293,4.8480497012874615
1.7444933920704848,4.798417921745138
1.7643171806167404,4.751585650052084
1.7841409691629957,4.707824836022796
1.8039647577092512,4.667397802742605
1.8237885462555068,4.63055427862797
1.8436123348017623,4.5975283213550115
1.863436123348018,4.568535205292478
1.8832599118942732,4.543768356698085
1.9030837004405288,4.523396430485751
1.9229074889867843,4.507560627512633
1.9427312775330399,4.496372350951177
1.9625550660792954,4.489911293689257
1.982378854625551,4.488224035692997
2.002202643171806,4.491323211388835
2.0220264317180616,4.499187283559674
2.041850220264317,4.511760933753339
2.061674008810573,4.528956051892092
2.0814977973568287,4.550653281871269
2.1013215859030843,4.576704057487014
2.1211453744493394,4.606933045652506
2.140969162995595,4.641140902556521
2.1607929515418505,4.679107243521597
2.180616740088106,4.720593728516937
2.2004405286343616,4.765347171732921
2.220264317180617,4.813102594135412
2.2400881057268722,4.863586151128901
2.2599118942731278,4.916517882020726
2.2797356828193833,4.971614242694404
2.299559471365639,5.028590396805422
2.319383259911895,5.087162253220606
2.3392070484581504,5.147048247915565
2.3590308370044055,5.207970876951154
2.378854625550661,5.269657993483738
2.3986784140969166,5.331843886182387
2.418502202643172,5.394270159167768
2.4383259911894277,5.456686434934692
2.4581497797356833,5.518850901964782
2.4779735682819384,5.580530728149569
2.497797356828194,5.641502359973532
2.5176211453744495,5.701551725856224
2.537444933920705,5.760474360289124
2.5572687224669606,5.8180754635555925
2.577092511013216,5.874169909987483
2.5969162995594717,5.92858221595331
2.6167400881057272,5.981146477137897
2.6365638766519828,6.031706283183944
2.6563876651982383,6.080114616435275
2.676211453744494,6.126233740351004
2.6960352422907494,6.1699350821436125
2.715859030837005,6.21109911332262
2.73568281938326,6.249615231087616
2.7555066079295156,6.285381642895082
2.775330396475771,6.318305256009558
2.7951541850220267,6.348301573429011
2.8149779735682823,6.375294597231908
2.834801762114538,6.399216740120092
2.854625550660793,6.420008745715807
2.874449339207049,6.4376196180032785
2.8942731277533045,6.4520065601784005
2.91409691629956,6.463134923075561
2.9339207048458156,6.470978163273208
2.953744493392071,6.475517810933627
2.9735682819383262,6.476743447402472
2.993392070484582,6.474652692575587
3.0132158590308373,6.469251202031368
3.033039647577093,6.460552673920905
3.0528634361233484,6.448578865604324
3.072687224669604,6.43335962001445
3.092511013215859,6.414932901715558
3.1123348017621146,6.3933448426022546
3.1321585903083706,6.368649797146157
3.151982378854626,6.340910407042607
3.1718061674008817,6.310197675030129
3.1916299559471373,6.276591047547213
3.2114537444933924,6.240178505745857
3.231277533039648,6.201056664193486
3.2511013215859035,6.159330876354739
3.270925110132159,6.1151153456426
3.2907488986784146,6.068533240454656
3.31057268722467,6.019716811151706
3.3303964757709252,5.968807506381322
3.350220264317181,5.9159560854842725
3.3700440528634363,5.861322722933728
3.389867841409692,5.805077099833646
3.4096916299559474,5.74739847643277
3.4295154185022034,5.688475738386713
3.4493392070484585,5.6285074081210436
3.469162995594714,5.567701611118901
3.4889867841409696,5.506275985294852
3.508810572687225,5.444457519856485
3.5286343612334807,5.382482308246959
3.5484581497797363,5.3205951979869806
3.5682819383259914,5.259049318597738
3.588105726872247,5.198105467433049
3.6079295154185025,5.138031332357162
3.627753303964758,5.079100529994205
3.6475770925110136,5.021591438997117
3.667400881057269,4.965785809713779
3.6872246696035247,4.911967135047279
3.7070484581497802,4.860418772474304
3.726872246696036,4.8114218143008385
3.7466960352422913,4.765252712391062
3.7665198237885464,4.722180674741662
3.7863436123348024,4.682464864117174
3.8061674008810575,4.646351442993772
3.8259911894273135,4.614070523489757
3.8458149779735686,4.585833094747883
3.8656387665198246,4.561828012139304
3.8854625550660797,4.542219141350244
3.905286343612335,4.527142754622224
3.925110132158591,4.516705275112064
3.9449339207048464,4.510981457906537
3.964757709251102,4.510013082619044
3.9845814977973575,4.5138082133152135
4.004405286343612,4.522341057993726
4.024229074889869,4.535552433752292
4.044052863436123,4.553350817177418
4.06387665198238,4.5756139345569755
4.083700440528634,4.602190825162871
4.103524229074891,4.632904294584672
4.123348017621146,4.667553664807821
4.143171806167401,4.705917723669926
4.162995594713657,4.747757778120286
4.182819383259912,4.792820722492659
4.2026431718061685,4.840842043594784
4.222466960352423,4.8915486974974325
4.242290748898679,4.944661807175656
4.262114537444934,4.99989914447344
4.28193832599119,5.056977373320785
4.301762114537445,5.115614043089903
4.321585903083701,5.175529331051488
4.3414096916299565,5.2364475409336055
4.361233480176212,5.298098370621172
4.381057268722468,5.360217966222194
4.400881057268723,5.422549782304408
4.420704845814979,5.484845269346438
4.440528634361234,5.5468644096333595
4.46035242290749,5.608376122219806
4.4801762114537445,5.669158556420239
4.500000000000001,5.728999291762115
4.5198237885462555,5.787695460613665
4.539647577092512,5.8450538078967025
4.559471365638767,5.9008907005075955
4.579295154185023,5.9550320973593855
4.599118942731278,6.007313489367763
4.618942731277533,6.057579817254949
4.63876651982379,6.105685373752532
4.658590308370044,6.151493695644481
4.678414096916301,6.194877450103768
4.6982378854625555,6.235718318927499
4.718061674008811,6.273906883556341
4.737885462555067,6.30934251316059
4.757709251101322,6.341933257574131
4.777533039647578,6.371595746446303
4.797356828193833,6.398255095647318
4.817180616740089,6.421844821695262
4.837004405286344,6.442306764760932
4.856828193832599,6.459591020642058
4.876651982378855,6.473655881972774
4.896475770925111,6.484467788841381
4.9162995594713665,6.492001288920936
4.936123348017622,6.4962390071713045
4.955947136563877,6.497171625139434
4.975770925110133,6.494797869865088
4.995594713656388,6.489124512387247
5.015418502202644,6.480166375837644
5.035242290748899,6.4679463531001495
5.055066079295155,6.452495434003674
5.07488986784141,6.433852741997779
5.094713656387666,6.412065580232087
5.114537444933921,6.387189486917171
5.134361233480177,6.359288299781684
5.154185022026432,6.328434229353575
5.174008810572688,6.294707940675792
5.193832599118943,6.2581986429121095
5.213656387665199,6.219004186100188
5.2334801762114544,6.177231164056547
5.25330396475771,6.132995022123923
5.2731277533039655,6.086420168063921
5.292951541850221,6.037640083925427
5.312775330396477,5.98679743615074
5.332599118942731,5.934044180502891
5.352422907488988,5.879541657597683
5.372246696035242,5.823460673890599
5.392070484581499,5.76598156189343
5.4118942731277535,5.707294212171165
5.43171806167401,5.647598068298973
5.451541850220265,5.587102074449087
5.47136563876652,5.526024563649212
5.491189427312777,5.464593073046231
5.511013215859031,5.403044070774513
5.530837004405288,5.341622577354029
5.550660792951542,5.280581663036683
5.570484581497798,5.220181801328243
5.5903083700440535,5.160690058217927
5.610132158590309,5.102379096663914
5.6299559471365646,5.045525976857579
5.64977973568282,4.990410734986003
5.669603524229076,4.937314726895337
5.689427312775331,4.886518728462112
5.709251101321586,4.838300791774294
5.729074889867842,4.792933865467669
5.748898678414098,4.750683198654333
5.768722466960353,4.711803560511734
5.788546255506609,4.676536321224493
5.808370044052864,4.645106453786658
5.82819383259912,4.617719529145253
5.848017621145375,4.594558788096813
5.867841409691631,4.575782380973976
5.887665198237886,4.56152086930587
5.907488986784142,4.5518750813839635
5.927312775330397,4.546914405518818
5.9471365638766525,4.5466755907867045
5.966960352422908,4.5511621059087215
5.986784140969164,4.560344083837697
6.00660792951542,4.574158854378892
6.026431718061675,4.592512041738003
6.04625550660793,4.615279180296421
6.066079295154186,4.642307781951536
6.085903083700441,4.673419773383335
6.105726872246697,4.708414212395472
6.125550660792952,4.747070189191708
6.145374449339208,4.789149820680491
6.1651982378854635,4.8344012527964875
6.185022026431718,4.882561596247374
6.204845814977975,4.9333597337801605
6.224669603524229,4.986518950792917
6.244493392070486,5.041759354828173
6.264317180616741,5.098800062327834
6.284140969162996,5.157361142415056
6.303964757709252,5.2171653170474706
6.323788546255507,5.277939424523739
6.3436123348017635,5.339415659055883
6.363436123348018,5.401332603093984
6.3832599118942746,5.463436071535554
6.403083700440529,5.525479788128038
6.422907488986785,5.587225914545972
6.44273127753304,5.648445452044247
6.462555066079296,5.70891853447675
6.482378854625551,5.768434630013372
6.502202643171807,5.826792667238764
6.5220264317180625,5.883801099591247
6.541850220264318,5.939277920385675
6.561674008810574,5.993050639022402
6.581497797356829,6.0449562274540085
6.601321585903085,6.09484104458719
6.62114537444934,6.142560745048182
6.640969162995596,6.187980177640028
6.6607929515418505,6.230973277862428
6.680616740088107,6.271422958042453
6.700440528634362,6.309220997925572
6.720264317180618,6.344267937988739
6.740088105726873,6.376472977248002
6.759911894273129,6.405753876931143
6.779735682819384,6.432036871057519
6.799559471365639,6.45525658470389
6.819383259911895,6.475355960525835
6.83920704845815,6.492286193940346
6.859030837004407,6.506006677250045
6.8788546255506615,6.516484952894585
6.898678414096917,6.523696675945755
6.918502202643173,6.527625585913183
6.938325991189428,6.528263487893291
6.958149779735684,6.5256102430707115
6.977973568281939,6.519673768565158
6.997797356828195,6.510470046603129
7.01762114537445,6.498023142980928
7.037444933920705,6.482365234768304
7.0572687224669615,6.463536647177093
7.077092511013216,6.441585899483501
7.096916299559473,6.4165697598415585
7.116740088105728,6.388553308752975
7.136563876651983,6.357610010862181
7.156387665198239,6.323821794616702
7.176211453744494,6.287279139167224
7.19603524229075,6.248081167669618
7.215859030837005,6.206335745886356
7.235682819383261,6.16215958465574
7.255506607929516,6.115678344396532
7.275330396475772,6.067026739327836
7.295154185022027,6.016348638503931
7.314977973568283,5.9637971600724
7.334801762114538,5.909534754356811
7.354625550660794,5.853733270427207
7.374449339207049,5.796573999749535
7.394273127753305,5.738247689292008
7.4140969162995605,5.678954515120329
7.433920704845816,5.618904006041489
7.453744493392072,5.558314905286987
7.473568281938327,5.497414956599116
7.493392070484583,5.436440599459591
7.513215859030838,5.375636556664595
7.533039647577093,5.315255296119097
7.552863436123348,5.255556347740518
7.572687224669605,5.196805455908812
7.59251101321586,5.139273548187084
7.612334801762115,5.083235502296359
7.6321585903083715,5.028968695811976
7.651982378854627,4.976751326993249
7.671806167400882,4.926860500767026
7.691629955947137,4.879570081293589
7.711453744493394,4.8351483217629125
7.731277533039649,4.793855292963894
7.751101321585904,4.755940144392643
7.7709251101321595,4.721638244654231
7.790748898678416,4.69116826086537
7.81057268722467,4.6647292486796905
7.830396475770926,4.642497834297865
7.850220264317182,4.624625576224916
7.870044052863436,4.611236596541853
7.889867841409693,4.602425568286379
7.909691629955948,4.598256136812305
7.929515418502204,4.598759838877689
7.9493392070484585,4.603935564413011
7.969162995594715,4.613749583697773
7.9889867841409705,4.6281361386797935
8.008810572687224,4.646998573281487
8.02863436123348,4.670210955609597
8.048458149779737,4.697620126641565
8.068281938325994,4.729048096396751
8.088105726872246,4.764294700474868
8.107929515418503,4.803140427248037
8.12775330396476,4.845349328505647
8.147577092511014,4.890671933150898
8.167400881057269,4.938848093561767
8.187224669603525,4.989609706290976
8.207048458149782,5.042683261761191
8.226872246696036,5.097792190534768
8.246696035242293,5.154658985824585
8.266519823788547,5.2130070926263805
8.286343612334802,5.272562562871148
8.306167400881058,5.33305548320118
8.325991189427315,5.3942211873916115
8.345814977973568,5.455801269216526
8.365638766519824,5.517544413899467
8.38546255506608,5.579207067437696
8.405286343612337,5.640553963289424
8.42511013215859,5.701358525400671
8.444933920704846,5.761403165526926
8.464757709251103,5.820479491450671
8.484581497797357,5.87838844115307
8.504405286343614,5.934940356374854
8.524229074889869,5.989955007383767
8.544052863436125,6.043261579208681
8.56387665198238,6.0946986281466335
8.583700440528636,6.144114016018033
8.60352422907489,6.191364828450501
8.623348017621145,6.23631728241595
8.643171806167402,6.27884662732318
8.662995594713658,6.318837043174266
8.682819383259913,6.356181538615615
8.702643171806168,6.390781851142827
8.722466960352424,6.422548351241906
8.74229074889868,6.451399951854545
8.762114537444935,6.477264024232569
8.78193832599119,6.50007632098632
8.801762114537446,6.519780906922825
8.821585903083701,6.536330098105751
8.841409691629957,6.549684409441565
8.861233480176212,6.559812510999293
8.881057268722468,6.566691193198202
8.900881057268723,6.57030534094415
8.92070484581498,6.570647916756257
8.940528634361234,6.567719952896599
8.960352422907489,6.561530552493639
8.980176211453745,6.552096899629758
9.000000000000002,6.53944427834379
9.019823788546258,6.523606100473744
9.039647577092511,6.504623942232525
9.059471365638768,6.482547589363734
9.079295154185024,6.457435090664157
9.099118942731279,6.429352819575982
9.118942731277533,6.398375543444382
9.13876651982379,6.364586499893876
9.158590308370046,6.328077479598897
9.1784140969163,6.2889489144969275
9.198237885462555,6.247309970214062
9.218061674008812,6.203278641128701
9.237885462555067,6.156981846083844
9.257709251101323,6.108555522258514
9.27753303964758,6.058144714115991
9.297356828193834,6.00590365364858
9.317180616740089,5.951995827327362
9.337004405286345,5.896594024231625
9.356828193832602,5.839880358772923
9.376651982378855,5.782046260241758
9.396475770925111,5.7232924200981605
9.416299559471367,5.6638286865170375
9.436123348017622,5.603873894213943
9.455947136563877,5.543655616061647
9.475770925110133,5.483409821527854
9.49559471365639,5.423380425608652
9.515418502202644,5.363818710815324
9.5352422907489,5.304982604041747
9.555066079295155,5.247135789966803
9.57488986784141,5.1905466432351695
9.594713656387666,5.13548696322752
9.614537444933923,5.082230498002342
9.634361233480178,5.031051248176381
9.654185022026432,4.982221547274082
9.674008810572689,4.936009922508286
9.693832599118945,4.892678749027953
9.713656387665198,4.852481721202272
9.733480176211454,4.815661176134535
9.75330396475771,4.782445316736374
9.773127753303967,4.753045393564057
9.792951541850222,4.727652915272284
9.812775330396477,4.706436965928638
9.832599118942733,4.689541712506641
9.852422907488988,4.677084186725534
9.872246696035244,4.669152421387769
9.892070484581499,4.665804012239459
9.911894273127754,4.667065162382173
9.93171806167401,4.6729302481466055
9.951541850220266,4.68336192430993
9.971365638766521,4.698291764146667
9.991189427312776,4.717621407763275
10.011013215859032,4.74122417214586
10.030837004405289,4.768947059781118
10.050660792951543,4.800613090622944
10.070484581497798,4.8360238751155435
10.090308370044054,4.874962343983356
10.11013215859031,4.917195553141421
10.129955947136565,4.962477488599385
10.14977973568282,5.010551805645879
10.169603524229077,5.061154447847236
10.189427312775331,5.114016103456038
10.209251101321588,5.168864468816369
10.229074889867842,5.2254262995731136
10.248898678414099,5.283429240453339
10.268722466960353,5.342603432796638
10.28854625550661,5.4026829057564765
10.308370044052865,5.463406762199434
10.32819383259912,5.52452017391774
10.348017621145376,5.585775203031606
10.367841409691632,5.6469314676063505
10.387665198237887,5.707756669771154
10.407488986784141,5.768027004212255
10.427312775330398,5.827527464014952
10.447136563876654,5.886052059607064
10.466960352422909,5.943403965145291
10.486784140969164,5.999395605189823
10.50660792951542,6.053848693008061
10.526431718061675,6.1065942303950225
10.546255506607931,6.157472477530806
10.566079295154186,6.206332900139924
10.585903083700442,6.2530341000841
10.605726872246697,6.297443734513804
10.625550660792953,6.339438427822049
10.645374449339208,6.378903679880086
10.665198237885463,6.415733773380913
10.685022026431719,6.449831682562206
10.704845814977975,6.4811089851148616
10.724669603524232,6.509485778697019
10.744493392070485,6.534890603155216
10.764317180616741,6.557260369295358
10.784140969162998,6.576540294837331
10.803964757709252,6.592683848021503
10.823788546255507,6.605652699204111
10.843612334801763,6.615416680677541
10.86343612334802,6.621953754873345
