Frequency (Hz),Amplitude
0.0,5.527547249161106
0.01978021978021978,5.524887250215593
0.03956043956043956,5.516910060958685
0.05934065934065934,5.503624103342437
0.07912087912087912,5.4850434113725255
0.0989010989010989,5.4611876273848035
0.11868131868131868,5.432081997133653
0.13846153846153844,5.397757364005114
0.15824175824175823,5.358250162774708
0.17802197802197803,5.313602413451251
0.1978021978021978,5.263861715888003
0.21758241758241756,5.209081246007806
0.23736263736263735,5.1493197546856235
0.2571428571428572,5.084641570569296
0.2769230769230769,5.015116608409463
0.2967032967032967,4.9408203848259165
0.31648351648351647,4.861834043880694
0.3362637362637363,4.77824439538177
0.35604395604395606,4.690143969539202
0.3758241758241758,4.597631092481463
0.3956043956043956,4.500809988272544
0.4153846153846154,4.399790914529167
0.4351648351648351,4.294690340631052
0.45494505494505494,4.185631179992459
0.4747252747252747,4.072743091126396
0.4945054945054945,3.9561628665688815
0.5142857142857143,3.836034934542867
0.5340659340659341,3.7125120061018912
0.5538461538461538,3.5857559112250548
0.5736263736263736,3.455938682129264
0.5934065934065934,3.323243962670684
0.6131868131868132,3.1878688517137497
0.6329670329670329,3.0500263296303114
0.6527472527472528,2.9099484765176777
0.6725274725274726,2.7678907772524144
0.6923076923076923,2.624137935932054
0.7120879120879121,2.4790118120070113
0.7318681318681318,2.332882375749774
0.7516483516483516,2.1861830131423323
0.7714285714285715,2.0394321680616954
0.7912087912087912,1.8932643065881294
0.810989010989011,1.748474672479509
0.8307692307692308,1.6060844104982612
0.8505494505494506,1.4674352890554305
0.8703296703296702,1.334325507274144
0.8901098901098901,1.209196241188783
0.9098901098901099,1.095361870328343
0.9296703296703297,0.9972205171671731
0.9494505494505494,0.9202513014969255
0.9692307692307692,0.8704278005852996
0.989010989010989,0.8527314324368388
1.0087912087912088,0.8691984313220432
1.0285714285714287,0.917933622790734
1.0483516483516484,0.9940324933754061
1.0681318681318681,1.0915274445008447
1.087912087912088,1.2049065325041721
1.1076923076923075,1.3297298527138206
1.1274725274725275,1.4626464602457532
1.1472527472527472,1.6011872843206536
1.1670329670329669,1.7435340175070626
1.1868131868131868,1.888330676335971
1.2065934065934065,2.0345460717400496
1.2263736263736265,2.18137779182702
1.2461538461538462,2.3281861727453346
1.2659340659340659,2.474448926674259
1.2857142857142858,2.6197297610011865
1.3054945054945055,2.7636564540191046
1.3252747252747252,2.9059053574615548
1.3450549450549452,3.046190308208554
1.3648351648351649,3.184254599486917
1.3846153846153846,3.319865101016443
1.4043956043956045,3.4528079072539
1.4241758241758242,3.5828850854706062
1.443956043956044,3.7099122246884932
1.4637362637362636,3.8337165742501838
1.4835164835164834,3.954135621039308
1.5032967032967033,4.071015996199683
1.523076923076923,4.184212631581756
1.542857142857143,4.293588107007271
1.5626373626373626,4.399012144416446
1.5824175824175823,4.500361215818725
1.6021978021978023,4.5975182399181005
1.621978021978022,4.690372348160006
1.6417582417582417,4.778818705329211
1.6615384615384616,4.862758373124892
1.6813186813186813,4.942098207639701
1.7010989010989013,5.016750783581185
1.720879120879121,5.086634339547013
1.7406593406593405,5.15167273980841
1.7604395604395604,5.211795448950278
1.7802197802197801,5.2669375164202075
1.7999999999999998,5.317039568597179
1.8197802197802198,5.362047806436928
1.8395604395604395,5.401914007110601
1.8593406593406594,5.436595528345036
1.879120879120879,5.466055314412528
1.8989010989010988,5.4902619029159485
1.9186813186813187,5.509189431681211
1.9384615384615385,5.5228176452101065
1.9582417582417584,5.531131900268524
1.978021978021978,5.534123170292343
1.9978021978021978,5.531788048390184
2.0175824175824175,5.5241287488115836
2.0373626373626372,5.511153106834724
2.0571428571428574,5.492874577111409
2.076923076923077,5.469312230592391
2.096703296703297,5.440490750244975
2.1164835164835165,5.406440425871263
2.1362637362637362,5.367197148441579
2.1560439560439564,5.32280240447855
2.175824175824176,5.273303271166436
2.195604395604396,5.218752413024681
2.215384615384615,5.159208081179767
2.2351648351648348,5.094734116505451
2.254945054945055,5.0253999581890545
2.2747252747252746,4.951280659635202
2.2945054945054943,4.8724569140574765
2.314285714285714,4.789015092657596
2.3340659340659338,4.701047298983253
2.353846153846154,4.608651443933924
2.3736263736263736,4.511931347005952
2.3934065934065933,4.410996870813525
2.413186813186813,4.305964097796859
2.4329670329670328,4.196955560479867
2.452747252747253,4.084100539869128
2.4725274725274726,3.96753545087679
2.4923076923076923,3.847404339399623
2.512087912087912,3.7238595234611336
2.5318681318681318,3.5970624214337827
2.5516483516483515,3.4671846249831626
2.5714285714285716,3.334409294738832
2.5912087912087913,3.1989329853540336
2.610989010989011,3.0609680473930383
2.6307692307692307,2.920745812166538
2.6505494505494505,2.778520851061371
2.6703296703296706,2.6345767267025817
2.6901098901098903,2.4892338405737635
2.70989010989011,2.3428602633766022
2.7296703296703297,2.19588686135878
2.7494505494505495,2.0488286816748107
2.769230769230769,1.902315545863382
2.7890109890109893,1.7571362717536896
2.808791208791209,1.614303042663491
2.8285714285714287,1.4751451138504992
2.8483516483516484,1.3414434057591065
2.8681318681318677,1.2156160654524781
2.887912087912088,1.1009493353396897
2.9076923076923076,1.0018137660743458
2.9274725274725273,0.9236778405903624
2.947252747252747,0.8725508216044052
2.9670329670329667,0.8535210443532262
2.986813186813187,0.8687823978341254
3.0065934065934066,0.9165742560352209
3.0263736263736263,0.9920440580438801
3.046153846153846,1.089200282678219
3.0659340659340657,1.2024732294324953
3.085714285714286,1.327363924081795
3.1054945054945056,1.4604739183759239
3.1252747252747253,1.5992995637137404
3.145054945054945,1.7419983578268916
3.1648351648351647,1.8871975412718192
3.184615384615385,2.033854207776506
3.2043956043956046,2.181157624212807
3.2241758241758243,2.3284620842866026
3.243956043956044,2.4752407979290587
3.2637362637362637,2.621054022641551
3.2835164835164834,2.7655268148306167
3.3032967032967036,2.9083333143957475
3.3230769230769233,3.049185508189139
3.342857142857143,3.1878250990847348
3.3626373626373627,3.324017554873187
3.3824175824175824,3.457547706201328
3.4021978021978025,3.588216458742384
3.4219780219780223,3.7158383162495308
3.441758241758242,3.840239500313026
3.4615384615384617,3.961256513814121
3.481318681318681,4.078735037522741
3.501098901098901,4.1925290790840934
3.520879120879121,4.302500314788082
3.5406593406593405,4.408517579685519
3.5604395604395602,4.510456472609677
3.58021978021978,4.6081990507088095
3.5999999999999996,4.70163359404004
3.61978021978022,4.790654425207777
3.6395604395604395,4.875161772362151
3.659340659340659,4.95506166640046
3.679120879120879,5.030265865145555
3.6989010989010986,5.100691798762741
3.718681318681319,5.166262531830836
3.7384615384615385,5.226906738385064
3.758241758241758,5.2825586869597965
3.7780219780219784,5.333158233222263
3.7978021978021976,5.378650818238511
3.8175824175824173,5.418987470775071
3.8373626373626375,5.454124812334056
3.8571428571428568,5.484025063860429
3.876923076923077,5.508656053259542
3.896703296703296,5.52799122303031
3.916483516483517,5.542009637461127
3.936263736263736,5.550695988958194
3.956043956043956,5.554040603183704
3.9758241758241755,5.552039442778442
3.9956043956043956,5.544694109532973
4.015384615384615,5.532011844957167
4.035164835164835,5.514005529281324
4.054945054945055,5.490693679007348
4.0747252747252745,5.4621004432172615
4.094505494505494,5.428255598941718
4.114285714285715,5.389194545997645
4.134065934065934,5.344958301823434
4.153846153846154,5.295593496979148
4.173626373626373,5.24115237214144
4.193406593406594,5.181692777617167
4.213186813186813,5.117278176633325
4.232967032967033,5.04797765394585
4.252747252747253,4.973865931660798
4.2725274725274724,4.895023394595733
4.292307692307692,4.811536128053475
4.312087912087913,4.72349597156479
4.331868131868132,4.631000593025901
4.351648351648352,4.534153588767116
4.371428571428571,4.433064616519037
4.391208791208792,4.327849570097085
4.410989010989011,4.21863080704965
4.43076923076923,4.105537443708291
4.450549450549451,3.988705736320934
4.4703296703296695,3.8682795726323085
4.49010989010989,3.7444111059594074
4.50989010989011,3.6172615742939085
4.52967032967033,3.487002361412012
4.549450549450549,3.3538163770861735
4.569230769230769,3.2178998617972576
4.589010989010989,3.0794647616144664
4.608791208791209,2.9387418768587654
4.628571428571428,2.7959850725244566
4.648351648351649,2.6514769626678354
4.6681318681318675,2.505536665986837
4.687912087912088,2.358530508179402
4.707692307692308,2.210886968954105
4.7274725274725276,2.0631178151196647
4.747252747252747,1.915848339705369
4.767032967032967,1.7698610922952571
4.786813186813187,1.6261595894060088
4.806593406593407,1.4860612095155534
4.826373626373626,1.3513309973129248
4.846153846153847,1.224367090518157
4.8659340659340655,1.1084338370224507
4.885714285714286,1.007886392874758
4.905494505494506,0.9282042761060098
4.9252747252747255,0.8754655625472786
4.945054945054945,0.854904768944088
4.964835164835165,0.8689028346539015
4.984615384615385,0.9158367466169405
5.004395604395604,0.9908827697819561
5.024175824175824,1.087991498432006
5.043956043956045,1.2015048457026458
5.0637362637362635,1.3268426785863863
5.083516483516483,1.460544780083578
5.103296703296703,1.6000641293717295
5.123076923076923,1.7435286514868629
5.142857142857143,1.8895454685242687
5.162637362637362,2.0370578094089025
5.182417582417583,2.1852451749838524
5.2021978021978015,2.3334547894026674
5.221978021978022,2.4811545851526584
5.241758241758242,2.6279007492257453
5.2615384615384615,2.7733150922086973
5.281318681318681,2.9170690800610273
5.301098901098901,3.0588724280855155
5.320879120879121,3.198464854802518
5.340659340659341,3.335610051515112
5.36043956043956,3.4700912249461777
5.380219780219781,3.6017077704308904
5.3999999999999995,3.7302727672370763
5.41978021978022,3.8556110784371724
5.43956043956044,3.9775579000239696
5.4593406593406595,4.095957647137608
5.479120879120879,4.210663095551498
5.498901098901099,4.321534718038995
5.518681318681319,4.42844017063562
5.538461538461538,4.531253894960464
5.558241758241758,4.629856810915095
5.578021978021979,4.724136080099804
5.5978021978021975,4.8139849247737105
5.617582417582418,4.899302490557563
5.637362637362637,4.979993743633515
5.6571428571428575,5.055969395148604
5.676923076923077,5.127145847031547
5.696703296703297,5.193445154598196
5.716483516483517,5.254795002231778
5.736263736263735,5.311128689140844
5.756043956043956,5.362385122766141
5.775824175824176,5.408508817861319
5.795604395604395,5.449449899637769
5.815384615384615,5.485164109660243
5.835164835164835,5.5156128134226305
5.854945054945055,5.540763008734199
5.874725274725275,5.560587334214454
5.894505494505494,5.575064077337751
5.914285714285715,5.584177181591539
5.934065934065933,5.5879162524204835
5.953846153846154,5.5862765617258905
5.973626373626374,5.579259050779822
5.993406593406593,5.566870331498442
6.013186813186813,5.549122686102964
6.032967032967033,5.5260340652810465
6.052747252747253,5.497628085050021
6.072527472527473,5.463934022618393
6.092307692307692,5.424986811647203
6.112087912087913,5.380827037431646
6.131868131868131,5.331500932660635
6.151648351648352,5.2770603745730895
6.171428571428572,5.217562884521471
6.191208791208791,5.15307163118451
6.210989010989011,5.083655438952603
6.230769230769231,5.009388803356034
6.2505494505494505,4.930351915835603
6.270329670329671,4.846630700692402
6.29010989010989,4.758316867729769
6.309890109890111,4.665507984958198
6.329670329670329,4.56830757683043
6.349450549450549,4.466825254884899
6.36923076923077,4.361176889505724
6.3890109890109885,4.251484833898928
6.408791208791209,4.137878214534589
6.428571428571428,4.020493306488343
6.4483516483516485,3.899474017720545
6.468131868131868,3.7749725139067634
6.487912087912088,3.647150025770386
6.507692307692308,3.5161778951115608
6.527472527472527,3.3822389355558133
6.547252747252747,3.245529211948446
6.567032967032967,3.106260382022236
6.5868131868131865,2.9646628011067286
6.606593406593407,2.8209896738538296
6.626373626373626,2.6755226595438764
6.6461538461538465,2.5285795202209234
6.665934065934065,2.380524676029481
6.685714285714286,2.231783950089994
6.705494505494506,2.0828654235787987
6.725274725274725,1.9343892954320483
6.745054945054945,1.7871311068343487
6.764835164835165,1.642084814340641
6.7846153846153845,1.5005549892190047
6.804395604395605,1.3642901722459655
6.824175824175824,1.2356690010233664
6.8439560439560445,1.1179374183900102
6.863736263736263,1.0154452570544714
6.883516483516484,0.9337054362221633
6.903296703296704,0.8789049428808283
6.923076923076923,0.8564792010563582
6.942857142857143,0.8690451719116724
6.962637362637362,0.9151335260559158
6.9824175824175825,0.989926480980011
7.002197802197802,1.0872743201767217
7.021978021978022,1.2013898758327322
7.041758241758242,1.3275818849623044
7.061538461538461,1.462308951866025
7.081318681318681,1.6029688170572853
7.101098901098901,1.7476526998582858
7.1208791208791204,1.8949432817590275
7.140659340659341,2.043767241088716
7.16043956043956,2.1932925771068925
7.1802197802197805,2.342858263893919
7.199999999999999,2.491926103218283
7.21978021978022,2.64004755325742
7.23956043956044,2.7868406378610704
7.259340659340659,2.931973679563265
7.279120879120879,3.0751536966211797
7.298901098901099,3.21611802523142
7.318681318681318,3.35462819989458
7.338461538461539,3.490465434882333
7.358241758241758,3.623427255038294
7.3780219780219785,3.7533249614659328
7.397802197802197,3.87998171055463
7.417582417582418,4.003231048378198
7.437362637362638,4.1229157865306
7.457142857142857,4.238887136308461
7.476923076923077,4.351004040001239
7.496703296703297,4.459132653698201
7.516483516483516,4.563145947345016
7.536263736263736,4.66292339605838
7.556043956043957,4.758350742813551
7.575824175824176,4.8493198171661165
7.595604395604395,4.935728398084454
7.615384615384615,5.017480111555712
7.635164835164835,5.094484355602823
7.654945054945055,5.166656246869502
7.674725274725275,5.233916584107972
7.694505494505494,5.29619182482386
7.7142857142857135,5.353414072056483
7.734065934065935,5.405521068845735
7.753846153846154,5.452456198394574
7.7736263736263735,5.494168488304395
7.793406593406592,5.5306126175588055
7.813186813186814,5.561748925176185
7.832967032967034,5.5875434196530325
7.852747252747252,5.607967788489389
7.872527472527472,5.622999407230828
7.892307692307693,5.632621347584949
7.912087912087912,5.636822384278768
7.931868131868132,5.63559700042085
7.951648351648351,5.6289453912215945
7.971428571428572,5.61687346601048
7.991208791208791,5.59939284857207
8.010989010989011,5.576520875906805
8.03076923076923,5.548280595610422
8.05054945054945,5.514700762159821
8.07032967032967,5.475815832497108
8.09010989010989,5.431665961421196
8.10989010989011,5.382296997431294
8.129670329670331,5.327760479825699
8.149450549450549,5.268113638047912
8.169230769230769,5.20341939449999
8.189010989010988,5.13374637231982
8.20879120879121,5.05916890995994
8.22857142857143,4.979767084827702
8.248351648351647,4.895626748774236
8.268131868131867,4.806839578884022
8.287912087912087,4.713503147859643
8.307692307692308,4.615721019372611
8.327472527472528,4.513602875136613
8.347252747252746,4.407264682256154
8.367032967032966,4.296828911750642
8.386813186813187,4.182424822245895
8.406593406593407,4.064188826930568
8.426373626373627,3.9422649673751473
8.446153846153845,3.8168055252448574
8.465934065934066,3.6879718130814223
8.485714285714286,3.55593519930615
8.505494505494505,3.420878442058669
8.525274725274725,3.2829974338757952
8.545054945054945,3.1425034981998334
8.564835164835165,2.999626434837907
8.584615384615384,2.854618593281469
8.604395604395604,2.7077603733957694
8.624175824175826,2.559367732918492
8.643956043956043,2.409802552620417
8.663736263736263,2.259487123249715
8.683516483516483,2.1089246515975284
8.703296703296704,1.9587286536340502
8.723076923076924,1.8096655746015806
8.742857142857142,1.6627171354988766
8.762637362637362,1.5191718171322874
8.782417582417583,1.3807579714571159
8.802197802197803,1.2498314478221793
8.821978021978023,1.129619062107266
8.84175824175824,1.0244720692274378
8.86153846153846,0.939959973686184
8.881318681318682,0.8824292362849884
8.901098901098901,0.8575949727177656
8.920879120879121,0.8683903798770931
8.940659340659339,0.9135369527693411
8.96043956043956,0.9882002052995258
8.98021978021978,1.0860735430943447
9.0,1.20118345181748
9.01978021978022,1.3286848273560778
9.03956043956044,1.464927558842803
9.05934065934066,1.6072375604524256
9.079120879120879,1.753659603381386
9.098901098901099,1.9027462098383874
9.11868131868132,2.0534040972098198
9.138461538461538,2.204787668234093
9.158241758241758,2.356226302232966
9.178021978021977,2.507174754680586
9.197802197802199,2.6571790850801373
9.217582417582419,2.8058530009396487
9.237362637362637,2.9528612310095927
9.257142857142856,3.0979076900024816
9.276923076923078,3.24072694868832
9.296703296703297,3.3810780133728637
9.316483516483517,3.518739739708447
9.336263736263735,3.65350741771046
9.356043956043957,3.7851902062596916
9.375824175824176,3.913609190817401
9.395604395604396,4.038595903274369
9.415384615384616,4.1599911879206015
9.435164835164835,4.277644329039783
9.454945054945055,4.3914123779272405
9.474725274725275,4.501159633074633
9.494505494505495,4.606757238787721
9.514285714285714,4.708082875915961
9.534065934065934,4.805020524572986
9.553846153846154,4.897460283339423
9.573626373626373,4.985298232900526
9.593406593406593,5.068436334690381
9.613186813186815,5.146782357112648
9.632967032967032,5.220249823443917
9.652747252747252,5.288757976716023
9.672527472527472,5.352231757802281
9.692307692307693,5.410601793662773
9.712087912087913,5.463804393281892
9.731868131868131,5.511781549292621
9.75164835164835,5.554480943652759
9.771428571428572,5.591855956038816
9.791208791208792,5.623865673869181
9.810989010989012,5.650474903071079
9.83076923076923,5.671654178875606
9.850549450549451,5.6873797760687035
9.87032967032967,5.697633718249757
9.89010989010989,5.702403785757728
9.90989010989011,5.701683522022108
9.92967032967033,5.695472238185193
9.94945054945055,5.683775015926785
9.96923076923077,5.66660270850517
9.989010989010989,5.643971940110972
10.008791208791209,5.615905103717272
10.028571428571428,5.582430357701887
10.048351648351648,5.543581621619814
10.068131868131868,5.499398571618704
10.08791208791209,5.449926636122933
10.107692307692307,5.395216992566763
10.127472527472527,5.335326566141686
10.147252747252747,5.270318031745099
10.167032967032966,5.200259820587532
10.186813186813188,5.125226133247985
10.206593406593406,5.045296961377887
10.226373626373626,4.960558120768506
10.246153846153845,4.871101299143159
10.265934065934067,4.777024122855956
10.285714285714286,4.678430247726206
10.305494505494504,4.575429480585852
10.325274725274724,4.468137939864776
10.345054945054946,4.3566782658225405
10.364835164835165,4.241179894041925
10.384615384615385,4.121779409793644
10.404395604395603,3.9986210062307803
10.424175824175824,3.8718570766027853
10.443956043956044,3.741648980546673
10.463736263736264,3.6081680381136
10.483516483516484,3.4715968241306987
10.503296703296703,3.332130862167695
10.523076923076923,3.189980855357066
10.542857142857143,3.0453756460424044
10.562637362637362,2.8985661760478476
10.582417582417584,2.749830837215743
10.602197802197802,2.599482778010556
10.621978021978022,2.447879998350404
10.641758241758241,2.295439471771072
10.661538461538463,2.142657160490574
10.681318681318682,1.9901367557454177
10.7010989010989,1.8386314570703108
10.72087912087912,1.6891053142324872
10.740659340659342,1.542823730728716
10.760439560439561,1.4014862561410601
