Time (s),Filtered Signal
0.0,-0.07724212947078626
0.033370535714285714,-0.19254101918176095
0.06674107142857143,-0.25594780523987265
0.10011160714285713,-0.25162862990472507
0.13348214285714285,-0.2130877935260981
0.16685267857142858,-0.20791551441436473
0.20022321428571427,-0.3021865821430582
0.23359375,-0.5246586338817799
0.2669642857142857,-0.8497746611430307
0.30033482142857143,-1.2068997931844148
0.33370535714285715,-1.5090019273885067
0.36707589285714287,-1.6852870119346832
0.40044642857142854,-1.702842894579244
0.43381696428571426,-1.5701574291563154
0.4671875,-1.3250568483672527
0.5005580357142857,-1.0159437360868355
0.5339285714285714,-0.6858134858161118
0.5672991071428571,-0.36441290058928816
0.6006696428571429,-0.06827059117036907
0.6340401785714286,0.19548640595712438
0.6674107142857143,0.425894069950805
0.70078125,0.6271946551746364
0.7341517857142857,0.8085544160620185
0.7675223214285715,0.9813605954282153
0.8008928571428571,1.152501263920875
0.8342633928571428,1.3156688770276221
0.8676339285714285,1.4460492048671945
0.9010044642857142,1.5040669018538153
0.934375,1.4499913545499188
0.9677455357142857,1.2646977165315938
1.0011160714285714,0.9665211908585121
1.0344866071428571,0.6137855429591782
1.0678571428571428,0.2884556000950918
1.1012276785714286,0.06586065408816105
1.1345982142857143,-0.016557236733227478
1.16796875,0.02337174296179194
1.2013392857142857,0.11823331632716247
1.2347098214285714,0.17845750207135433
1.2680803571428572,0.12990524274781756
1.3014508928571429,-0.054870278673857784
1.3348214285714286,-0.34532384424326246
1.3681919642857143,-0.6660299564791242
1.4015625,-0.9276404693407326
1.4349330357142858,-1.0616071900003548
1.4683035714285715,-1.0439831377916948
1.5016741071428572,-0.899701279746716
1.535044642857143,-0.6879914065530016
1.5684151785714286,-0.4773571954691829
1.6017857142857141,-0.321489322966224
1.6351562499999999,-0.24511440599177886
1.6685267857142856,-0.24306119775359286
1.7018973214285713,-0.2898505234099155
1.735267857142857,-0.35348885695640875
1.7686383928571427,-0.4069529403677899
1.8020089285714285,-0.4334712831492735
1.8353794642857142,-0.4254227769665655
1.86875,-0.37967024533198634
1.9021205357142856,-0.293282659844261
1.9354910714285714,-0.1626501381741867
1.968861607142857,0.013421235246817036
2.002232142857143,0.2286820945468462
2.0356026785714287,0.46594428327110765
2.0689732142857142,0.6979254343918582
2.10234375,0.8928864674521914
2.1357142857142857,1.0229204586632528
2.169084821428571,1.071457999476621
2.202455357142857,1.0371254207697707
2.2358258928571426,0.9329032014176821
2.2691964285714286,0.7814408641416557
2.302566964285714,0.6085548455930343
2.3359375,0.4371433651199691
2.3693080357142855,0.2831756753387075
2.4026785714285714,0.1543615075583355
2.436049107142857,0.05097986569397361
2.469419642857143,-0.03235309157168185
2.5027901785714284,-0.10508230067237037
2.5361607142857143,-0.1795217340658723
2.56953125,-0.2693045648612763
2.6029017857142858,-0.38633300222805944
2.6362723214285713,-0.5358113791808848
2.669642857142857,-0.7105694952697909
2.7030133928571427,-0.8875080549781225
2.7363839285714286,-1.0294127410084641
2.769754464285714,-1.093786040826154
2.803125,-1.0470533471915788
2.8364955357142856,-0.8790683921007263
2.8698660714285715,-0.6113282182551546
2.903236607142857,-0.2940327302159208
2.936607142857143,0.008274834006773106
2.9699776785714285,0.23737115081967916
3.0033482142857144,0.3598967001800345
3.03671875,0.37612603785668675
3.070089285714286,0.3159742330130124
3.1034598214285714,0.2252910729416554
3.1368303571428573,0.14947235103836937
3.170200892857143,0.12118982785810811
3.2035714285714283,0.15523611112809554
3.2369419642857142,0.24901514275786402
3.2703124999999997,0.3851429448986106
3.3036830357142857,0.5339592906557695
3.337053571428571,0.6568216774984318
3.370424107142857,0.7128865213893767
3.4037946428571426,0.6706976637047904
3.4371651785714286,0.521881903376182
3.470535714285714,0.2904681380541957
3.50390625,0.030998208731755062
3.5372767857142855,-0.18709694412734237
3.5706473214285714,-0.3042477156440728
3.604017857142857,-0.2940653240199151
3.637388392857143,-0.17382709659640386
3.6707589285714284,0.003685252291444149
3.7041294642857143,0.17329814335897495
3.7375,0.2837342644054013
3.7708705357142858,0.3137135372185577
3.8042410714285713,0.27076858899061984
3.837611607142857,0.17616716986234493
3.8709821428571427,0.047475588105237755
3.9043526785714286,-0.10919887387300962
3.937723214285714,-0.29275128371483466
3.97109375,-0.49237957967802926
4.004464285714286,-0.6769805344707474
4.0378348214285715,-0.7987580891017622
4.0712053571428575,-0.8117093501400388
4.1045758928571425,-0.6952733922232184
4.1379464285714285,-0.4690823216065408
4.171316964285714,-0.18935916493117186
4.2046875,0.07195242967623677
4.238058035714285,0.2545537203455028
4.271428571428571,0.32996997338561307
4.304799107142857,0.3059539823917224
4.338169642857142,0.21573212988931445
4.371540178571428,0.10012001082311102
4.404910714285714,-0.0077587549324939255
4.43828125,-0.08923492429543814
4.471651785714285,-0.13841469399747008
4.505022321428571,-0.15644478181684476
4.538392857142857,-0.14672144184070446
4.571763392857143,-0.11354022611403677
4.605133928571428,-0.06329722551877118
4.638504464285714,-0.0053455550280929786
4.671875,0.04996209812276164
4.705245535714286,0.09612570006859912
4.738616071428571,0.13554194080786222
4.771986607142857,0.18070370503115551
4.805357142857143,0.24882781798685333
4.838727678571429,0.3508767084411698
4.872098214285714,0.4800985556367985
4.90546875,0.6071097257617506
4.938839285714286,0.6863745602692679
4.972209821428572,0.673289582053876
5.005580357142857,0.5448989344809922
5.038950892857143,0.3141531619094361
5.072321428571429,0.029646242152019227
5.105691964285715,-0.24073141106463514
5.1390625,-0.43585662345229687
5.172433035714286,-0.5253960729190397
5.2058035714285715,-0.5201718274114362
5.2391741071428575,-0.46337819705004785
5.2725446428571425,-0.4066090926260874
5.3059151785714285,-0.382644461711951
5.339285714285714,-0.38897017507770293
5.3726562499999995,-0.39057358186143143
5.406026785714285,-0.3404140106101575
5.439397321428571,-0.20669940699994777
5.472767857142857,0.007210399214662124
5.506138392857142,0.2602473494999356
5.539508928571428,0.48931199635400574
5.572879464285714,0.6350641295514796
5.60625,0.6652134275539808
5.639620535714285,0.5845491312238041
5.672991071428571,0.4279010170981445
5.706361607142857,0.24076306203336667
5.739732142857143,0.058235172294570925
5.773102678571428,-0.10673093466141066
5.806473214285714,-0.2602516872807298
5.83984375,-0.4124459080333861
5.873214285714286,-0.5600389881084983
5.906584821428571,-0.6778013762500013
5.939955357142857,-0.7252259743563961
5.973325892857143,-0.666188737144028
6.006696428571429,-0.4914083746520505
6.040066964285714,-0.2308785906870378
6.0734375,0.052031212512991844
6.106808035714286,0.2835688488548067
6.140178571428572,0.4090657298332143
6.173549107142857,0.41431160243729975
6.206919642857143,0.32808221261232334
6.240290178571429,0.20468920293551368
6.273660714285715,0.09577183290486273
6.30703125,0.02612873296012974
6.340401785714286,-0.013824021115429306
6.3737723214285715,-0.055331436004368684
6.407142857142857,-0.12573053892045413
6.4405133928571425,-0.22474837936164746
6.4738839285714285,-0.31688051963169567
6.507254464285714,-0.345700419111071
6.5406249999999995,-0.2638571934211538
6.573995535714285,-0.06309031578552822
6.607366071428571,0.21278486607379693
6.640736607142857,0.48094289579996713
6.674107142857142,0.654075794800193
6.707477678571428,0.6798308699072575
6.740848214285714,0.5650555754184492
6.77421875,0.3719506508615292
6.807589285714285,0.18756325070849952
6.840959821428571,0.08183526648701298
6.874330357142857,0.07528419304868385
6.907700892857143,0.1323546478551006
6.941071428571428,0.1833768123592009
6.974441964285714,0.16372758179432723
7.0078125,0.05031587271925181
7.041183035714286,-0.12313818063275636
7.074553571428571,-0.28019485034287844
7.107924107142857,-0.3389110477410405
7.141294642857143,-0.25431379500125995
7.174665178571429,-0.04507932312645578
7.208035714285714,0.20955519656505212
7.24140625,0.4023579154511529
7.274776785714286,0.44524636067895734
7.308147321428572,0.3085723864111089
7.341517857142857,0.03378378433100593
7.374888392857143,-0.2860818808637191
7.408258928571429,-0.5477271901905132
7.441629464285715,-0.6802483251900673
7.475,-0.6693657652694691
7.508370535714286,-0.554202700221815
7.5417410714285715,-0.4019045983330356
7.575111607142857,-0.2754091951355337
7.6084821428571425,-0.21051357899387865
7.6418526785714285,-0.2107518610483941
7.675223214285714,-0.25782112509124927
7.7085937499999995,-0.32773802333956614
7.741964285714285,-0.4022169883078492
7.775334821428571,-0.4701760883651543
7.808705357142857,-0.5216837722991414
7.842075892857142,-0.5413594397044083
7.875446428571428,-0.5077023205662505
7.908816964285714,-0.3999540249443472
7.9421875,-0.20845820191547523
7.975558035714285,0.05807561139339832
8.008928571428571,0.3728541583190503
8.042299107142856,0.6981705696111962
8.075669642857143,0.9945708077574188
8.109040178571428,1.226858320905924
8.142410714285715,1.3654700338821797
8.17578125,1.3863214454738344
8.209151785714285,1.2738876726445596
8.242522321428572,1.0294751233263741
8.275892857142857,0.681164035171792
8.309263392857142,0.2877876329250984
8.342633928571429,-0.06994780926258762
8.376004464285714,-0.3120177335099255
8.409375,-0.38784716455217766
8.442745535714286,-0.29839914915807847
8.47611607142857,-0.09990664652969039
8.509486607142858,0.1145735252623294
8.542857142857143,0.2491160932445081
8.576227678571428,0.24022589887200269
8.609598214285715,0.07870635541219927
8.64296875,-0.19033533606433672
8.676339285714285,-0.487971146000388
8.709709821428572,-0.7325911773127993
8.743080357142857,-0.8683975049886041
8.776450892857143,-0.8804405106895423
8.809821428571428,-0.792131564186067
8.843191964285714,-0.6489036796987597
8.8765625,-0.4970719020375763
8.909933035714285,-0.3678016736678892
8.94330357142857,-0.27224721153264697
8.976674107142857,-0.2073864004228223
9.010044642857142,-0.16636407819910523
9.04341517857143,-0.14553023297701695
9.076785714285714,-0.1437754355326309
9.11015625,-0.15594351266922543
9.143526785714286,-0.16682935516475952
9.176897321428571,-0.15226151978168498
9.210267857142856,-0.08897794194156171
9.243638392857143,0.0313763955789385
9.277008928571428,0.1925510384162003
9.310379464285715,0.35532961931654927
9.34375,0.4716954546342212
9.377120535714285,0.5056948611216758
9.410491071428572,0.45095044216623537
9.443861607142857,0.33575920547032795
9.477232142857142,0.21248228566798316
9.510602678571429,0.13556436928641621
9.543973214285714,0.1381590316475829
9.57734375,0.21816705721673732
9.610714285714286,0.34007996535476076
9.64408482142857,0.4514717181860212
9.677455357142858,0.5059825899823442
9.710825892857143,0.48172420017113793
9.744196428571428,0.3867910731973774
9.777566964285715,0.2506101339178001
9.8109375,0.10732142927229017
9.844308035714285,-0.019029937175975037
9.877678571428572,-0.1200252945673057
9.911049107142857,-0.19817445722267246
9.944419642857143,-0.2573795151429692
9.977790178571428,-0.29610846218667786
10.011160714285714,-0.3078324743265193
10.04453125,-0.2876291673077157
10.077901785714285,-0.2395031896568516
10.11127232142857,-0.17861807664249868
10.144642857142857,-0.12614718901132554
10.178013392857142,-0.09932501235067324
10.21138392857143,-0.10242176016738207
10.244754464285714,-0.12398775042985799
10.278125,-0.14221058066924772
10.311495535714286,-0.1357291709090329
10.344866071428571,-0.09431658865460486
10.378236607142856,-0.024048209304343385
10.411607142857143,0.05533341839557747
10.444977678571428,0.1190215333434677
10.478348214285715,0.1470669147548324
10.51171875,0.1308992042194497
10.545089285714285,0.07416379786042746
10.578459821428572,-0.011096114311914741
10.611830357142857,-0.10966049493484699
10.645200892857142,-0.20654908537307232
10.678571428571429,-0.28750111809520423
10.711941964285714,-0.33802493740158085
10.745312499999999,-0.3439089414157686
10.778683035714286,-0.29515412541526226
10.81205357142857,-0.19247587188556836
10.845424107142858,-0.05263487917620677
10.878794642857143,0.09196186928967218
10.912165178571428,0.20164669241561187
10.945535714285715,0.24365691662263977
10.97890625,0.2058868537928552
11.012276785714285,0.10323410232645401
11.045647321428572,-0.027157792059829895
11.079017857142857,-0.13978691544198493
11.112388392857143,-0.19713831278812619
11.145758928571428,-0.18091352075333508
11.179129464285714,-0.09392952932882205
11.2125,0.0460969484567512
11.245870535714285,0.21557879652012837
11.27924107142857,0.3913040078734525
11.312611607142857,0.5516697312136633
11.345982142857142,0.6751053977370587
11.37935267857143,0.740080909859311
11.412723214285714,0.7294514354641269
11.44609375,0.6377147126565176
11.479464285714286,0.4763497067422429
11.512834821428571,0.27256493263079734
11.546205357142856,0.06063904146765223
11.579575892857143,-0.13009355476429216
11.612946428571428,-0.28416875269042635
11.646316964285715,-0.4012175086741189
11.6796875,-0.4896704222069091
11.713058035714285,-0.5575747847881388
11.746428571428572,-0.6063204914522619
11.779799107142857,-0.6304439461078545
11.813169642857142,-0.6224002133788681
11.846540178571429,-0.5783020639509951
11.879910714285714,-0.5008271863625334
11.913281249999999,-0.39814182380297514
11.946651785714286,-0.28054277997498395
11.98002232142857,-0.15754924245857274
12.013392857142858,-0.03699484579202901
12.046763392857143,0.07439111794020964
12.080133928571428,0.17056286295274162
12.113504464285715,0.24696791408899318
12.146875,0.3020889137259501
12.180245535714285,0.3381426215169437
12.213616071428572,0.35972416791967277
12.246986607142857,0.37067604884804073
12.280357142857143,0.37088788347495755
12.313727678571428,0.3550609839618356
12.347098214285714,0.31456799369724714
12.38046875,0.2420301455775847
12.413839285714285,0.13686439223448083
12.44720982142857,0.009296346950233314
12.480580357142857,-0.11950220563980095
12.513950892857142,-0.22220845494745603
12.54732142857143,-0.2739391561218016
12.580691964285714,-0.2613373464639413
12.6140625,-0.18809240687079662
12.647433035714286,-0.07427581073022352
12.680803571428571,0.05008861636844887
12.714174107142856,0.15404418166954342
12.747544642857143,0.21344988859574932
12.780915178571428,0.21524210172303232
12.814285714285713,0.1584574917354487
12.84765625,0.05357421716238345
12.881026785714285,-0.07886716363097891
12.914397321428572,-0.21087724839977984
12.947767857142857,-0.3119770115657675
12.981138392857142,-0.356466352771053
13.014508928571429,-0.330885984827842
13.047879464285714,-0.2383563493603322
13.081249999999999,-0.09743701319000586
13.114620535714286,0.06409702836834996
13.14799107142857,0.21744321348621007
13.181361607142858,0.33903773662812514
13.214732142857143,0.4127576222731099
13.248102678571428,0.4288971032386763
13.281473214285715,0.38279699885744556
13.31484375,0.2756267003090753
13.348214285714285,0.11735690995566268
13.381584821428572,-0.07065360646081979
13.414955357142857,-0.256726414676213
13.448325892857143,-0.40499938351314396
13.481696428571428,-0.48492982013521774
13.515066964285714,-0.48026465865285756
13.5484375,-0.39368869735767825
13.581808035714285,-0.24552462361393396
13.61517857142857,-0.06758960806032496
13.648549107142857,0.10494644772488042
13.681919642857142,0.24082976593632033
13.71529017857143,0.31758769055644753
13.748660714285714,0.32408788442111436
13.78203125,0.2616948815115416
13.815401785714286,0.14451038731672738
13.848772321428571,-0.0018446477755891207
13.882142857142856,-0.1439843684087748
13.915513392857143,-0.24751896654164093
13.948883928571428,-0.28583265708972294
13.982254464285713,-0.24844930814468053
14.015625,-0.14589296204162008
14.048995535714285,-0.00840568280217149
14.082366071428572,0.12248815991615569
14.115736607142857,0.20798418654052644
14.149107142857142,0.22711350912003506
14.182477678571429,0.18670482579965053
14.215848214285714,0.12062192063625687
14.249218749999999,0.0765069744733091
14.282589285714286,0.09407357397131218
14.31595982142857,0.1840997462695584
14.349330357142858,0.3185656033185986
14.382700892857143,0.4382782756206157
14.416071428571428,0.47618927241015535
14.449441964285715,0.3865061572871259
14.4828125,0.16624317417060286
14.516183035714285,-0.14073364668500365
14.549553571428572,-0.4586344559421116
14.582924107142857,-0.7063514494968759
14.616294642857143,-0.8240593279469
14.649665178571428,-0.789798337076287
14.683035714285714,-0.6218624602955807
14.71640625,-0.3690735032153939
14.749776785714285,-0.09463127657226326
14.78314732142857,0.14064170408429974
14.816517857142857,0.2918838877005506
14.849888392857142,0.33895934036151476
14.88325892857143,0.2897094883792366
14.916629464285714,0.1770411937144662
14.95,0.04956519656660479
14.983370535714286,-0.042912837842010845
15.016741071428571,-0.065323260633877
15.050111607142856,-0.009243898562812622
15.083482142857143,0.10408968654089001
15.116852678571428,0.23139249250416352
15.150223214285713,0.3228696307286316
15.18359375,0.3396687003223789
15.216964285714285,0.26675121987868433
15.250334821428572,0.11713557729696288
15.283705357142857,-0.07280012974414099
15.317075892857142,-0.2543186648260498
15.350446428571429,-0.37988338890409856
15.383816964285714,-0.415842314517282
15.417187499999999,-0.35146615352588106
15.450558035714286,-0.20208757812255632
15.48392857142857,-0.004909204042328551
15.517299107142858,0.19213351410953797
15.550669642857143,0.3453704121727711
15.584040178571428,0.42889547463457317
15.617410714285715,0.4410532203884986
15.65078125,0.40109569189965383
15.684151785714285,0.3376685449623638
15.717522321428572,0.27467673380447905
15.750892857142857,0.22122429153573134
15.784263392857143,0.17009999024835962
15.817633928571428,0.1049186542282758
15.851004464285714,0.011808744202360798
15.884375,-0.11047310709562427
15.917745535714285,-0.24707971049758737
15.95111607142857,-0.3719143728044098
15.984486607142857,-0.45832442254244443
16.017857142857142,-0.490363363451031
16.05122767857143,-0.46912477995904406
16.084598214285712,-0.41119430847858024
16.11796875,-0.3403048936280417
16.151339285714286,-0.2766826320159353
16.18470982142857,-0.2294799922476786
16.218080357142856,-0.19565523892632491
16.251450892857143,-0.1649309745382037
16.28482142857143,-0.12726728303871096
16.318191964285713,-0.0784327663148334
16.3515625,-0.021061016206817912
16.384933035714287,0.03831104205215694
16.41830357142857,0.0934095331211231
16.451674107142857,0.14068150499726506
16.485044642857144,0.1790521727514027
16.518415178571427,0.2083129588649851
16.551785714285714,0.22837768100382044
16.58515625,0.2404716690071058
16.618526785714284,0.2490643108040112
16.65189732142857,0.26193277340049986
16.685267857142858,0.2865324686906216
16.71863839285714,0.32358671347081175
16.752008928571428,0.3616564617393045
16.785379464285715,0.3772318019704632
16.81875,0.3426221371979322
16.852120535714285,0.23958975237239888
16.88549107142857,0.07267274135716613
16.91886160714286,-0.1251068300603488
16.95223214285714,-0.29890192807612725
16.98560267857143,-0.3903732330357253
17.018973214285715,-0.361124234816461
17.05234375,-0.21123213935366608
17.085714285714285,0.016174635194653408
17.119084821428572,0.24794179097875552
17.152455357142856,0.4074029768435257
17.185825892857142,0.44365127759181583
17.21919642857143,0.3507941553419261
17.252566964285712,0.168466762750939
17.2859375,-0.03653772188366032
17.319308035714286,-0.19875533962796582
17.35267857142857,-0.2793702195130833
17.386049107142856,-0.2773744540538755
17.419419642857143,-0.22325711552640173
17.45279017857143,-0.16051213309916065
17.486160714285713,-0.12511450725899764
17.51953125,-0.13222957497357424
17.552901785714287,-0.1743252553972683
17.58627232142857,-0.22906243223600667
17.619642857142857,-0.2717947635005298
17.653013392857144,-0.287065182961986
17.686383928571427,-0.2751364198494405
