Frequency (Hz),Amplitude
0.0,1.563903200295691
0.019801980198019802,1.5645941496251676
0.039603960396039604,1.5666624973426315
0.0594059405940594,1.5700948121745633
0.07920792079207921,1.574868937836668
0.09900990099009901,1.5809543277824325
0.1188118811881188,1.58831249647368
0.13861386138613863,1.5968975712190796
0.15841584158415842,1.6066569259308279
0.1782178217821782,1.6175318765812092
0.19801980198019803,1.629458417699444
0.21782178217821782,1.6423679798437778
0.2376237623762376,1.6561881894521433
0.25742574257425743,1.6708436146096743
0.27722772277227725,1.6862564828471325
0.297029702970297,1.702347359881419
0.31683168316831684,1.7190357810320849
0.33663366336633666,1.7362408297367662
0.3564356435643564,1.7538816600260452
0.37623762376237624,1.771877961929287
0.39603960396039606,1.7901503705285218
0.4158415841584158,1.8086208207525716
0.43564356435643564,1.8272128510243226
0.45544554455445546,1.845851859575173
0.4752475247524752,1.8644653176647912
0.495049504950495,1.882982944139319
0.5148514851485149,1.9013368457735271
0.5346534653465347,1.9194616277165215
0.5544554455445545,1.9372944781353896
0.5742574257425742,1.9547752308596162
0.594059405940594,1.9718464094987544
0.613861386138614,1.9884532561581119
0.6336633663366337,2.0045437475283667
0.6534653465346534,2.0200686007870816
0.6732673267326733,2.034981271431123
0.6930693069306931,2.0492379448642435
0.7128712871287128,2.0627975232962172
0.7326732673267327,2.0756216092702484
0.7524752475247525,2.087674486923354
0.7722772277227723,2.09892310189919
0.7920792079207921,2.109337040672478
0.8118811881188118,2.1188885099067916
0.8316831683168316,2.127552316350807
0.8514851485148516,2.1353058476798457
0.8712871287128713,2.1421290546075373
0.891089108910891,2.148004434524385
0.9108910891089109,2.152917016864437
0.9306930693069307,2.156854350355451
0.9504950495049505,2.159806492271324
0.9702970297029703,2.161765999775674
0.99009900990099,2.1627279234213055
1.00990099009901,2.162689802850675
1.0297029702970297,2.1616516647261346
1.0495049504950495,2.1596160229041375
1.0693069306930694,2.15658788085457
1.0891089108910892,2.1525747363127525
1.108910891089109,2.147586588137685
1.1287128712871286,2.1416359453330753
1.1485148514851484,2.134737838168545
1.1683168316831685,2.1269098313135033
1.188118811881188,2.1181720388668253
1.2079207920792079,2.1085471411280055
1.227722772277228,2.0980604029096153
1.2475247524752475,2.0867396931349314
1.2673267326732673,2.0746155053959767
1.2871287128712872,2.0617209790643285
1.3069306930693068,2.048091920448583
1.3267326732673268,2.033766823373843
1.3465346534653466,2.018786888420647
1.3663366336633662,2.0031960398986843
1.3861386138613863,1.9870409394433572
1.405940594059406,1.970370994909532
1.4257425742574257,1.9532383629942653
1.4455445544554455,1.9356979437496993
1.4653465346534653,1.91780736484916
1.4851485148514851,1.8996269531470353
1.504950495049505,1.8812196907307785
1.5247524752475248,1.8626511523107707
1.5445544554455446,1.8439894204412344
1.5643564356435644,1.8253049747314902
1.5841584158415842,1.8066705509111243
1.6039603960396038,1.7881609653851152
1.6237623762376237,1.7698529007872663
1.6435643564356437,1.7518246480537136
1.6633663366336633,1.7341558007360216
1.683168316831683,1.7169268977046992
1.7029702970297032,1.700219011105336
1.7227722772277227,1.684113277466214
1.7425742574257426,1.6686903712512415
1.7623762376237624,1.6540299219237788
1.782178217821782,1.6402098777274632
1.801980198019802,1.6273058218615648
1.8217821782178218,1.6153902494524066
1.8415841584158414,1.604531816579107
1.8613861386138615,1.5947945754388833
1.881188118811881,1.5862372123348556
1.900990099009901,1.5789123073145943
1.920792079207921,1.5728656357516388
1.9405940594059405,1.5681355327356155
1.9603960396039604,1.5647523406562538
1.98019801980198,1.5627379587429049
2.0,1.5621055105571662
2.01980198019802,1.5628591416406783
2.0396039603960396,1.564993954903318
2.0594059405940595,1.5684960861956396
2.0792079207920793,1.5733429171968387
2.099009900990099,1.579503417638123
2.118811881188119,1.5869386043209928
2.1386138613861387,1.5956021006714751
2.1584158415841586,1.605440777897169
2.1782178217821784,1.6163954572839803
2.1980198019801978,1.6284016527787413
2.217821782178218,1.6413903336562192
2.237623762376238,1.6552886885957272
2.257425742574257,1.6700208746828902
2.2772277227722775,1.6855087374759101
2.297029702970297,1.7016724911113095
2.3168316831683167,1.7184313502753146
2.336633663366337,1.7357041085737885
2.3564356435643563,1.7534096602801972
2.376237623762376,1.7714674645522237
2.3960396039603964,1.7897979529486883
2.4158415841584158,1.8083228824430277
2.4356435643564356,1.826965637138395
2.455445544554456,1.8456514825765074
2.4752475247524752,1.8643077769427656
2.495049504950495,1.8828641436514453
2.514851485148515,1.9012526097951772
2.5346534653465347,1.91940771480611
2.5544554455445545,1.9372665934416222
2.5742574257425743,1.9547690369085438
2.594059405940594,1.971857535603149
2.6138613861386135,1.9884773065918955
2.633663366336634,2.0045763086054467
2.6534653465346536,2.0201052469780985
2.673267326732673,2.035017570644052
2.6930693069306932,2.0492694630063197
2.712871287128713,2.062819828225552
2.7326732673267324,2.0756302742366364
2.7524752475247527,2.0876650935888263
2.7722772277227725,2.0988912430206166
2.792079207920792,2.109278322520786
2.811881188118812,2.118798554490414
2.8316831683168315,2.1274267635046855
2.8514851485148514,2.1351403570758807
2.8712871287128716,2.1419193077377754
2.891089108910891,2.147746136704324
2.910891089108911,2.15260589930075
2.9306930693069306,2.1564861723201343
2.9504950495049505,2.1593770434226327
2.9702970297029703,2.161271102665216
2.99009900990099,2.1621634362265
3.00990099009901,2.1620516223721964
3.0297029702970297,2.1609357296908636
3.0495049504950495,2.158818317615922
3.0693069306930694,2.1557044392372458
3.089108910891089,2.151601646392799
3.108910891089109,2.146519997017103
3.128712871287129,2.1404720647072324
3.148514851485148,2.1334729504478367
3.1683168316831685,2.1255402964129306
3.1881188118811883,2.1166943017325903
3.2079207920792077,2.106957740075944
3.227722772277228,2.0963559788561943
3.2475247524752473,2.0849169998072474
3.267326732673267,2.07267142061303
3.2871287128712874,2.059652517187345
3.3069306930693068,2.045896246102484
3.3267326732673266,2.0314412665458663
3.346534653465347,2.0163289610438144
3.366336633663366,2.0006034540273356
3.386138613861386,1.9843116271248746
3.4059405940594063,1.9675031298487353
3.4257425742574257,1.9502303840947166
3.4455445544554455,1.9325485805974822
3.4653465346534653,1.9145156651784967
3.485148514851485,1.8961923122914754
3.504950495049505,1.877641883017716
3.5247524752475248,1.8589303642980877
3.5445544554455446,1.8401262858225491
3.564356435643564,1.8213006106483047
3.5841584158415842,1.8025265953064715
3.603960396039604,1.783879614912793
3.6237623762376234,1.7654369486553465
3.6435643564356437,1.7472775210319653
3.6633663366336635,1.7294815943991557
3.683168316831683,1.7121304088219018
3.702970297029703,1.6953057659308137
3.722772277227723,1.679089554545459
3.7425742574257423,1.6635632172473158
3.762376237623762,1.6488071589018194
3.7821782178217824,1.634900100330398
3.801980198019802,1.6219183828816588
3.8217821782178216,1.6099352324656226
3.841584158415842,1.5990199945726578
3.8613861386138613,1.5892373547299712
3.881188118811881,1.580646561545882
3.9009900990099013,1.5733006717219449
3.9207920792079207,1.5672458379359127
3.9405940594059405,1.562520661095378
3.96039603960396,1.559155627961963
3.98019801980198,1.557172653455401
4.0,1.5565847440699974
4.01980198019802,1.557395794888153
4.03960396039604,1.5596005278781866
4.0594059405940595,1.5631845738294283
4.079207920792079,1.5681246947765846
4.099009900990099,1.574389138487696
4.118811881188119,1.581938111899542
4.138613861386139,1.590724356581928
4.158415841584159,1.6006938066049043
4.178217821782178,1.6117863076688728
4.198019801980198,1.6239363760259442
4.217821782178218,1.6370739764648277
4.237623762376238,1.6511253002719728
4.257425742574258,1.666013526393844
4.2772277227722775,1.6816595517701036
4.297029702970297,1.6979826797534872
4.316831683168317,1.7149012584771623
4.336633663366336,1.732333263812093
4.356435643564357,1.7501968240568253
4.376237623762377,1.7684106856483428
4.3960396039603955,1.7868946209401015
4.415841584158416,1.8055697804614053
4.435643564356436,1.8243589930728068
4.455445544554455,1.8431870181035124
4.475247524752476,1.8619807539466426
4.4950495049504955,1.8806694077463026
4.514851485148514,1.899184630787066
4.534653465346535,1.9174606240367364
4.554455445544555,1.9354342180374724
4.574257425742574,1.9530449310222313
4.594059405940594,1.9702350087805207
4.613861386138614,1.9869494494309579
4.633663366336633,2.003136015894249
4.653465346534653,2.0187452385105686
4.673267326732674,2.033730409917275
4.693069306930693,2.0480475740017767
4.712871287128713,2.061655510471951
4.732673267326733,2.0745157163439383
4.752475247524752,2.086592385433579
4.772277227722772,2.0978523867519656
4.792079207920793,2.10826524254542
4.811881188118812,2.117803106583644
4.8316831683168315,2.12644074318432
4.851485148514852,2.13415550736554
4.871287128712871,2.1409273264372732
4.891089108910891,2.146738683276766
4.910891089108912,2.1515746014789414
4.930693069306931,2.155422632529214
4.9504950495049505,2.1582728451112003
4.97029702970297,2.160117816633872
4.99009900990099,2.1609526270406314
5.00990099009901,2.1607748549447376
5.02970297029703,2.1595845761213166
5.0495049504950495,2.1573843643733226
5.069306930693069,2.1541792947775633
5.089108910891089,2.1499769493053726
5.108910891089109,2.144787424799888
5.128712871287129,2.1386233432771977
5.148514851485149,2.131499864500543
5.1683168316831685,2.123434700754223
5.188118811881188,2.11444813371538
5.207920792079208,2.104563033286091
5.227722772277227,2.0938048782035463
5.247524752475248,2.082201778190573
5.267326732673268,2.0697844973407546
5.2871287128712865,2.056586478349391
5.306930693069307,2.042643867101324
5.326732673267327,2.027995537006977
5.346534653465346,2.0126831123357727
5.366336633663367,1.9967509896292452
5.3861386138613865,1.9802463560820305
5.405940594059405,1.9632192035551181
5.425742574257426,1.9457223366310605
5.445544554455446,1.9278113728340291
5.465346534653465,1.909544732819786
5.485148514851486,1.8909836179933568
5.504950495049505,1.8721919726413112
5.524752475247524,1.8532364272780704
5.544554455445545,1.834186219514546
5.564356435643565,1.8151130883788613
5.584158415841584,1.7960911376767452
5.603960396039604,1.7771966637013321
5.623762376237624,1.7585079424265806
5.643564356435643,1.7401049712865697
5.663366336633663,1.7220691608057632
5.683168316831684,1.7044829717547128
5.702970297029703,1.6874294942178356
5.7227722772277225,1.6709919660248704
5.742574257425743,1.6552532294578213
5.762376237623762,1.6402951270237427
5.782178217821782,1.6261978393788385
5.801980198019803,1.6130391711628513
5.821782178217822,1.6008937934733118
5.841584158415841,1.5898324548477987
5.861386138613861,1.5799211757492628
5.881188118811881,1.5712204444437903
5.900990099009901,1.5637844345699121
5.920792079207921,1.5576602663646233
5.9405940594059405,1.5528873341945202
5.96039603960396,1.5494967225531493
5.98019801980198,1.5475107309231582
6.0,1.5469425248657644
6.01980198019802,1.5477959265129584
6.03960396039604,1.550065352538599
6.0594059405940595,1.5537359020111248
6.079207920792079,1.558783590684394
6.099009900990099,1.5651757226852092
6.118811881188119,1.5728713855994936
6.138613861386139,1.5818220509656502
6.158415841584159,1.5919722593723886
6.178217821782178,1.6032603678293158
6.198019801980198,1.615619336812738
6.217821782178218,1.6289775352649483
6.237623762376237,1.6432595436431543
6.257425742574258,1.6583869376291032
6.2772277227722775,1.6742790380630372
6.297029702970296,1.6908536158081289
6.316831683168317,1.7080275433694516
6.336633663366337,1.7257173880151555
6.356435643564356,1.7438399437554908
6.376237623762377,1.7623127017557285
6.396039603960396,1.7810542605602353
6.415841584158415,1.799984678890704
6.435643564356436,1.819025774778968
6.455445544554456,1.8381013754481486
6.475247524752475,1.8571375227168703
6.495049504950495,1.8760626388251718
6.514851485148515,1.8948076575199477
6.534653465346534,1.9133061250410934
6.554455445544554,1.931494275358258
6.574257425742575,1.9493110836579466
6.594059405940594,1.9666983016989998
6.6138613861386135,1.9836004782635202
6.633663366336634,1.9999649675456912
6.653465346534653,2.0157419279543274
6.673267326732673,2.0308843134634165
6.693069306930694,2.0453478593330554
6.712871287128713,2.0590910637427196
6.732673267326732,2.0720751666303285
6.752475247524753,2.084264126812774
6.772277227722772,2.0956245982751356
6.792079207920792,2.1061259063540207
6.811881188118813,2.115740024403333
6.8316831683168315,2.124441551415196
6.851485148514851,2.132207690972652
6.871287128712871,2.1390182318313196
6.891089108910891,2.1448555303623498
6.910891089108911,2.149704495036493
6.930693069306931,2.153552573087299
6.9504950495049505,2.1563897394579388
6.97029702970297,2.158208488110362
6.99009900990099,2.1590038257549766
7.00990099009901,2.158773268043273
7.02970297029703,2.157516838253045
7.0495049504950495,2.1552370684854822
7.069306930693069,2.1519390033838577
7.089108910891089,2.1476302063740524
7.108910891089109,2.142320768416804
7.128712871287128,2.1360233192487
7.148514851485149,2.1287530410732374
7.1683168316831685,2.1205276846426466
7.188118811881187,2.111367587644925
7.207920792079208,2.1012956952768547
7.227722772277228,2.0903375828408075
7.247524752475247,2.07852148014975
7.267326732673268,2.0658782974578758
7.287128712871287,2.052441652552497
7.306930693069306,2.038247898543013
7.326732673267327,2.023336151762523
7.346534653465347,2.0077483190539875
7.366336633663366,1.9915291235431296
7.3861386138613865,1.974726127801038
7.405940594059406,1.9573897530689637
7.425742574257425,1.939573292952758
7.445544554455446,1.9213329196946722
7.465346534653466,1.9027276807946105
7.485148514851485,1.8838194833840582
7.504950495049505,1.864673063357085
7.524752475247524,1.8453559358426699
7.544554455445544,1.8259383231715234
7.564356435643565,1.806493056067167
7.584158415841584,1.7870954433970492
7.603960396039604,1.7678231054865847
7.623762376237624,1.7487557657648927
7.643564356435643,1.729974995421991
7.663366336633663,1.7115639058671992
7.683168316831684,1.69360678414647
7.702970297029703,1.6761886671641875
7.7227722772277225,1.6593948516219517
7.742574257425743,1.643310338083229
7.762376237623762,1.6280192095307002
7.782178217821782,1.6136039472075385
7.801980198019803,1.6001446893908988
7.821782178217822,1.5877184419540158
7.841584158415841,1.5763982529967053
7.861386138613862,1.566252367269963
7.881188118811881,1.5573433793458034
7.900990099009901,1.549727407208945
7.92079207920792,1.5434533098797365
7.9405940594059405,1.5385619735447398
7.96039603960396,1.5350856902540506
7.980198019801979,1.5330476514156448
8.0,1.5324615750700987
8.01980198019802,1.5333314813926826
8.03960396039604,1.5356516253087125
8.05940594059406,1.539406588898206
8.07920792079208,1.5445715298590459
8.099009900990099,1.551112576166965
8.118811881188119,1.5589873516583446
8.138613861386139,1.568145612927381
8.158415841584159,1.5785299749149815
8.178217821782178,1.590076700978707
8.198019801980198,1.6027165330422986
8.217821782178218,1.6163755384848093
8.237623762376238,1.630975952513523
8.257425742574258,1.6464369975919786
8.277227722772277,1.6626756647728804
8.297029702970297,1.679607445240817
8.316831683168317,1.6971470037658885
8.336633663366337,1.7152087889239478
8.356435643564357,1.7337075777256652
8.376237623762377,1.7525589546420892
8.396039603960396,1.7716797268922861
8.415841584158416,1.7909882792791654
8.435643564356436,1.8104048728586835
8.455445544554456,1.8298518923573983
8.475247524752476,1.8492540475739379
8.495049504950495,1.8685385340730336
8.514851485148515,1.887635158364479
8.534653465346535,1.9064764325065842
8.554455445544555,1.9249976427287092
8.574257425742575,1.9431368962678464
8.594059405940595,1.9608351501886716
8.613861386138613,1.9780362255273227
8.633663366336634,1.9946868096826251
8.653465346534654,2.0107364495851714
8.673267326732672,2.026137537811888
8.693069306930694,2.040845293484925
8.712871287128714,2.0548177395004066
8.732673267326732,2.0680156773744316
8.752475247524753,2.0804026607691846
8.772277227722773,2.0919449685687996
8.792079207920791,2.1026115782102464
8.811881188118813,2.1123741398357154
8.831683168316832,2.1212069517173626
8.85148514851485,2.129086937309506
8.871287128712872,2.135993624205257
8.891089108910892,2.1419091252113147
8.91089108910891,2.1468181217042033
8.930693069306932,2.150707849391466
8.950495049504951,2.1535680865706857
8.97029702970297,2.1553911449554555
8.990099009900991,2.156171863119996
9.00990099009901,2.1559076026009047
9.029702970297029,2.154598246684637
9.04950495049505,2.1522462019018676
9.06930693069307,2.148856402243257
9.089108910891088,2.14443631610492
9.10891089108911,2.1389959559643317
9.12871287128713,2.1325478907783055
9.148514851485148,2.125107261081787
9.16831683168317,2.116691796749409
9.188118811881187,2.107321837358705
9.207920792079207,2.0970203550637843
9.227722772277229,2.0858129798487366
9.247524752475247,2.073728026979743
9.267326732673267,2.0607965264110657
9.287128712871288,2.0470522538206817
9.306930693069306,2.032531762853282
9.326732673267326,2.017274418029089
9.346534653465348,2.001322427632549
9.366336633663366,1.984720875722928
9.386138613861386,1.9675177522047562
9.405940594059407,1.9497639796574617
9.425742574257425,1.93151343534664
9.445544554455445,1.9128229665228456
9.465346534653467,1.893752396755085
9.485148514851485,1.8743645206476731
9.504950495049505,1.8547250838520661
9.524752475247526,1.8349027448176902
9.544554455445544,1.8149690142374721
9.564356435643564,1.7949981676520954
9.584158415841586,1.7750671262050293
9.603960396039604,1.7552553001198432
9.623762376237623,1.7356443891429918
9.643564356435645,1.716318134009491
9.663366336633663,1.6973620130052496
9.683168316831683,1.678862877986235
9.702970297029704,1.6609085248429507
9.722772277227723,1.643587194441828
9.742574257425742,1.6269870015969128
9.762376237623764,1.6111952916732544
9.782178217821782,1.5962979270153046
9.801980198019802,1.5823785085058415
9.821782178217823,1.5695175411144378
9.841584158415841,1.5577915561479605
9.861386138613861,1.547272206857916
9.881188118811881,1.5380253578172958
9.900990099009901,1.5301101917299103
9.92079207920792,1.5235783597327537
9.94059405940594,1.5184732024662726
9.96039603960396,1.5148290689467656
9.98019801980198,1.512670758410264
10.0,1.5120131067804687
10.01980198019802,1.512860734378664
10.03960396039604,1.515207965238742
10.05940594059406,1.5190389213521092
10.07920792079208,1.5243277878746113
10.099009900990099,1.53103923834021
10.118811881188119,1.5391290027674653
10.138613861386139,1.5485445566396012
10.158415841584159,1.5592259053705315
10.178217821782178,1.5711064371560903
10.198019801980198,1.5841138170099447
10.217821782178218,1.5981708961164989
10.237623762376238,1.613196613120162
10.257425742574258,1.6291068672775595
10.277227722772277,1.645815347182692
10.297029702970297,1.663234302715604
10.316831683168317,1.6812752516945284
10.336633663366337,1.699849616225879
10.356435643564357,1.7188692868100741
10.376237623762377,1.738247114801165
10.396039603960396,1.7578973358148355
10.415841584158416,1.7777359281540939
10.435643564356436,1.7976809113235355
10.455445544554454,1.81765259029726
10.475247524752476,1.8375737514645825
10.495049504950495,1.857369816173798
10.514851485148514,1.8769689575939088
10.534653465346535,1.8963021862770129
10.554455445544555,1.9153034093782344
10.574257425742573,1.933909468016701
10.594059405940595,1.9520601567699016
10.613861386138614,1.9696982288081353
10.633663366336632,1.9867693897117056
10.653465346534654,2.0032222825810395
10.673267326732674,2.0190084666558143
10.693069306930692,2.034082391305621
10.712871287128714,2.0484013669426684
