Frequency (Hz),Amplitude
0.0,21.611449196588215
0.019823788546255508,21.6190693191723
0.039647577092511016,21.641883552335475
0.059471365638766524,21.679754095633196
0.07929515418502203,21.732453273708668
0.09911894273127755,21.7996664589021
0.11894273127753305,21.880996035896136
0.13876651982378857,21.975966290184065
0.15859030837004406,22.08402908004033
0.17841409691629956,22.2045701368796
0.1982378854625551,22.336915831661244
0.2180616740088106,22.480340245038494
0.2378854625550661,22.634072385502662
0.25770925110132165,22.79730341173291
0.27753303964757714,22.969193731420503
0.29735682819383263,23.148879867619176
0.31718061674008813,23.33548100385005
0.3370044052863437,23.528105139574922
0.3568281938325991,23.72585480726197
0.37665198237885467,23.927832320346337
0.3964757709251102,24.1331445374228
0.41629955947136565,24.34090714169731
0.4361233480176212,24.550248445959504
0.4559471365638767,24.76031274216609
0.4757709251101322,24.970263221291738
0.49559471365638774,25.179284493648712
0.5154185022026433,25.386584742661395
0.5352422907488987,25.59139754640193
0.5550660792951543,25.792983401325703
0.5748898678414097,25.99063098186015
0.5947136563876653,26.183658168031506
0.6145374449339208,26.371412871369056
0.6343612334801763,26.553273687076427
0.6541850220264318,26.72865039804718
0.6740088105726874,26.89698435383273
0.6938325991189428,27.05774874523575
0.7136563876651982,27.210448792854226
0.7334801762114539,27.3546218656895
0.7533039647577093,27.48983754387875
0.7731277533039648,27.615697637733554
0.7929515418502204,27.731836173567064
0.8127753303964759,27.83791935527113
0.8325991189427313,27.933645509252457
0.8524229074889869,28.018745019146543
0.8722466960352424,28.092980255681734
0.8920704845814978,28.156145506155795
0.9118942731277534,28.208066907191224
0.931718061674009,28.248602383745826
0.9515418502202644,28.277641596749437
0.9713656387665199,28.295105901210253
0.9911894273127755,28.3009483161593
1.0110132158590308,28.295153507379144
1.0308370044052866,28.277737783465323
1.0506607929515421,28.248749105397657
1.0704845814977975,28.20826710942507
1.090308370044053,28.156403142694998
1.1101321585903086,28.09330031066037
1.1299559471365639,28.01913353486929
1.1497797356828194,27.934109619266675
1.1696035242290752,27.838467322603137
1.1894273127753305,27.732477433935486
1.209251101321586,27.616442847506086
1.2290748898678416,27.4906986324842
1.248898678414097,27.35561209213325
1.2687224669603525,27.21158280591012
1.288546255506608,27.059042646800187
1.3083700440528636,26.898455764827602
1.3281938325991192,26.730318526143044
1.3480176211453747,26.555159395377718
1.36784140969163,26.373538747057648
1.3876651982378856,26.18604858980347
1.4074889867841411,25.993312184813412
1.4273127753303965,25.795983537764616
1.4471365638766522,25.59474674082263
1.4669603524229078,25.39031513896955
1.4867841409691631,25.18343029244853
1.5066079295154187,24.97486070487465
1.5264317180616742,24.76540028463317
1.5462555066079295,24.55586650574217
1.5660792951541853,24.3470982336108
1.5859030837004409,24.139953181315917
1.6057268722466962,23.935304963413476
1.6255506607929517,23.7340397171853
1.6453744493392073,23.53705226588009
1.6651982378854626,23.345241805216975
1.6850220264317182,23.159507103398763
1.7048458149779737,22.980741216288802
1.7246696035242293,22.80982573326794
1.7444933920704848,22.64762458549085
1.7643171806167404,22.49497746649222
1.7841409691629957,22.352692934822556
1.8039647577092512,22.22154128884854
1.8237885462555068,22.102247324038377
1.8436123348017623,21.995483101763966
1.863436123348018,21.901860874555343
1.8832599118942732,21.821926324455188
1.9030837004405288,21.756152277343407
1.9229074889867843,21.704933055740955
1.9427312775330399,21.668579624924103
1.9625550660792954,21.647315671915184
1.982378854625551,21.64127473435779
2.002202643171806,21.650498467297805
2.0220264317180616,21.674936101901388
2.041850220264317,21.714445113006924
2.061674008810573,21.768793074285842
2.0814977973568287,21.837660642915232
2.1013215859030843,21.920645582176874
2.1211453744493394,22.017267702104217
2.140969162995595,22.126974576564084
2.1607929515418505,22.249147880780697
2.180616740088106,22.383110186510006
2.2004405286343616,22.528132052520288
2.220264317180617,22.683439254950418
2.2400881057268722,22.848220014373858
2.2599118942731278,23.021632092679056
2.2797356828193833,23.202809651806696
2.299559471365639,23.390869786633775
2.319383259911895,23.584918664689148
2.3392070484581504,23.784057224950672
2.3590308370044055,23.98738640597062
2.378854625550661,24.19401188949836
2.3986784140969166,24.40304835933523
2.418502202643172,24.613623286261856
2.4383259911894277,24.824880258578634
2.4581497797356833,25.035981884250376
2.4779735682819384,25.246112295083954
2.497797356828194,25.454479286064778
2.5176211453744495,25.660316124220063
2.537444933920705,25.862883061451583
2.5572687224669606,26.06146858494826
2.577092511013216,26.255390437285623
2.5969162995594717,26.44399643635111
2.6167400881057272,26.62666512296994
2.6365638766519828,26.802806261685454
2.6563876651982383,26.971861217677887
2.676211453744494,27.13330323037158
2.6960352422907494,27.286637601939
2.715859030837005,27.43140181670476
2.73568281938326,27.567165605408125
2.7555066079295156,27.69353096641427
2.775330396475771,27.810132154273187
2.7951541850220267,27.91663564451375
2.8149779735682823,28.012740082217903
2.834801762114538,28.098176220735763
2.854625550660793,28.172706855866195
2.874449339207049,28.236126759920868
2.8942731277533045,28.288262619302877
2.91409691629956,28.328972978543906
2.9339207048458156,28.358148193143855
2.953744493392071,28.375710393031635
2.9735682819383262,28.381613457994906
2.993392070484582,28.37584300600417
3.0132158590308373,28.35841639496169
3.033039647577093,28.329382738031633
3.0528634361233484,28.28882293233706
3.072687224669604,28.236849700431137
3.092511013215859,28.173607643551488
3.1123348017621146,28.09927330523415
3.1321585903083706,28.014055243381375
3.151982378854626,27.91819410833925
3.1718061674008817,27.81196272391988
3.1916299559471373,27.69566616759866
3.2114537444933924,27.5696418453007
3.231277533039648,27.434259555258397
3.2511013215859035,27.28992153435141
3.270925110132159,27.137062479120008
3.2907488986784146,26.976149532259996
3.31057268722467,26.80768222385212
3.3303964757709252,26.6321923548412
3.350220264317181,26.450243808363894
3.3700440528634363,26.262432272430477
3.389867841409692,26.06938485521342
3.4096916299559474,25.871759571811705
3.4295154185022034,25.67024467888846
3.4493392070484585,25.46555783108642
3.469162995594714,25.25844503069528
3.4889867841409696,25.049679339796484
3.508810572687225,24.840059322182967
3.5286343612334807,24.630407180928902
3.5484581497797363,24.42156655677432
3.5682819383259914,24.214399952736
3.588105726872247,24.009785751831064
3.6079295154185025,23.808614797790245
3.627753303964758,23.611786513431568
3.6475770925110136,23.420204538237858
3.667400881057269,23.234771875853532
3.6872246696035247,23.056385553835074
3.7070484581497802,22.885930812085032
3.726872246696036,22.724274852834387
3.7466960352422913,22.572260203499066
3.7665198237885464,22.430697763661136
3.7863436123348024,22.300359628038283
3.8061674008810575,22.181971797575375
3.8259911894273135,22.076206909508752
3.8458149779735686,21.98367713306021
3.8656387665198246,21.90492738892493
3.8854625550660797,21.840429056626434
3.905286343612335,21.79057433303516
3.925110132158591,21.755671397177125
3.9449339207048464,21.735940520649493
3.964757709251102,21.731511239843776
3.9845814977973575,21.742420676663915
4.004405286343612,21.768613059974477
4.024229074889869,21.80994046252583
4.044052863436123,21.866164729754146
4.06387665198238,21.93696053990346
4.083700440528634,22.021919501491297
4.103524229074891,22.120555166044635
4.123348017621146,22.232308812601527
4.143171806167401,22.356555846478503
4.162995594713657,22.49261264842771
4.182819383259912,22.639743711188654
4.2026431718061685,22.797168907765432
4.222466960352423,22.96407074837867
4.242290748898679,23.13960149962822
4.262114537444934,23.322890058557324
4.28193832599119,23.513048494719037
4.301762114537445,23.709178193826897
4.321585903083701,23.910375556166564
4.3414096916299565,24.115737220921478
4.361233480176212,24.32436480343149
4.381057268722468,24.535369145886577
4.400881057268723,24.747874092966217
4.420704845814979,24.961019812531813
4.440528634361234,25.173965687826534
4.46035242290749,25.385892811979176
4.4801762114537445,25.596006118214472
4.500000000000001,25.80353618034008
4.5198237885462555,26.007740718087504
4.539647577092512,26.20790584099733
4.559471365638767,26.403347062993483
4.579295154185023,26.593410117788434
4.599118942731278,26.777471602971904
4.618942731277533,26.954939478197133
4.63876651982379,27.12525344039616
4.658590308370044,27.28788519651537
4.678414096916301,27.442338651916014
4.6982378854625555,27.588150030380135
4.718061674008811,27.72488793961819
4.737885462555067,27.852153394309447
4.757709251101322,27.969579807018892
4.777533039647578,28.07683295582845
4.797356828193833,28.17361093618021
4.817180616740089,28.259644103252064
4.837004405286344,28.33469501015353
4.856828193832599,28.39855834632739
4.876651982378855,28.451060879759115
4.896475770925111,28.492061405912814
4.9162995594713665,28.52145070571551
4.936123348017622,28.539151514386457
4.955947136563877,28.5451185024417
4.975770925110133,28.539338269778863
4.995594713656388,28.521829353355574
5.015418502202644,28.492642248597544
5.035242290748899,28.45185944429947
5.055066079295155,28.399595470403323
5.07488986784141,28.335996957632812
5.094713656387666,28.261242707526492
5.114537444933921,28.17554377092438
5.134361233480177,28.079143532412484
5.154185022026432,27.972317797603097
5.174008810572688,27.855374879408085
5.193832599118943,27.728655678635185
5.213656387665199,27.592533753287114
5.2334801762114544,27.447415369853463
5.25330396475771,27.29373952864535
5.2731277533039655,27.131977953814342
5.292951541850221,26.96263503711564
5.312775330396477,26.786247722709337
5.332599118942731,26.60338531834472
5.352422907488988,26.41464921614607
5.372246696035242,26.220672503932622
5.392070484581499,26.022119445584423
5.4118942731277535,25.819684806465347
5.43171806167401,25.61409299738779
5.451541850220265,25.406097008152482
5.47136563876652,25.196477099429988
5.491189427312777,24.986039219821205
5.511013215859031,24.775613113523757
5.530837004405288,24.566050083351776
5.550660792951542,24.358220374165374
5.570484581497798,24.153010143324785
5.5903083700440535,23.95131798789822
5.610132158590309,23.754051003306007
5.6299559471365646,23.56212035515087
5.64977973568282,23.376436355394464
5.669603524229076,23.197903045928186
5.689427312775331,23.027412306977347
5.709251101321586,22.865837524526988
5.729074889867842,22.714026869725597
5.748898678414098,22.572796263439596
5.768722466960353,22.442922119985155
5.788546255506609,22.325133984507996
5.808370044052864,22.220107197273766
5.82819383259912,22.12845573389668
5.848017621145375,22.050725381868318
5.867841409691631,21.987387419342188
5.887665198237886,21.938832960911284
5.907488986784142,21.905368126381877
5.927312775330397,21.887210172096964
5.9471365638766525,21.884484700560176
5.966960352422908,21.897224033917993
5.986784140969164,21.925366801782495
6.00660792951542,21.968758755866094
6.026431718061675,22.02715478516496
6.04625550660793,22.100222068256464
6.066079295154186,22.18754426579729
6.085903083700441,22.28862662832673
6.105726872246697,22.402901873304135
6.125550660792952,22.52973667168038
6.145374449339208,22.668438578369216
6.1651982378854635,22.818263242343573
6.185022026431718,22.97842173988216
6.204845814977975,23.148087887557853
6.224669603524229,23.326405408534058
6.244493392070486,23.51249484521408
6.264317180616741,23.705460131941976
6.284140969162996,23.9043947621081
6.303964757709252,24.108387503706705
6.323788546255507,24.316527635412275
6.3436123348017635,24.52790969109986
6.363436123348018,24.74163771417346
6.3832599118942746,24.95682903400547
6.403083700440529,25.172617585301516
6.422907488986785,25.388156797459445
6.44273127753304,25.602622085237595
6.462555066079296,25.8152129745657
6.482378854625551,26.02515489841353
6.502202643171807,26.231700697566104
6.5220264317180625,26.434131860202857
6.541850220264318,26.631759532576286
6.561674008810574,26.82392533103796
6.581497797356829,27.01000198333381
6.601321585903085,27.18939382462145
6.62114537444934,27.361537171159625
6.640969162995596,27.525900592159193
6.6607929515418505,27.681985097930184
6.680616740088107,27.829324260244245
6.700440528634362,27.96748427878238
6.720264317180618,28.096064005671177
6.740088105726873,28.214694938420624
6.759911894273129,28.323041190070867
6.779735682819384,28.42079944401654
6.799559471365639,28.507698899802087
6.819383259911895,28.583501215148484
6.83920704845815,28.64800044857422
6.859030837004407,28.70102300618986
6.8788546255506615,28.742427595564845
6.898678414096917,28.77210518896866
6.918502202643173,28.789978997766028
6.938325991189428,28.796004459277043
6.958149779735684,28.790169236991257
6.977973568281939,28.772493234627927
6.997797356828195,28.743028624158388
7.01762114537445,28.701859887530713
7.037444933920705,28.64910387145102
7.0572687224669615,28.58490985416872
7.077092511013216,28.509459622766872
7.096916299559473,28.422967558963354
7.116740088105728,28.32568073086845
7.136563876651983,28.217878987503454
7.156387665198239,28.099875052150896
7.176211453744494,27.972014609760897
7.19603524229075,27.834676382667183
7.215859030837005,27.688272187753576
7.235682819383261,27.533246966942862
7.255506607929516,27.370078781442615
7.275330396475772,27.199278758564727
7.295154185022027,27.02139097813278
7.314977973568283,26.836992283500457
7.334801762114538,26.646692000035042
7.354625550660794,26.451131541586363
7.374449339207049,26.250983882997247
7.394273127753305,26.04695287416208
7.4140969162995605,25.839772368573946
7.433920704845816,25.630205136812158
7.453744493392072,25.419041533128738
7.473568281938327,25.20709788135154
7.493392070484583,24.99521454491608
7.513215859030838,24.78425364519368
7.533039647577093,24.575096392649083
7.552863436123348,24.368639997023863
7.572687224669605,24.165794125994296
7.59251101321586,23.967476886894847
7.612334801762115,23.774610313407624
7.6321585903083715,23.58811534881576
7.651982378854627,23.4089063296445
7.671806167400882,23.237884988281554
7.691629955947137,23.07593401031871
7.711453744493394,22.92391020153271
7.731277533039649,22.78263734003106
7.751101321585904,22.65289881028421
7.7709251101321595,22.53543013647354
7.790748898678416,22.430911551528357
7.81057268722467,22.339960754000153
7.830396475770926,22.26312601610556
7.850220264317182,22.200879811537394
7.870044052863436,22.15361312992392
7.889867841409693,22.121630635434126
7.909691629955948,22.105146809802353
7.929515418502204,22.10428319539986
7.9493392070484585,22.11906682292714
7.969162995594715,22.14942987241102
7.9889867841409705,22.195210577467154
8.008810572687224,22.25615534349645
8.02863436123348,22.33192201293985
8.048458149779737,22.422084177070563
8.068281938325994,22.526136405857013
8.088105726872246,22.643500246472993
8.107929515418503,22.77353082777441
8.12775330396476,22.91552390260742
8.147577092511014,23.06872316171743
8.167400881057269,23.23232766139345
8.187224669603525,23.40549922059474
8.207048458149782,23.587369660778332
8.226872246696036,23.77704778155279
8.246696035242293,23.973625986281377
8.266519823788547,24.176186492671693
8.286343612334802,24.383807083261676
8.306167400881058,24.59556636883312
8.325991189427315,24.810548553684995
8.345814977973568,25.02784770512746
8.365638766519824,25.24657154045091
8.38546255506608,25.465844753062875
8.405286343612337,25.684811905651312
8.42511013215859,25.90263992238598
8.444933920704846,26.118520214587097
8.464757709251103,26.331670475282447
8.484581497797357,26.541336177919085
8.504405286343614,26.746791813466217
8.524229074889869,26.947341898475546
8.544052863436125,27.142321784558295
8.56387665198238,27.33109829736108
8.583700440528636,27.51307023061376
8.60352422907489,27.687668718283604
8.623348017621145,27.854357505384577
8.643171806167402,28.012633135612603
8.662995594713658,28.162025071746154
8.682819383259913,28.302095762691604
8.702643171806168,28.432440669173772
8.722466960352424,28.552688258378435
8.74229074889868,28.662499976341955
8.762114537444935,28.76157020554281
8.78193832599119,28.849626213971128
8.801762114537446,28.926428100921207
8.821585903083701,28.991768743852106
8.841409691629957,29.04547374987973
8.861233480176212,29.087401414781535
8.881057268722468,29.117442691800754
8.900881057268723,29.13552117201248
8.92070484581498,29.14159307754666
8.940528634361234,29.13564726853672
8.960352422907489,29.11770526426869
8.980176211453745,29.087821278621504
9.000000000000002,29.04608226951238
9.019823788546258,28.99260800167003
9.039647577092511,28.927551121642182
9.059471365638768,28.851097243492035
9.079295154185024,28.763465043129592
9.099118942731279,28.664906358652296
9.118942731277533,28.55570629341148
9.13876651982379,28.436183317768702
9.158590308370046,28.306689364637826
9.1784140969163,28.16760991291181
9.198237885462555,28.01936405172991
9.218061674008812,27.86240451723907
9.237885462555067,27.697217692025394
9.257709251101323,27.5243235557318
9.27753303964758,27.344275573525707
9.297356828193834,27.157660507038905
9.317180616740089,26.965098130173732
9.337004405286345,26.767240829779336
9.356828193832602,26.56477306867459
9.376651982378855,26.358410685885943
9.396475770925111,26.148900006344817
9.416299559471367,25.93701672975034
9.436123348017622,25.723564565971078
9.455947136563877,25.50937358239648
9.475770925110133,25.295298227243748
9.49559471365639,25.082214992210712
9.515418502202644,24.87101967830198
9.5352422907489,24.662624230429927
9.555066079295155,24.45795310981394
9.57488986784141,24.257939178570982
9.594713656387666,24.06351907849077
9.614537444933923,23.875628096044238
9.634361233480178,23.69519451831952
9.654185022026432,23.523133499819572
9.674008810572689,23.36034047771583
9.693832599118945,23.20768419285544
9.713656387665198,23.06599939493426
9.733480176211454,22.936079331904118
9.75330396475771,22.818668144756664
9.773127753303967,22.714453308003762
9.792951541850222,22.624058272012952
9.812775330396477,22.54803547440195
9.832599118942733,22.48685989260752
9.852422907488988,22.440923307451683
9.872246696035244,22.41052943736873
9.892070484581499,22.39589008479707
9.911894273127754,22.39712241054961
9.93171806167401,22.41424741984343
9.951541850220266,22.44718970673648
9.971365638766521,22.495778464065015
9.991189427312776,22.5597497259267
10.011013215859032,22.63874977167472
10.030837004405289,22.73233958645814
10.050660792951543,22.840000245359327
10.070484581497798,22.961139067423023
10.090308370044054,23.095096373006864
10.11013215859031,23.2411526729731
10.129955947136565,23.39853612078421
10.14977973568282,23.566430067609684
10.169603524229077,23.74398057483716
10.189427312775331,23.9303037564779
10.209251101321588,24.124492844414686
10.229074889867842,24.325624890896812
10.248898678414099,24.5327670439573
10.268722466960353,24.74498235156141
10.28854625550661,24.96133506858423
10.308370044052865,25.180895456705745
10.32819383259912,25.402744080764514
10.348017621145376,25.625975615978298
10.367841409691632,25.849702188814085
10.387665198237887,26.073056280369205
10.407488986784141,26.295193225173882
10.427312775330398,26.515293340637545
10.447136563876654,26.732563723242745
10.466960352422909,26.946239747334044
10.486784140969164,27.155586301223707
10.50660792951542,27.359898793579653
10.526431718061675,27.558503960878607
10.546255506607931,27.7507605042644
10.566079295154186,27.93605958158693
10.585903083700442,28.113825177811734
10.605726872246697,28.283514374466037
10.625550660792953,28.444617536377713
10.645374449339208,28.59665843170772
10.665198237885463,28.739194299195987
10.685022026431719,28.87181587464678
10.704845814977975,28.994147386974877
