Frequency (Hz),Amplitude
0.0,5.070413976032633
0.01993355481727575,5.068559044456407
0.0398671096345515,5.062997505213991
0.059800664451827246,5.05373913159488
0.079734219269103,5.040800235291418
0.09966777408637874,5.024203701091809
0.11960132890365449,5.0039790362109375
0.13953488372093023,4.98016243503029
0.159468438538206,4.952796860252737
0.17940199335548174,4.9219321417237305
0.19933554817275748,4.887625094428273
0.21926910299003324,4.849939657444952
0.23920265780730898,4.8089470559250245
0.25913621262458475,4.764725988466131
0.27906976744186046,4.717362842565103
0.29900332225913623,4.666951941159689
0.318936877076412,4.6135958235989944
0.3388704318936877,4.557405564707345
0.3588039867109635,4.498501135912719
0.37873754152823924,4.437011812676792
0.39867109634551495,4.373076632659801
0.4186046511627907,4.306844909137083
0.4385382059800665,4.238476804097669
0.4584717607973422,4.168143965118964
0.47840531561461797,4.096030229420041
0.49833887043189373,4.022332397308859
0.5182724252491695,3.9472610753743047
0.5382059800664452,3.871041586998346
0.5581395348837209,3.793914943785845
0.5780730897009968,3.7161388659715304
0.5980066445182725,3.6379888323442082
0.6179401993355482,3.5597591302507334
0.637873754152824,3.4817638633060994
0.6578073089700996,3.4043378580756207
0.6777408637873754,3.3278373908842838
0.6976744186046512,3.252640632025428
0.717607973421927,3.1791476775127294
0.7375415282392027,3.107780009548625
0.7574750830564785,3.0389791987475916
0.7774086378737541,2.9732046382256314
0.7973421926910299,2.910930088326482
0.8172757475083057,2.8526388193869567
0.8372093023255814,2.798817178343751
0.8571428571428572,2.749946482814502
0.877076411960133,2.7064932703804456
0.8970099667774087,2.6688981014046465
0.9169435215946844,2.637563320408217
0.9368770764119602,2.6128403997598943
0.9568106312292359,2.595017682849293
0.9767441860465116,2.5843094666854833
0.9966777408637875,2.580847373486251
1.0166112956810631,2.584674831577878
1.036544850498339,2.5957452210513456
1.0564784053156147,2.6139238758758943
1.0764119601328903,2.638993735109853
1.0963455149501662,2.670664074997399
1.1162790697674418,2.7085814938385924
1.1362126245847177,2.7523421980200604
1.1561461794019936,2.8015046524046405
1.176079734219269,2.8556017847365855
1.196013289036545,2.914152128949947
1.2159468438538206,2.9766695111008694
1.2358803986710964,3.042671087197718
1.255813953488372,3.111683711016597
1.275747508305648,3.1832487321374106
1.2956810631229239,3.2569254005105193
1.3156146179401993,3.332293090876716
1.3355481727574752,3.4089525680226296
1.3554817275747508,3.486526501915953
1.3754152823920267,3.5646594185394527
1.3953488372093024,3.6430172440218143
1.4152823920265782,3.7212865707420555
1.435215946843854,3.799173747080679
1.4551495016611296,3.8764038687652254
1.4750830564784054,3.952719729809503
1.495016611295681,4.0278807748366665
1.514950166112957,4.101662081772848
1.5348837209302328,4.173853394031694
1.5548172757475083,4.244258213880403
1.5747508305647842,4.312692963211535
1.5946843853820598,4.37898621402138
1.6146179401993357,4.442977988162065
1.6345514950166113,4.504519124100788
1.6544850498338872,4.563470707254979
1.6744186046511629,4.619703559796473
1.6943521594684385,4.673097785493072
1.7142857142857144,4.723542365076361
1.73421926910299,4.770934797713744
1.754152823920266,4.815180784361285
1.7740863787375416,4.856193949041989
1.7940199335548175,4.893895594400819
1.8139534883720931,4.928214488212942
1.8338870431893688,4.959086677851352
1.8538205980066447,4.986455330044671
1.8737541528239203,5.010270593570252
1.893687707641196,5.030489482828534
1.9136212624584719,5.047075780530534
1.9335548172757475,5.059999958001784
1.9534883720930232,5.069239111863264
1.9734219269102993,5.074776916095103
1.993355481727575,5.0766035887233265
2.0132890365448506,5.074715872596242
2.0332225913621262,5.0691170299373525
2.0531561461794023,5.059816850578497
2.073089700996678,5.046831673992436
2.0930232558139537,5.0301844254612815
2.1129568106312293,5.0099046669380005
2.132890365448505,4.986028663385414
2.1528239202657806,4.958599465612911
2.1727574750830567,4.927667010877656
2.1926910299003324,4.893288242776058
2.212624584717608,4.855527252224706
2.2325581395348837,4.81445544161773
2.25249169435216,4.770151714550961
2.2724252491694354,4.722702693819104
2.292358803986711,4.672202970719231
2.312292358803987,4.6187553890244075
2.332225913621263,4.562471367317337
2.352159468438538,4.503471263679289
2.3720930232558137,4.4418847869949785
2.39202657807309,4.377851459326563
2.4119601328903655,4.311521133888565
2.431893687707641,4.243054573060082
2.4518272425249172,4.172624090521332
2.471760797342193,4.100414260890483
2.4916943521594686,4.026622699022469
2.511627906976744,3.9514609092286728
2.5315614617940203,3.875155201849751
2.551495016611296,3.797947670567319
2.5714285714285716,3.72009721821332
2.5913621262458477,3.6418806112027537
2.611295681063123,3.5635935325969
2.6312292358803986,3.4855515906980554
2.6511627906976742,3.4080912235203358
2.6710963455149503,3.3315704191552125
2.691029900332226,3.2563691479527352
2.7109634551495017,3.1828893751266967
2.7308970099667778,3.111554493316963
2.7508305647840534,3.042807986553621
2.770764119601329,2.97711111442801
2.7906976744186047,2.9149393945671687
2.810631229235881,2.8567776712149615
2.8305647840531565,2.8031135976952184
2.850498338870432,2.754429440397133
2.870431893687708,2.711192238330799
2.8903654485049834,2.6738425251249436
2.910299003322259,2.6427820285912933
2.9302325581395348,2.6183609819688147
2.950166112956811,2.600865872756603
2.9700996677740865,2.590508574096037
2.990033222591362,2.5874178078036816
3.0099667774086383,2.591633752632382
3.029900332225914,2.6031063407974853
3.0498338870431896,2.6216974184322477
3.0697674418604657,2.6471865459204857
3.089700996677741,2.6792798556181103
3.1096345514950166,2.71762112929734
3.129568106312292,2.761804139870667
3.1495016611295683,2.8113853221214153
3.169435215946844,2.8658959676135263
3.1893687707641196,2.9248533363665445
3.2093023255813957,2.987770297186243
3.2292358803986714,3.054163313291815
3.249169435215947,3.123558757169346
3.2691029900332227,3.1954976589751425
3.289036544850499,3.2695390672529228
3.3089700996677744,3.3452622364141336
3.32890365448505,3.42226786213025
3.3488372093023258,3.5001785732306447
3.3687707641196014,3.578638865136385
3.388704318936877,3.657314631503548
3.4086378737541527,3.73589242182552
3.428571428571429,3.814078525816043
3.4485049833887045,3.891597961781504
3.46843853820598,3.96819342636739
3.4883720930232562,4.043624246974302
3.508305647840532,4.117665365442628
3.5282392026578075,4.190106371829668
3.548172757475083,4.260750599748022
3.5681063122923593,4.32941428932699
3.588039867109635,4.395925819981859
3.60797342192691,4.460125012477773
3.6279069767441863,4.521862497967524
3.647840531561462,4.580999150537918
3.6677740863787376,4.637405579137897
3.6877076411960132,4.690961674446897
3.7076411960132893,4.741556206169931
3.727574750830565,4.789086466339381
3.7475083056478407,4.833457954405941
3.7674418604651168,4.874584100170626
3.787375415282392,4.912386020918184
3.807308970099668,4.946792309437886
3.8272425249169437,4.977738849947663
3.8471760797342194,5.005168659262341
3.867109634551495,5.0290317508610745
3.887043189368771,5.049285019809717
3.9069767441860463,5.065892146779876
3.9269102990033224,5.078823519677674
3.9468438538205985,5.08805617165275
3.9667774086378738,5.093573734503214
3.98671096345515,5.095366406727042
4.0066445182724255,5.093430935697551
4.026578073089701,5.087770613660675
4.046511627906977,5.078395287470057
4.0664451827242525,5.065321382191885
4.086378737541528,5.0485719389295864
4.106312292358805,5.02817666744091
4.1262458471760795,5.004172014348029
4.146179401993356,4.97660124797898
4.166112956810632,4.945514561126869
4.186046511627907,4.910969193274353
4.205980066445183,4.87302957410615
4.225913621262459,4.831767490422595
4.245847176079734,4.787262278872557
4.26578073089701,4.739601047242511
4.2857142857142865,4.68887892736735
4.305647840531561,4.635199363061102
4.325581395348838,4.578674436792629
4.345514950166113,4.51942523913761
4.365448504983389,4.457582285301493
4.385382059800665,4.3932859831979645
4.40531561461794,4.326687157639597
4.425249169435216,4.257947635091264
4.445182724252492,4.187240893071328
4.465116279069767,4.114752777550556
4.485049833887043,4.040682290449555
4.50498338870432,3.9652424473849206
4.524916943521594,3.8886612029217686
4.544850498338871,3.8111824364563534
4.5647840531561465,3.733066986110621
4.584717607973422,3.654593710241204
4.604651162790698,3.5760605458632875
4.624584717607974,3.4977855199627537
4.644518272425249,3.4201076528547274
4.664451827242526,3.343387672136182
4.6843853820598005,3.2680084313905144
4.704318936877076,3.194374900229662
4.724252491694353,3.1229135630161915
4.7441860465116275,3.0540710355294336
4.764119601328904,2.9883116865021413
4.78405315614618,2.9261140409698596
4.803986710963455,2.867965753353573
4.823920265780731,2.8143569800658157
4.8438538205980075,2.765772063789476
4.863787375415282,2.7226795708705605
4.883720930232559,2.6855208989292483
4.9036544850498345,2.654697882176644
4.92358803986711,2.6305600415430535
4.943521594684386,2.6133923169477615
4.963455149501661,2.6034042340000036
4.983388704318937,2.600721455286124
5.003322259136213,2.605380523492226
5.023255813953488,2.617327326199057
5.043189368770764,2.636419440121396
5.063122923588041,2.662432111478886
5.083056478405315,2.695067272907059
5.102990033222592,2.7339647470436548
5.122923588039868,2.7787146753783127
5.142857142857143,2.8288702371486703
5.162790697674419,2.8839598581755563
5.182724252491695,2.9434983097013703
5.20265780730897,3.0069963174941603
5.222591362126246,3.073968505692894
5.242524916943522,3.1439396657619345
5.262458471760797,3.2164494595931217
5.282392026578074,3.2910557385650026
5.3023255813953485,3.3673366946584538
5.322259136212625,3.44489206538387
5.342192691029901,3.52334360102081
5.362126245847176,3.6023349786923227
5.382059800664452,3.6815313192386663
5.4019933554817285,3.760618433873879
5.421926910299003,3.8393019007120475
5.44186046511628,3.9173060477157433
5.4617940199335555,3.9943728988929657
5.48172757475083,4.070261124579444
5.501661129568107,4.144745024038892
5.5215946843853825,4.217613558918939
5.541528239202658,4.28866944881235
5.561461794019934,4.357728334820277
5.5813953488372094,4.424618013180361
5.601328903654485,4.489177738357481
5.621262458471762,4.55125759321297
5.641196013289036,4.610717922742569
5.661129568106313,4.667428827226263
5.681063122923589,4.72126971032859
5.700996677740864,4.772128877624002
5.72093023255814,4.819903181120743
5.740863787375416,4.864497705562875
5.760797342192691,4.905825492562801
5.780730897009967,4.943807298926678
5.800664451827243,4.978371385862334
5.820598006644518,5.009453336090376
5.840531561461795,5.036995896204756
5.8604651162790695,5.0609488419438735
5.880398671096346,5.081268864334884
5.900332225913622,5.097919474960069
5.920265780730897,5.11087092886627
5.940199335548173,5.120100163896505
5.960132890365449,5.125590755468608
5.980066445182724,5.127332886061794
6.0,5.125323328899617
6.0199335548172765,5.119565445539717
6.039867109634551,5.11006919729959
6.059800664451828,5.096851170665521
6.0797342192691035,5.079934617051798
6.099667774086379,5.059349507500879
6.119601328903655,5.035132603146338
6.139534883720931,5.007327542499819
6.159468438538206,4.975984946874052
6.179401993355482,4.941162545517932
6.1993355481727574,4.902925322317925
6.219269102990033,4.861345686213287
6.23920265780731,4.816503667781364
6.259136212624584,4.768487144770868
6.279069767441861,4.717392099692885
6.299003322259137,4.663322912914715
6.318936877076412,4.6063926950305465
6.338870431893688,4.546723662589779
6.3588039867109645,4.484447561526549
6.378737541528239,4.41970614281981
6.398671096345516,4.3526516949779595
6.418604651162791,4.2834476378229525
6.438538205980066,4.212269181662822
6.458471760797343,4.139304055175549
6.4784053156146175,4.064753304034289
6.498338870431894,3.988832160291154
6.51827242524917,3.9117709795596425
6.538205980066445,3.8338162387881782
6.558139534883721,3.755231581526359
6.578073089700998,3.6762988896147397
6.598006644518272,3.5973193496872864
6.617940199335549,3.5186144692571877
6.6378737541528245,3.4405269800001306
6.6578073089701,3.36342154485865
6.677740863787376,3.287685160808331
6.6976744186046515,3.2137271211959786
6.717607973421927,3.1419783720686003
6.737541528239203,3.0728900688073084
6.7574750830564785,3.006931117382338
6.777408637873754,2.9445844754364474
6.797342192691031,2.8863420009585816
6.8172757475083055,2.8326976805640323
6.837209302325582,2.7841391549251333
6.857142857142858,2.7411375918948133
6.877076411960133,2.70413613723627
6.897009966777409,2.673537386136748
6.9169435215946855,2.6496905393599444
6.93687707641196,2.632879096449224
6.956810631229236,2.6233100485251675
6.9767441860465125,2.6211055234600797
6.996677740863787,2.626297684168491
7.016611295681064,2.638827394655214
7.036544850498339,2.6585467902307762
7.056478405315615,2.685225485020885
7.076411960132891,2.718559795716665
7.096345514950166,2.758184115769017
7.116279069767442,2.8036834699824578
7.136212624584719,2.8546063128989454
7.156146179401993,2.9104767752395455
7.17607973421927,2.9708057664340375
7.196013289036546,3.0351005628733665
7.21594684385382,3.102872715414137
7.235880398671097,3.1736442741644653
7.2558139534883725,3.246952445395932
7.275747508305648,3.3223528663354966
7.295681063122924,3.3994217162800626
7.3156146179402,3.4777568869025823
7.335548172757475,3.556978420508862
7.355481727574752,3.6367284004910556
7.3754152823920265,3.716670449375464
7.395348837209303,3.7964889607615877
7.415282392026579,3.8758881645415855
7.435215946843854,3.9545911013056747
7.45514950166113,4.03233856219386
7.475083056478406,4.108888034554408
7.495016611295681,4.184012681252954
7.514950166112956,4.257500371858975
7.5348837209302335,4.3291527767153895
7.554817275747508,4.398784529599299
7.574750830564784,4.466222460892313
7.5946843853820605,4.531304900549156
7.614617940199336,4.593881048398281
7.634551495016611,4.653810408204281
7.6544850498338874,4.710962281289894
7.674418604651163,4.765215315224122
7.694352159468439,4.816457103027181
7.714285714285715,4.864583828449313
7.73421926910299,4.9094999530918155
7.754152823920266,4.9511179414152435
7.774086378737542,4.989358019992854
7.794019933554818,5.024147967697089
7.813953488372093,5.055422933839685
7.83388704318937,5.083125281613379
7.853820598006645,5.107204454499366
7.8737541528239205,5.127616863607375
7.893687707641197,5.144325794202933
7.913621262458472,5.157301329949604
7.9335548172757475,5.166520293653253
7.953488372093024,5.171966203542861
7.9734219269103,5.173629244359705
7.9933554817275745,5.171506252755823
8.013289036544851,5.165600716726624
8.033222591362128,5.1559227890232835
8.053156146179402,5.142489314710567
8.073089700996679,5.12532387325816
8.093023255813954,5.104456835780001
8.11295681063123,5.07992543827015
8.132890365448505,5.051773871926246
8.152823920265782,5.0200533919064405
8.172757475083056,4.984822446133097
8.192691029900331,4.946146826039187
8.21262458471761,4.904099841450972
8.232558139534884,4.858762522113785
8.252491694352159,4.810223848693905
8.272425249169435,4.758581016425992
8.292358803986712,4.703939734914539
8.312292358803987,4.646414567929914
8.332225913621263,4.586129317348001
8.352159468438538,4.523217455644159
8.372093023255815,4.457822611534082
8.392026578073091,4.390099113409526
8.411960132890366,4.320212595081526
8.43189368770764,4.248340667931774
8.451827242524917,4.1746736627680505
8.471760797342194,4.099415443329202
8.491694352159469,4.022784291293036
8.511627906976745,3.945013859552591
8.53156146179402,3.866354186131076
8.551495016611296,3.7870727550191217
8.571428571428573,3.707455581996433
8.591362126245848,3.6278082926419777
8.611295681063122,3.548457145732765
8.6312292358804,3.469749937621696
8.651162790697676,3.392056701685633
8.67109634551495,3.3157700916233597
8.691029900332227,3.241305308961417
8.710963455149502,3.169099405282894
8.730897009966778,3.0996097615192544
8.750830564784053,3.0333115250504656
8.77076411960133,2.9706937773487487
8.790697674418604,2.912254219471175
8.81063122923588,2.8584922100410544
8.830564784053157,2.809900080008108
8.850498338870432,2.7669527863333134
8.870431893687707,2.7300961510194734
8.890365448504983,2.6997341490598767
8.91029900332226,2.6762159311252236
8.930232558139535,2.6598234534428924
8.950166112956811,2.650760691440481
8.970099667774086,2.649145394293034
8.990033222591363,2.655004173751823
9.00996677740864,2.6682714232686067
9.029900332225914,2.6887921770245256
9.049833887043189,2.716328611994757
9.069767441860467,2.750569544258734
9.089700996677742,2.7911420327011123
9.109634551495017,2.8376241080413864
9.129568106312293,2.8895576876820384
9.14950166112957,2.9464608851370047
9.169435215946844,3.0078391313130095
9.189368770764121,3.0731947485638424
9.209302325581396,3.142034822200369
9.22923588039867,3.2138773771166145
9.249169435215949,3.2882559818439994
9.269102990033224,3.364722971020141
9.289036544850498,3.4428515079836397
9.308970099667773,3.5222367120933638
9.328903654485051,3.602496060162716
9.348837209302326,3.6832692461742047
9.368770764119601,3.7642176541807393
9.388704318936878,3.8450235700023434
9.408637873754152,3.9253892303636593
9.428571428571429,4.005035784661883
9.448504983388705,4.08370222498183
9.46843853820598,4.161144324165031
9.488372093023255,4.237133609315005
9.508305647840533,4.311456388589431
9.528239202657808,4.383912841983954
9.548172757475083,4.454316181577089
9.56810631229236,4.522491882968792
9.588039867109636,4.588276987055963
9.60797342192691,4.651519469567612
9.627906976744187,4.71207767470266
9.647840531561462,4.7698198086032075
9.667774086378738,4.824623488118973
9.687707641196015,4.876375340275939
9.70764119601329,4.924970647977267
9.727574750830565,4.970313037683577
9.747508305647841,5.012314205101639
9.767441860465118,5.0508936752285125
9.787375415282392,5.0859785934312605
9.807308970099669,5.117503544578683
9.827242524916944,5.145410397570779
9.84717607973422,5.16964817293096
9.867109634551497,5.190172931430177
9.887043189368772,5.206947682002246
9.906976744186046,5.2199423074846845
9.926910299003321,5.229133506980661
9.9468438538206,5.234504753887238
9.966777408637874,5.236046268874501
9.986710963455149,5.2337550073317365
10.006644518272426,5.227634661023267
10.026578073089702,5.217695673920088
10.046511627906977,5.203955272396686
10.066445182724253,5.186437510207904
10.086378737541528,5.165173328891412
10.106312292358805,5.1402006344787345
10.126245847176081,5.111564391645638
10.146179401993356,5.079316736691537
10.16611295681063,5.043517111011099
10.186046511627907,5.0042324170088515
10.205980066445184,4.961537198712018
10.225913621262459,4.915513849655362
10.245847176079735,4.866252850945504
10.26578073089701,4.8138530427536805
10.285714285714286,4.75842193283151
10.305647840531563,4.7000760459802144
10.325581395348838,4.638941318715443
10.345514950166113,4.575153543630984
10.36544850498339,4.508858868142107
10.385382059800666,4.440214352333274
10.40531561461794,4.369388590479823
10.425249169435217,4.296562400368293
10.445182724252492,4.221929583684997
10.465116279069768,4.145697759319142
10.485049833887045,4.068089269230317
10.50498338870432,3.9893421532988307
10.524916943521594,3.9097111849877138
10.544850498338871,3.8294689533022592
10.564784053156147,3.7489069679786744
10.584717607973422,3.6683367535573526
10.604651162790697,3.5880908834788916
10.624584717607974,3.508523887125337
10.64451827242525,3.4300129405483784
10.664451827242525,3.3529582255985804
10.684385382059801,3.2777828130791167
10.704318936877076,3.2049318952113346
10.724252491694353,3.1348711643990663
10.74418604651163,3.068084114179449
10.764119601328904,3.005068031654599
10.784053156146179,2.9463284679013895
10.803986710963457,2.8923720242446267
10.823920265780732,2.843697387381383
10.843853820598007,2.800784690649326
10.863787375415283,2.7640834695530394
