Time (s),Filtered Signal
0.0,0.006619200950780532
0.03337028824833703,-0.09312570055274626
0.06674057649667406,-0.22916575961449193
0.10011086474501109,-0.3995044033488093
0.13348115299334812,-0.5520604106785751
0.16685144124168516,-0.6078472327371331
0.20022172949002218,-0.5063521486643356
0.2335920177383592,-0.24571812140316554
0.26696230598669624,0.10679270599687299
0.3003325942350333,0.4408422027773717
0.3337028824833703,0.6511962387033259
0.3670731707317073,0.6819673247153507
0.40044345898004435,0.5447971813903475
0.4338137472283814,0.30476313598000426
0.4671840354767184,0.04530860386526723
0.5005543237250555,-0.1674325980226248
0.5339246119733925,-0.30383310613674724
0.5672949002217295,-0.3683662351802907
0.6006651884700666,-0.38300270787448987
0.6340354767184035,-0.36964397246271835
0.6674057649667406,-0.3416669019411631
0.7007760532150776,-0.30597446103408205
0.7341463414634146,-0.2692082253798015
0.7675166297117517,-0.24004042877904805
0.8008869179600887,-0.22420965565078335
0.8342572062084257,-0.2161604155737871
0.8676274944567628,-0.19528746582788645
0.9009977827050998,-0.1327070664253776
0.9343680709534368,-0.007388823827022575
0.9677383592017739,0.17691856942719295
1.001108647450111,0.38509987265167256
1.0344789356984478,0.5609766683676434
1.067849223946785,0.6514819745123032
1.101219512195122,0.6327106868155087
1.134589800443459,0.523240941388074
1.167960088691796,0.37615469424152376
1.2013303769401331,0.25287459013820807
1.23470066518847,0.19251691158773032
1.268070953436807,0.1934466302013699
1.3014412416851442,0.21701057810200391
1.3348115299334813,0.2108164264391669
1.3681818181818182,0.13791815869740487
1.4015521064301553,-0.004545776147614943
1.4349223946784924,-0.18677492187802033
1.4682926829268292,-0.3650400620375779
1.5016629711751663,-0.5049919711288213
1.5350332594235034,-0.5950954382043795
1.5684035476718403,-0.6430248948498369
1.6017738359201774,-0.6593193337566906
1.6351441241685145,-0.6409565857332032
1.6685144124168514,-0.5675483580898621
1.7018847006651885,-0.4145446824416767
1.7352549889135256,-0.17628368220283952
1.7686252771618625,0.115908891631312
1.8019955654101996,0.39415169283925605
1.8353658536585367,0.5767746131670651
1.8687361419068735,0.6042839090368923
1.9021064301552106,0.47069466504100027
1.9354767184035477,0.23307650370645128
1.9688470066518848,-0.007835424335528838
2.002217294900222,-0.14886568819857057
2.035587583148559,-0.12916144219522346
2.0689578713968957,0.04229278723545055
2.102328159645233,0.28967442084096573
2.13569844789357,0.5031190708690284
2.1690687361419068,0.5867218389112306
2.202439024390244,0.4999169418172615
2.235809312638581,0.27334244057026524
2.269179600886918,-0.007759950147851596
2.302549889135255,-0.24414114032711823
2.335920177383592,-0.3672792934361689
2.369290465631929,-0.3668349022862007
2.4026607538802662,-0.2885789907309045
2.436031042128603,-0.2056870903574125
2.46940133037694,-0.17940598137357555
2.5027716186252773,-0.22938136347466095
2.536141906873614,-0.3275617066480435
2.569512195121951,-0.41658207944763537
2.6028824833702884,-0.4411810516820002
2.6362527716186253,-0.37584144389979196
2.6696230598669626,-0.2355015845384229
2.7029933481152995,-0.06599144061914068
2.7363636363636363,0.07886455584579327
2.7697339246119737,0.16099204164898606
2.8031042128603105,0.17155780451717356
2.8364745011086474,0.1297985238241921
2.8698447893569847,0.07056896022027469
2.9032150776053216,0.028604305498141455
2.9365853658536585,0.027016044131510025
2.969955654101996,0.07330607894489093
3.0033259423503327,0.16150250530757176
3.0366962305986696,0.2767484276045754
3.070066518847007,0.3994166835027243
3.1034368070953438,0.5080166529026222
3.1368070953436806,0.5817123289011323
3.170177383592018,0.6032350735866385
3.203547671840355,0.5619505124578764
3.2369179600886917,0.4560727828779152
3.270288248337029,0.29322011393025443
3.303658536585366,0.08938352636995818
3.337028824833703,-0.13292732393843384
3.37039911308204,-0.34673127440852664
3.403769401330377,-0.5230259946269682
3.437139689578714,-0.6345740795319796
3.470509977827051,-0.6616481550904824
3.503880266075388,-0.598790822631737
3.537250554323725,-0.4596741516772989
3.5706208425720622,-0.27634615241830846
3.603991130820399,-0.09079862880480317
3.637361419068736,0.05928485541579495
3.6707317073170733,0.15454003193655858
3.70410199556541,0.20006839028652543
3.737472283813747,0.21906721694895376
3.7708425720620844,0.2359595041664647
3.8042128603104213,0.2577829000523783
3.8375831485587586,0.2650280481834041
3.8709534368070955,0.21900393983870492
3.9043237250554323,0.0838644059253784
3.9376940133037697,-0.1474171175649552
3.9710643015521065,-0.43735741138519124
4.004434589800444,-0.7086511935275686
4.037804878048781,-0.8695132792324267
4.071175166297118,-0.8495748142831394
4.1045454545454545,-0.6306363941113243
4.137915742793791,-0.2584766235600157
4.171286031042128,0.16984506071955693
4.204656319290466,0.5382905918449856
4.238026607538803,0.7509714522695157
4.27139689578714,0.7631958517376697
4.304767184035477,0.5934860264096543
4.3381374722838135,0.3134447573089782
4.371507760532151,0.02060108904188028
4.404878048780488,-0.19506641543435121
4.438248337028825,-0.2789956511274115
4.471618625277162,-0.22534535720449875
4.504988913525499,-0.07250120835930249
4.538359201773836,0.11611791219583967
4.571729490022173,0.2779316417614641
4.60509977827051,0.37371494120605336
4.638470066518847,0.3983333514130677
4.671840354767184,0.3761527599357027
4.705210643015521,0.34412604401327185
4.738580931263858,0.3310663838286259
4.771951219512196,0.34330015151302357
4.8053215077605325,0.3635000667625711
4.838691796008869,0.36247697716132216
4.872062084257206,0.31676503002557205
4.905432372505543,0.22187478591336054
4.93880266075388,0.09382838331877177
4.972172949002218,-0.041510200594121714
5.005543237250555,-0.16463779415475405
5.0389135254988915,-0.2741058933797882
5.072283813747228,-0.3860623949432575
5.105654101995565,-0.5209737253188578
5.139024390243902,-0.6846107764248396
5.17239467849224,-0.8544924710637098
5.205764966740577,-0.9809019112941606
5.239135254988914,-1.0042146769473639
5.2725055432372505,-0.8815563345772708
5.305875831485587,-0.6104784866154
5.339246119733925,-0.23817434890866465
5.372616407982262,0.1489297337417707
5.405986696230599,0.45195280005988886
5.439356984478936,0.5928288770443542
5.472727272727273,0.5417878723589734
5.5060975609756095,0.3289365202492603
5.539467849223947,0.03538479670757682
5.572838137472284,-0.2335825918627452
5.606208425720621,-0.38436367148842654
5.639578713968958,-0.3672982993898568
5.672949002217295,-0.19332452647010634
5.706319290465632,0.07168286862111117
5.7396895787139695,0.3331793890856734
5.773059866962306,0.5047762338465908
5.806430155210643,0.5410309932131189
5.83980044345898,0.45316447508504004
5.873170731707317,0.3018449079901828
5.906541019955654,0.17076300693433408
5.939911308203992,0.13233275125362937
5.9732815964523285,0.2192461907522286
6.006651884700665,0.4122395015168262
6.040022172949002,0.6474156748140284
6.073392461197339,0.839162862811765
6.106762749445676,0.9098770812844813
6.140133037694014,0.8164684055438692
6.173503325942351,0.5655141419636445
6.2068736141906875,0.2126265980756659
6.240243902439024,-0.15405313511838123
6.273614190687361,-0.44199083646629256
6.306984478935698,-0.5859170826825001
6.340354767184036,-0.5724476079734223
6.373725055432373,-0.4476039971606783
6.40709534368071,-0.30184536505817355
6.4404656319290465,-0.23555843533086976
6.473835920177383,-0.31700769792534694
6.507206208425721,-0.5500521866472715
6.540576496674058,-0.8668420588436279
6.573946784922395,-1.1508808104115842
6.607317073170732,-1.2822406800285422
6.640687361419069,-1.186038399415593
6.674057649667406,-0.8632883722050215
6.707427937915743,-0.3912421702020515
6.74079822616408,0.10585541093305893
6.774168514412417,0.5021163940726232
6.807538802660754,0.7125499278710102
6.840909090909091,0.717096940011153
6.874279379157428,0.55954992790715
6.9076496674057655,0.32491497556540583
6.941019955654102,0.10597590123329462
6.974390243902439,-0.027829889020236233
7.007760532150776,-0.048533895023849735
7.041130820399113,0.030036095120934705
7.07450110864745,0.1672402029565797
7.107871396895788,0.3174969882872378
7.1412416851441245,0.44859792096443873
7.174611973392461,0.548976408666811
7.207982261640798,0.6228322623636168
7.241352549889135,0.6782890564380702
7.274722838137472,0.716482521207091
7.30809312638581,0.7275171635105503
7.341463414634147,0.6943800150671976
7.3748337028824835,0.6014587196250546
7.40820399113082,0.4427584845972669
7.441574279379157,0.22641183987752125
7.474944567627494,-0.02524941101658129
7.508314855875832,-0.2791353961053884
7.541685144124169,-0.49753048544594214
7.575055432372506,-0.6467996763807938
7.6084257206208425,-0.7080616390968031
7.641796008869179,-0.6869830795440948
7.675166297117517,-0.617444255171472
7.708536585365854,-0.5539577076117821
7.741906873614191,-0.5519431967568967
7.775277161862528,-0.6418863099108698
7.808647450110865,-0.8090019305292894
7.842017738359202,-0.9900887048912143
7.875388026607539,-1.0924997953474131
7.908758314855876,-1.0295276756298044
7.942128603104213,-0.7576926605170156
7.97549889135255,-0.29940098615390054
8.008869179600888,0.25954748275043293
8.042239467849225,0.7971272627314588
8.075609756097561,1.1959179662296064
8.108980044345898,1.3813085355399939
8.142350332594235,1.3426870043393244
8.175720620842572,1.1308458709985705
8.209090909090909,0.8344835603683406
8.242461197339246,0.5463418756254389
8.275831485587583,0.33245046907266085
8.30920177383592,0.21548706173915594
8.342572062084257,0.17675042535454608
8.375942350332595,0.1734272862282242
8.409312638580932,0.1619228375595741
8.442682926829269,0.11649009901549147
8.476053215077606,0.03580377368238478
8.509423503325943,-0.06332728091660461
8.54279379157428,-0.15962917984882288
8.576164079822616,-0.2400988184936435
8.609534368070953,-0.30528624881108474
8.64290465631929,-0.36557998544714965
8.676274944567627,-0.432029214560946
8.709645232815964,-0.5076546577319275
8.743015521064303,-0.5840890437276106
8.77638580931264,-0.6449521574015749
8.809756097560976,-0.673766172043595
8.843126385809313,-0.6621843096849975
8.87649667405765,-0.6144226421277962
8.909866962305987,-0.5456229753084679
8.943237250554324,-0.4745282939190165
8.97660753880266,-0.4133641250451326
9.009977827050998,-0.35934636549814936
9.043348115299334,-0.29213976884131854
9.076718403547671,-0.1796553973188386
9.110088691796008,0.008732426099986031
9.143458980044347,0.28598222059133677
9.176829268292684,0.6348457872832426
9.21019955654102,1.0053354059968784
9.243569844789358,1.3253258658975116
9.276940133037694,1.522149269942457
9.310310421286031,1.5477367891476659
9.343680709534368,1.39706307888648
9.377050997782705,1.111240826292607
9.410421286031042,0.7626224891354442
9.443791574279379,0.4273622566559667
9.477161862527716,0.15716468577312276
9.510532150776053,-0.03711364223054397
9.543902439024391,-0.1826946976161002
9.577272727272728,-0.3247957069153888
9.610643015521065,-0.4993700171430963
9.644013303769402,-0.7119505200983357
9.677383592017739,-0.9324647570802941
9.710753880266076,-1.1079769642215955
9.744124168514412,-1.1869564981653096
9.77749445676275,-1.1436690211427407
9.810864745011086,-0.9915120340477459
9.844235033259423,-0.7791382359084731
9.87760532150776,-0.5708070905217683
9.910975609756099,-0.4194344165719392
9.944345898004435,-0.34426872605204945
9.977716186252772,-0.32335344225048934
10.01108647450111,-0.3045300226866659
10.044456762749446,-0.23047118955382034
10.077827050997783,-0.06681697446422852
10.11119733924612,0.1791844125861173
10.144567627494457,0.45825409503424935
10.177937915742794,0.6977516017455463
10.21130820399113,0.8317749488765643
10.244678492239467,0.8295722280250951
10.278048780487804,0.7094272273701959
10.311419068736143,0.5314108181396052
10.34478935698448,0.371911592014728
10.378159645232817,0.2912411738997213
10.411529933481154,0.30881508605091756
10.44490022172949,0.39686324129997763
10.478270509977827,0.4950130725683271
10.511640798226164,0.5385287106179666
10.545011086474501,0.48701920779528995
10.578381374722838,0.3407941523556847
10.611751662971175,0.1383483574557138
10.645121951219512,-0.06259319760035047
10.67849223946785,-0.2108379308281812
10.711862527716187,-0.282394185877068
10.745232815964524,-0.2873343009400376
10.778603104212861,-0.26083050744089137
10.811973392461198,-0.24341936343561196
10.845343680709535,-0.26015925775015125
10.878713968957872,-0.3087052051602162
10.912084257206208,-0.36214757552512616
10.945454545454545,-0.3852745168352116
10.978824833702882,-0.35593837233706843
11.012195121951219,-0.28011665252957224
11.045565410199556,-0.1921106449550801
11.078935698447895,-0.1389629117945257
11.112305986696231,-0.15656803150397816
11.145676274944568,-0.24948581534738207
11.179046563192905,-0.3847164026158043
11.212416851441242,-0.5027974458712053
11.245787139689579,-0.5413555259336932
11.279157427937916,-0.4608008820960141
11.312527716186253,-0.26138188696435105
11.34589800443459,0.015152927542447236
11.379268292682926,0.2997613594364825
11.412638580931263,0.5207234921941222
11.4460088691796,0.6295099343473352
11.479379157427939,0.6182404252967497
11.512749445676276,0.5218859135147329
11.546119733924613,0.4038011444031608
11.57949002217295,0.3296013727650156
11.612860310421286,0.33945633862126895
11.646230598669623,0.4302449546514744
11.67960088691796,0.5555680123378276
11.712971175166297,0.644320592239655
11.746341463414634,0.630388832587331
11.77971175166297,0.48086629463341474
11.813082039911308,0.21066566372843476
11.846452328159646,-0.12248172483690233
11.879822616407983,-0.4398137258955252
11.91319290465632,-0.6701218370319337
11.946563192904657,-0.7730891690792437
11.979933481152994,-0.7489829210068626
12.01330376940133,-0.6331658638818933
12.046674057649668,-0.48013233167969965
12.080044345898004,-0.3445680898838576
12.113414634146341,-0.2658867637102531
12.146784922394678,-0.25951255091438963
12.180155210643015,-0.31515064123491704
12.213525498891352,-0.40080546963661595
12.24689578713969,-0.4712709820299423
12.280266075388028,-0.4800736665736738
12.313636363636364,-0.3932618854968222
12.347006651884701,-0.2018784034878115
12.380376940133038,0.07143235258825786
12.413747228381375,0.37577509755381505
12.447117516629712,0.6462400300395796
12.480487804878049,0.8250187793866153
12.513858093126386,0.8812698333903464
12.547228381374723,0.8210246209149085
12.58059866962306,0.6823937723948421
12.613968957871396,0.5181575026413899
12.647339246119735,0.3739025853795744
12.680709534368072,0.27180930962923455
12.714079822616409,0.2069194118048873
12.747450110864746,0.15616011750692213
12.780820399113082,0.09426793969645032
12.81419068736142,0.008205960074166392
12.847560975609756,-0.09649134404989207
12.880931263858093,-0.19939787241747048
12.91430155210643,-0.2760908419228912
12.947671840354767,-0.310580078386398
12.981042128603104,-0.30337528716165046
13.014412416851442,-0.27145989049886926
13.04778270509978,-0.24010438083668534
13.081152993348116,-0.23030137604370088
13.114523281596453,-0.24801441541853464
13.14789356984479,-0.28099845522464867
13.181263858093127,-0.3053998511436734
13.214634146341464,-0.29915189793698616
13.2480044345898,-0.25512548760873915
13.281374722838137,-0.18660772447495969
13.314745011086474,-0.12153962407751395
13.348115299334811,-0.0880579562552918
13.381485587583148,-0.09879912969324978
13.414855875831487,-0.1423235567240696
13.448226164079824,-0.18641883577418042
13.48159645232816,-0.191964562595406
13.514966740576497,-0.13076790712108555
13.548337028824834,0.0010160457854394905
13.581707317073171,0.17989877786268849
13.615077605321508,0.36350290179956896
13.648447893569845,0.5063899675718225
13.681818181818182,0.57641482226772
13.715188470066519,0.5650510994738509
13.748558758314855,0.4880258360375052
13.781929046563192,0.37670526370180885
13.815299334811531,0.26432493766599247
13.848669623059868,0.17294281173517076
13.882039911308205,0.10629680910925636
13.915410199556542,0.05105379254727202
13.948780487804878,-0.014460647090945362
13.982150776053215,-0.10772647487250549
14.015521064301552,-0.23073174794030782
14.048891352549889,-0.3647445299286801
14.082261640798226,-0.474203292079745
14.115631929046563,-0.5195381648165527
14.1490022172949,-0.4746856880580969
14.182372505543238,-0.3417901600393624
14.215742793791575,-0.15524305776528596
14.249113082039912,0.02890213233281515
14.282483370288249,0.15503540841067798
14.315853658536586,0.19180852072891502
14.349223946784923,0.14571263356508432
14.38259423503326,0.05688548097638529
14.415964523281596,-0.02128121442056848
14.449334811529933,-0.04836239656725508
14.48270509977827,-0.015213391469924254
14.516075388026607,0.05511617489169863
14.549445676274944,0.12371645092166107
14.582815964523283,0.15962503416771318
14.61618625277162,0.15729745595005515
14.649556541019956,0.1378836584008335
14.682926829268293,0.13409852641505152
14.71629711751663,0.16809613326557887
14.749667405764967,0.2356788678359833
14.783037694013304,0.3062078885528174
14.81640798226164,0.33827008040912343
14.849778270509978,0.3020725784059244
14.883148558758315,0.19588073661524188
14.916518847006651,0.04745184749181611
14.949889135254988,-0.10000325024320855
14.983259423503327,-0.2092967445377557
15.016629711751664,-0.2664630552547881
15.05,-0.28489230383908837
15.083370288248338,-0.2951067111276234
15.116740576496674,-0.3264954861370765
15.150110864745011,-0.3909136501881909
15.183481152993348,-0.47615469708100927
15.216851441241685,-0.551615021717633
15.250221729490022,-0.5824107216718614
15.283592017738359,-0.5447837219903725
15.316962305986696,-0.4359367096426025
15.350332594235034,-0.27459380633051406
15.383702882483371,-0.09274859141894048
15.417073170731708,0.07748818272923923
15.450443458980045,0.21632452185981876
15.483813747228382,0.32276987131859697
15.517184035476719,0.4122175847238108
15.550554323725056,0.505764079279808
15.583924611973393,0.6156700328923934
15.61729490022173,0.7337969557369868
15.650665188470066,0.8294725405325286
15.684035476718403,0.8595000530955096
15.71740576496674,0.7870911102469025
15.750776053215079,0.6012227287407401
15.784146341463416,0.3265348235837347
15.817516629711752,0.017872192292019248
15.85088691796009,-0.25878838473562177
15.884257206208426,-0.4502406227515972
15.917627494456763,-0.5336436830232689
15.9509977827051,-0.5202708892730376
15.984368070953437,-0.445130135228232
16.017738359201775,-0.3489155623785237
16.05110864745011,-0.26154008009416696
16.08447893569845,-0.1944044838746215
16.117849223946784,-0.14325575399783833
16.151219512195123,-0.09803453457439655
16.184589800443458,-0.053264473792878866
16.217960088691797,-0.013398179786752881
16.251330376940132,0.008854029125585859
16.28470066518847,-0.000855336019664336
16.31807095343681,-0.05121877339209189
16.351441241685144,-0.14103198140203807
16.384811529933483,-0.25918793743467705
16.418181818181818,-0.38744318680871215
16.451552106430157,-0.5034733031046789
16.48492239467849,-0.5828727693291169
16.51829268292683,-0.6009974081302403
16.551662971175165,-0.536905771839526
16.585033259423504,-0.3806108429539912
16.61840354767184,-0.1416702599602073
16.651773835920178,0.14596331959751618
16.685144124168513,0.4281742626785703
16.71851441241685,0.6455894212325193
16.75188470066519,0.7546515564913939
16.785254988913525,0.7456294983522342
16.818625277161864,0.6482903803672011
16.8519955654102,0.5211656635685977
16.885365853658538,0.42813048221089267
16.918736141906873,0.4121767149806583
16.95210643015521,0.4776381997395807
16.985476718403547,0.5882883821841988
17.018847006651885,0.6818123318074294
17.05221729490022,0.6944045328712775
17.08558758314856,0.5854349233405998
17.118957871396898,0.35259351757748114
17.152328159645233,0.03226445852744467
17.18569844789357,-0.3138564161313038
17.219068736141907,-0.619485325821343
17.252439024390245,-0.8332617311408587
17.28580931263858,-0.9303675316905177
17.31917960088692,-0.9140822043965914
17.352549889135254,-0.8095452867187285
