Frequency (Hz),Amplitude
0.0,1.0872641300236952
0.01993355481727575,1.0867779193469722
0.0398671096345515,1.0853198859393935
0.059800664451827246,1.082891826257268
0.079734219269103,1.079496736377139
0.09966777408637874,1.0751388150433716
0.11960132890365449,1.069823468084352
0.13953488372093023,1.0635573143516055
0.159468438538206,1.056348193388356
0.17940199335548174,1.0482051750914492
0.19933554817275748,1.03913857169655
0.21926910299003324,1.0291599524923452
0.23920265780730898,1.0182821617580176
0.25913621262458475,1.006519340522922
0.27906976744186046,0.9938869528718369
0.29900332225913623,0.980401817667796
0.318936877076412,0.9660821467447729
0.3388704318936877,0.9509475908394067
0.3588039867109635,0.9350192947964172
0.37873754152823924,0.9183199639056779
0.39867109634551495,0.9008739436262317
0.4186046511627907,0.8827073154410733
0.4385382059800665,0.8638480121892439
0.4584717607973422,0.8443259569675728
0.47840531561461797,0.8241732306174749
0.49833887043189373,0.8034242739574007
0.5182724252491695,0.7821161323403895
0.5382059800664452,0.7602887518728929
0.5581395348837209,0.7379853387982993
0.5780730897009968,0.7152527962066418
0.5980066445182725,0.6921422554611494
0.6179401993355482,0.6687097235951075
0.637873754152824,0.645016872442206
0.6578073089700996,0.6211320003206422
0.6777408637873754,0.5971312023728736
0.6976744186046512,0.5730997904261294
0.717607973421927,0.5491340059925439
0.7375415282392027,0.5253430679937007
0.7574750830564785,0.5018515850809465
0.7774086378737541,0.47880233284175283
0.7973421926910299,0.45635933580422816
0.8172757475083057,0.43471108411016396
0.8372093023255814,0.414073530817704
0.8571428571428572,0.39469223437305173
0.877076411960133,0.37684262630068766
0.8970099667774087,0.3608269462085424
0.9169435215946844,0.3469660573582359
0.9368770764119602,0.33558446293231964
0.9568106312292359,0.3269878352575667
0.9767441860465116,0.3214345561473484
0.9966777408637875,0.31910580602784516
1.0166112956810631,0.3200812596200405
1.036544850498339,0.324327511088802
1.0564784053156147,0.33170300400612857
1.0764119601328903,0.34197782865644816
1.0963455149501662,0.35486225111674286
1.1162790697674418,0.3700364952549489
1.1362126245847177,0.3871760273706295
1.1561461794019936,0.40596964094906085
1.176079734219269,0.426130273801329
1.196013289036545,0.4473999607121548
1.2159468438538206,0.46955074112691336
1.2358803986710964,0.49238314301219904
1.255813953488372,0.5157234428250462
1.275747508305648,0.5394204840836301
1.2956810631229239,0.5633425117810207
1.3156146179401993,0.5873742581971002
1.3355481727574752,0.6114143782977645
1.3554817275747508,0.6353732546938289
1.3754152823920267,0.6591711517365256
1.3953488372093024,0.6827366804691478
1.4152823920265782,0.7060055308749533
1.435215946843854,0.7289194290710259
1.4551495016611296,0.7514252812685304
1.4750830564784054,0.7734744715078024
1.495016611295681,0.7950222853818739
1.514950166112957,0.8160274367171991
1.5348837209302328,0.8364516783114475
1.5548172757475083,0.8562594813121982
1.5747508305647842,0.8754177707034996
1.5946843853820598,0.8938957067268439
1.6146179401993357,0.9116645039788112
1.6345514950166113,0.928697281477376
1.6544850498338872,0.9449689382399731
1.6744186046511629,0.9604560499244117
1.6943521594684385,0.9751367828985126
1.7142857142857144,0.9889908227614129
1.73421926910299,1.0019993148725304
1.754152823920266,1.0141448148761991
1.7740863787375416,1.0254112475620483
1.7940199335548175,1.0357838726887734
1.8139534883720931,1.045249256634502
1.8338870431893688,1.0537952489317162
1.8538205980066447,1.0614109629049235
1.8737541528239203,1.0680867597635646
1.893687707641196,1.0738142356145572
1.9136212624584719,1.0785862109537732
1.9335548172757475,1.082396722276482
1.9534883720930232,1.0852410155162324
1.9734219269102993,1.0871155410827305
1.993355481727575,1.0880179503230107
2.0132890365448506,1.087947093279258
2.0332225913621262,1.08690301766163
2.0531561461794023,1.084886968997576
2.073089700996678,1.081901391960675
2.0930232558139537,1.0779499329241184
2.1129568106312293,1.0730374438269767
2.132890365448505,1.067169987487293
2.1528239202657806,1.0603548445454172
2.1727574750830567,1.052600522276295
2.1926910299003324,1.0439167655712822
2.212624584717608,1.034314570461567
2.2325581395348837,1.0238062006381603
2.25249169435216,1.0124052075207908
2.2724252491694354,1.0001264545436361
2.292358803986711,0.986986146464082
2.312292358803987,0.9730018646666294
2.332225913621263,0.9581926096350042
2.352159468438538,0.9425788520097756
2.3720930232558137,0.9261825939468363
2.39202657807309,0.9090274428569302
2.4119601328903655,0.8911387000557038
2.431893687707641,0.872543467407109
2.4518272425249172,0.8532707757271363
2.471760797342193,0.8333517395627432
2.4916943521594686,0.8128197440115107
2.511627906976744,0.7917106705522329
2.5315614617940203,0.7700631704733707
2.551495016611296,0.747918996486479
2.5714285714285716,0.7253234055749772
2.5913621262458477,0.702325649138912
2.611295681063123,0.6789795701299094
2.6312292358803986,0.6553443311724702
2.6511627906976742,0.6314853026023963
2.6710963455149503,0.6074751447175902
2.691029900332226,0.5833951238060102
2.7109634551495017,0.5593367055746349
2.7308970099667778,0.5354034703029863
2.7508305647840534,0.5117133874962505
2.770764119601329,0.48840146733905176
2.7906976744186047,0.4656227609817721
2.810631229235881,0.4435555950935035
2.8305647840531565,0.4224047754553094
2.850498338870432,0.40240425369395594
2.870431893687708,0.3838184031106718
2.8903654485049834,0.36694061337539985
2.910299003322259,0.35208749727721156
2.9302325581395348,0.33958686431644797
2.950166112956811,0.3297581799568544
2.9700996677740865,0.3228859286875498
2.990033222591362,0.3191891424929962
3.0099667774086383,0.31879339605771706
3.029900332225914,0.32171292039430704
3.0498338870431896,0.32784850983504726
3.0697674418604657,0.33700192163217635
3.089700996677741,0.3489020980834194
3.1096345514950166,0.36323570446017467
3.129568106312292,0.3796751180087782
3.1495016611295683,0.3978998243839935
3.169435215946844,0.4176101992874996
3.1893687707641196,0.4385346582592525
3.2093023255813957,0.46043196477288706
3.2292358803986714,0.48309047560396995
3.249169435215947,0.5063257232100647
3.2691029900332227,0.529977289059384
3.289036544850499,0.5539055483514801
3.3089700996677744,0.5779886007001426
3.32890365448505,0.6021195311962954
3.3488372093023258,0.6262040464094608
3.3687707641196014,0.6501584763234122
3.388704318936877,0.6739081078780033
3.4086378737541527,0.6973858065881113
3.428571428571429,0.7205308820777346
3.4485049833887045,0.7432881568476701
3.46843853820598,0.7656072026936039
3.4883720930232562,0.7874417145908159
3.508305647840532,0.8087489969225428
3.5282392026578075,0.8294895413879213
3.548172757475083,0.8496266797162823
3.5681063122923593,0.8691262974672876
3.588039867109635,0.8879565977829654
3.60797342192691,0.9060879060610634
3.6279069767441863,0.9234925082217406
3.647840531561462,0.9401445166124407
3.6677740863787376,0.9560197587034633
3.6877076411960132,0.9710956846187666
3.7076411960132893,0.9853512902670678
3.727574750830565,0.9987670534205059
3.7475083056478407,1.0113248805602848
3.7674418604651168,1.0230080626921672
3.787375415282392,1.0338012386475455
3.807308970099668,1.043690364641976
3.8272425249169437,1.0526626890732627
3.8471760797342194,1.0607067317152197
3.867109634551495,1.067812266607273
3.887043189368771,1.0739703080608412
3.9069767441860463,1.0791730993044713
3.9269102990033224,1.0834141033763063
3.9468438538205985,1.086687995945655
3.9667774086378738,1.0889906598099988
3.98671096345515,1.0903191808700128
4.0066445182724255,1.0906718454358806
4.026578073089701,1.0900481387645982
4.046511627906977,1.0884487447715168
4.0664451827242525,1.085875546901398
4.086378737541528,1.0823316301857404
4.106312292358805,1.0778212845552406
4.1262458471760795,1.072350009521148
4.146179401993356,1.065924520386291
4.166112956810632,1.0585527561991748
4.186046511627907,1.0502438897233886
4.205980066445183,1.0410083397612444
4.225913621262459,1.03085778624837
4.245847176079734,1.0198051886262898
4.26578073089701,1.0078648081079247
4.2857142857142865,0.9950522345779311
4.305647840531561,0.9813844190240069
4.325581395348838,0.9668797125800863
4.345514950166113,0.9515579134872147
4.365448504983389,0.9354403235521226
4.385382059800665,0.9185498160189536
4.40531561461794,0.9009109171819368
4.425249169435216,0.8825499045749041
4.445182724252492,0.8634949252021201
4.465116279069767,0.8437761380527282
4.485049833887043,0.8234258861078935
4.50498338870432,0.802478904249649
4.524916943521594,0.7809725709721703
4.544850498338871,0.7589472136466089
4.5647840531561465,0.7364464793799579
4.584717607973422,0.7135177863236941
4.604651162790698,0.6902128737186694
4.624584717607974,0.6665884730795072
4.644518272425249,0.6427071277453734
4.664451827242526,0.6186381934541298
4.6843853820598005,0.5944590582946836
4.704318936877076,0.570256625563497
4.724252491694353,0.5461291060847119
4.7441860465116275,0.5221881644268859
4.764119601328904,0.49856145080505315
4.78405315614618,0.4753955182844165
4.803986710963455,0.45285905891770706
4.823920265780731,0.4311462717826459
4.8438538205980075,0.4104799738563639
4.863787375415282,0.3911137557300359
4.883720930232559,0.3733320643748227
4.9036544850498345,0.35744662501562396
4.92358803986711,0.34378728401403535
4.943521594684386,0.3326855378293864
4.963455149501661,0.3244502036627078
4.983388704318937,0.31933717618212454
5.003322259136213,0.3175185108508456
5.023255813953488,0.3190585471197797
5.043189368770764,0.3239043506544241
5.063122923588041,0.33189367230420685
5.083056478405315,0.3427777444046291
5.102990033222592,0.3562518708996913
5.122923588039868,0.3719859908011149
5.142857142857143,0.389649678933916
5.162790697674419,0.40892935102967526
5.182724252491695,0.4295380400642701
5.20265780730897,0.45121941624227985
5.222591362126246,0.47374797875947594
5.242524916943522,0.4969270468384298
5.262458471760797,0.5205857103271878
5.282392026578074,0.5445754720956919
5.3023255813953485,0.5687669950853262
5.322259136212625,0.5930471560129529
5.342192691029901,0.6173164807612703
5.362126245847176,0.6414869664272126
5.382059800664452,0.6654802603746157
5.4019933554817285,0.6892261526084208
5.421926910299003,0.712661334933314
5.44186046511628,0.7357283830485037
5.4617940199335555,0.7583749227698197
5.48172757475083,0.7805529472468595
5.501661129568107,0.8022182575061503
5.5215946843853825,0.8233300035283854
5.541528239202658,0.8438503072440352
5.561461794019934,0.8637439523176924
5.5813953488372094,0.8829781284563065
5.601328903654485,0.9015222203076548
5.621262458471762,0.9193476329005206
5.641196013289036,0.9364276470982545
5.661129568106313,0.9527372997602863
5.681063122923589,0.9682532842913064
5.700996677740864,0.9829538680508089
5.72093023255814,0.9968188237358094
5.740863787375416,1.0098293723673977
5.760797342192691,1.021968135931392
5.780730897009967,1.0332190980653615
5.800664451827243,1.0435675714627906
5.820598006644518,1.0530001708941783
5.840531561461795,1.0615047909329893
5.8604651162790695,1.0690705876304643
5.880398671096346,1.0756879635128735
5.900332225913622,1.081348555383802
5.920265780730897,1.086045224505866
5.940199335548173,1.089772048814721
5.960132890365449,1.0925243168859984
5.980066445182724,1.0942985234347906
6.0,1.0950923661803413
6.0199335548172765,1.0949047439559083
6.039867109634551,1.0937357559887528
6.059800664451828,1.0915867023166559
6.0797342192691035,1.088460085349418
6.099667774086379,1.0843596126247388
6.119601328903655,1.0792902008512701
6.139534883720931,1.0732579813771619
6.159468438538206,1.06627030727228
6.179401993355482,1.0583357622676233
6.1993355481727574,1.0494641718583229
6.219269102990033,1.039666616948749
6.23920265780731,1.0289554505025622
6.259136212624584,1.0173443177596415
6.279069767441861,1.004848180700001
6.299003322259137,0.9914833475757205
6.318936877076412,0.9772675085025823
6.338870431893688,0.9622197783091397
6.3588039867109645,0.9463607480926185
6.378737541528239,0.9297125472383985
6.398671096345516,0.9122989180377373
6.418604651162791,0.8941453055040743
6.438538205980066,0.8752789655638024
6.458471760797343,0.8557290955117456
6.4784053156146175,0.8355269915083159
6.498338870431894,0.8147062389999442
6.51827242524917,0.7933029433194719
6.538205980066445,0.7713560094361721
6.558139534883721,0.7489074819540252
6.578073089700998,0.7260029590931536
6.598006644518272,0.7026920976320132
6.617940199335549,0.6790292297319339
6.6378737541528245,0.6550741172789917
6.6578073089701,0.6308928748502918
6.677740863787376,0.6065590984640807
6.6976744186046515,0.5821552433917274
6.717607973421927,0.5577742993526125
6.737541528239203,0.5335218131206317
6.7574750830564785,0.5095183027713316
6.777408637873754,0.485902087194191
6.797342192691031,0.46283250701564066
6.8172757475083055,0.4404934200538347
6.837209302325582,0.41909668971931513
6.857142857142858,0.39888511785197533
6.877076411960133,0.3801338826467774
6.897009966777409,0.3631490479126803
6.9169435215946855,0.3482612355973882
6.93687707641196,0.33581240217545627
6.956810631229236,0.3261343304156511
6.9767441860465125,0.31951944107061686
6.996677740863787,0.31618781193751166
7.016611295681064,0.3162576714561584
7.036544850498339,0.3197278623019506
7.056478405315615,0.32647807997748546
7.076411960132891,0.336286798697038
7.096345514950166,0.3488609562904395
7.116279069767442,0.36386889153532953
7.136212624584719,0.38096934412684885
7.156146179401993,0.39983272947209314
7.17607973421927,0.42015415561416136
7.196013289036546,0.44165960183815745
7.21594684385382,0.4641073195586146
7.235880398671097,0.4872863508030996
7.2558139534883725,0.5110135825824145
7.275747508305648,0.5351302635832763
7.295681063122924,0.5594985226703969
7.3156146179402,0.5839981651904009
7.335548172757475,0.6085238608344383
7.355481727574752,0.6329827453760364
7.3754152823920265,0.6572924120529352
7.395348837209303,0.6813792482615783
7.415282392026579,0.7051770676792071
7.435215946843854,0.7286259897364453
7.45514950166113,0.7516715234294963
7.475083056478406,0.7742638185641277
7.495016611295681,0.7963570535462756
7.514950166112956,0.8179089342715578
7.5348837209302335,0.838880283346477
7.554817275747508,0.8592347027890915
7.574750830564784,0.8789382965749988
7.5946843853820605,0.89795944201054
7.614617940199336,0.9162686010276477
7.634551495016611,0.9338381641945711
7.6544850498338874,0.9506423216011688
7.674418604651163,0.9666569558738726
7.694352159468439,0.9818595534554475
7.714285714285715,0.9962291309936766
7.73421926910299,1.0097461742544456
7.754152823920266,1.0223925874371977
7.774086378737542,1.034151651145624
7.794019933554818,1.0450079875720137
7.813953488372093,1.0549475317032155
7.83388704318937,1.0639575075610985
7.853820598006645,1.072026408659746
7.8737541528239205,1.0791439820014248
7.893687707641197,1.0853012150510504
7.913621262458472,1.090490325226922
7.9335548172757475,1.0947047515293735
7.953488372093024,1.0979391480006693
7.9734219269103,1.1001893787715458
7.9933554817275745,1.1014525145050513
8.013289036544851,1.1017268300974172
8.033222591362128,1.1010118035411505
8.053156146179402,1.0993081158980482
8.073089700996679,1.0966176523709092
8.093023255813954,1.0929435045037246
8.11295681063123,1.0882899735816496
8.132890365448505,1.082662575346099
8.152823920265782,1.0760680461874312
8.172757475083056,1.0685143510299053
8.192691029900331,1.0600106931822106
8.21262458471761,1.0505675264938286
8.232558139534884,1.0401965702355254
8.252491694352159,1.0289108272133236
8.272425249169435,1.0167246057339063
8.292358803986712,1.0036535461684368
8.312292358803987,0.989714653017761
8.332225913621263,0.9749263335702925
8.352159468438538,0.9593084444733634
8.372093023255815,0.9428823478192959
8.392026578073091,0.9256709786921978
8.411960132890366,0.9076989265460254
8.43189368770764,0.8889925333102837
8.451827242524917,0.8695800117721479
8.471760797342194,0.8494915885955566
8.491694352159469,0.8287596773510045
8.511627906976745,0.8074190881948049
8.53156146179402,0.7855072824188204
8.551495016611296,0.7630646820684742
8.571428571428573,0.7401350472923802
8.591362126245848,0.7167659371485748
8.611295681063122,0.6930092733659096
8.6312292358804,0.6689220311529813
8.651162790697676,0.6445670866296227
8.67109634551495,0.6200142567886087
8.691029900332227,0.5953415748096162
8.710963455149502,0.5706368503189179
8.730897009966778,0.5459995692414346
8.750830564784053,0.5215431881351865
8.77076411960133,0.4973978676529037
8.790697674418604,0.4737136591766496
8.81063122923588,0.4506640915654818
8.830564784053157,0.42844997686308844
8.850498338870432,0.4073030318908969
8.870431893687707,0.3874885624920087
8.890365448504983,0.3693059657359398
8.91029900332226,0.3530852326638669
8.930232558139535,0.33917719768836574
8.950166112956811,0.3279354332903556
8.970099667774086,0.3196890565675818
8.990033222591363,0.3147086926874548
9.00996677740864,0.3131718322766283
9.029900332225914,0.31513675181587
9.049833887043189,0.32053341523299533
9.069767441860467,0.3291745597967285
9.089700996677742,0.34078306554731913
9.109634551495017,0.35502689483365396
9.129568106312293,0.3715526108222466
9.14950166112957,0.39001165344488486
9.169435215946844,0.41007750629386364
9.189368770764121,0.4314547000558702
9.209302325581396,0.4538818108198357
9.22923588039867,0.4771306754756977
9.249169435215949,0.5010035802943644
9.269102990033224,0.5253296090841411
9.289036544850498,0.5499608604958496
9.308970099667773,0.5747689090335842
9.328903654485051,0.5996416741153872
9.348837209302326,0.624480741277929
9.368770764119601,0.6491991172982267
9.388704318936878,0.6737193731094764
9.408637873754152,0.6979721195530985
9.428571428571429,0.7218947619084509
9.448504983388705,0.7454304844383368
9.46843853820598,0.7685274229904039
9.488372093023255,0.7911379905412064
9.508305647840533,0.8132183267972042
9.528239202657808,0.8347278483375946
9.548172757475083,0.8556288802742829
9.56810631229236,0.8758863540874643
9.588039867109636,0.8954675592814603
9.60797342192691,0.9143419389091821
9.627906976744187,0.9324809209403836
9.647840531561462,0.9498577789910717
9.667774086378738,0.9664475171648279
9.687707641196015,0.9822267747444801
9.70764119601329,0.9971737472643729
9.727574750830565,1.0112681211300039
9.747508305647841,1.0244910194648096
9.767441860465118,1.0368249572785082
9.787375415282392,1.0482538043880048
9.807308970099669,1.0587627547958571
9.827242524916944,1.068338301455664
9.84717607973422,1.076968215537798
9.867109634551497,1.0846415294615164
9.887043189368772,1.0913485230856894
9.906976744186046,1.0970807125566873
9.926910299003321,1.1018308414012432
9.9468438538206,1.1055928735282414
9.966777408637874,1.1083619878693884
9.986710963455149,1.1101345744458475
10.006644518272426,1.11090823169928
10.026578073089702,1.1106817649720824
10.046511627906977,1.1094551860644593
10.066445182724253,1.107229713837307
10.086378737541528,1.1040077758697704
10.106312292358805,1.0997930112210463
10.126245847176081,1.0945902743877518
10.146179401993356,1.0884056405932503
10.16611295681063,1.0812464125937844
10.186046511627907,1.073121129241045
10.205980066445184,1.0640395761025268
10.225913621262459,1.054012798512424
10.245847176079735,1.0430531175094748
10.26578073089701,1.0311741492165247
10.285714285714286,1.0183908283343464
10.305647840531563,1.0047194365634453
10.325581395348838,0.9901776369383821
10.345514950166113,0.9747845152668488
10.36544850498339,0.9585606301197749
10.385382059800666,0.9415280731307274
10.40531561461794,0.9237105417474475
10.425249169435217,0.9051334270553099
10.445182724252492,0.8858239198844632
10.465116279069768,0.8658111391513801
10.485049833887045,0.8451262873090607
10.50498338870432,0.8238028389383468
10.524916943521594,0.801876769966834
10.544850498338871,0.7793868368294294
10.564784053156147,0.7563749171808802
10.584717607973422,0.7328864266495808
10.604651162790697,0.7089708297170781
10.624584717607974,0.6846822672615042
10.64451827242525,0.6600803287518404
10.664451827242525,0.6352310036075526
