Time (s),Filtered Signal
0.0,-0.015408915906769575
0.033370165745856356,0.04698230741370901
0.06674033149171271,0.25698784497405824
0.10011049723756907,0.6818515721059212
0.13348066298342542,1.2690535635743656
0.16685082872928178,1.8664900044532817
0.20022099447513814,2.290396425815137
0.2335911602209945,2.405818239833038
0.26696132596685085,2.181012184211488
0.30033149171270723,1.6935036675968551
0.33370165745856356,1.0908994765567404
0.3670718232044199,0.5297992092192634
0.4004419889502763,0.12197086168323275
0.43381215469613266,-0.0918716451916645
0.467182320441989,-0.13661772415939094
0.5005524861878453,-0.07591268820631523
0.5339226519337017,0.019666851643172042
0.5672928176795581,0.09584191587151975
0.6006629834254145,0.12372285028968427
0.6340331491712707,0.09706958225959933
0.6674033149171271,0.02392457239072879
0.7007734806629835,-0.08176760501781029
0.7341436464088398,-0.20588562465659987
0.7675138121546962,-0.33708007213841845
0.8008839779005525,-0.46760603282461044
0.8342541436464089,-0.5923160742945194
0.8676243093922653,-0.7060122917785857
0.9009944751381216,-0.8002843351620688
0.934364640883978,-0.8621087892359394
0.9677348066298344,-0.8763730054161554
1.0011049723756906,-0.83243162777653
1.0344751381215471,-0.7317731941478113
1.0678453038674034,-0.5919684439864477
1.1012154696132597,-0.4430370634038844
1.1345856353591162,-0.31621619538966667
1.1679558011049724,-0.22984369170144106
1.201325966850829,-0.17976441148911002
1.2346961325966852,-0.14030742711033584
1.2680662983425415,-0.07674332873378843
1.301436464088398,0.036148930412407514
1.3348066298342542,0.19862248573965105
1.3681767955801105,0.38184306151007363
1.401546961325967,0.5378251298194497
1.4349171270718233,0.6190140543129761
1.4682872928176796,0.59826456168143
1.501657458563536,0.48001362693139116
1.5350276243093923,0.29819143841296913
1.5683977900552488,0.10303185976421696
1.601767955801105,-0.05629150807844795
1.6351381215469614,-0.14571689884067182
1.6685082872928179,-0.15280453760165832
1.7018784530386741,-0.08591832968603531
1.7352486187845306,0.030958355875247787
1.768618784530387,0.1648571604678546
1.8019889502762432,0.28068684749041983
1.8353591160220997,0.3483447917568962
1.868729281767956,0.34972733261686245
1.9020994475138122,0.28391281712760147
1.9354696132596687,0.16806847922879745
1.968839779005525,0.03270489385408044
2.0022099447513813,-0.08762478791113841
2.0355801104972375,-0.16481921924388102
2.0689502762430942,-0.1850117999079743
2.1023204419889505,-0.15117457277021182
2.135690607734807,-0.08043199344495372
2.169060773480663,0.002190866742518266
2.2024309392265193,0.07129674927756002
2.235801104972376,0.10805589105477181
2.2691712707182323,0.10529047695232395
2.3025414364640886,0.0696725752960627
2.335911602209945,0.020045335090519548
2.369281767955801,-0.018619549959816316
2.402651933701658,-0.02468142711818849
2.436022099447514,0.010267518373960196
2.4693922651933704,0.07546350708128442
2.5027624309392267,0.14286684396277852
2.536132596685083,0.17777197961517419
2.5695027624309392,0.15460827358533075
2.602872928176796,0.07086753286473964
2.636243093922652,-0.04830152701928141
2.6696132596685085,-0.15868656808457843
2.7029834254143648,-0.21634921383097366
2.736353591160221,-0.19929173159639552
2.7697237569060777,-0.12065492085690263
2.803093922651934,-0.02562080902496189
2.8364640883977903,0.028339309519250757
2.8698342541436466,-0.00036332122987586905
2.903204419889503,-0.11437989487831934
2.936574585635359,-0.27181316499394376
2.969944751381216,-0.4025827720424991
3.003314917127072,-0.4404261072882171
3.0366850828729284,-0.3557551095148847
3.0700552486187846,-0.1731842102904666
3.103425414364641,0.035743692044580194
3.1367955801104976,0.1824279486790098
3.170165745856354,0.20057458684421248
3.20353591160221,0.07716147641568932
3.2369060773480665,-0.1393222341904399
3.2702762430939227,-0.35752256133602245
3.3036464088397794,-0.48086354089966965
3.3370165745856357,-0.4477904310428492
3.370386740331492,-0.2570385134540455
3.4037569060773483,0.03293212493610894
3.4371270718232045,0.32954280113436957
3.4704972375690613,0.5446885134753247
3.5038674033149175,0.6287347374242004
3.537237569060774,0.5852448336369375
3.57060773480663,0.461590182302634
3.6039779005524863,0.32223433908613625
3.6373480662983426,0.218952507547038
3.6707182320441993,0.17199752409525845
3.7040883977900556,0.16903957390017688
3.737458563535912,0.1790426229157559
3.770828729281768,0.1714437923752345
3.8041988950276244,0.1302350117883082
3.837569060773481,0.057281746066103915
3.8709392265193374,-0.033976147621524476
3.9043093922651937,-0.1284280066246011
3.93767955801105,-0.21618215104717453
3.9710497237569062,-0.29310363372162324
4.0044198895027625,-0.35634774688552556
4.037790055248619,-0.39939542370667425
4.071160220994475,-0.4110242715061578
4.104530386740332,-0.37969750761539955
4.1379005524861885,-0.30103268973368946
4.171270718232044,-0.18370498188239984
4.204640883977901,-0.04970403256170258
4.238011049723757,0.07209468044616194
4.271381215469614,0.1563948788374388
4.30475138121547,0.19111770825609292
4.338121546961326,0.18175336388409574
4.371491712707183,0.14856424031775547
4.404861878453039,0.11801305179156178
4.438232044198895,0.11204214047307359
4.471602209944752,0.1393264446300197
4.504972375690608,0.19159674934512524
4.538342541436465,0.24631050886243566
4.5717127071823205,0.2749507227666304
4.605082872928177,0.25439408762528637
4.638453038674034,0.17743613990614482
4.67182320441989,0.05825413057955238
4.7051933701657465,-0.07010988444383931
4.738563535911602,-0.16628663822587375
4.771933701657459,-0.1957284403311242
4.805303867403316,-0.1446604546224176
4.8386740331491715,-0.02700969958890167
4.872044198895028,0.11893352153848426
4.905414364640884,0.24325698410706983
4.938784530386741,0.30185452086217407
4.972154696132597,0.27188375665834014
5.005524861878453,0.15936951433601865
5.03889502762431,-0.003791332667320373
5.072265193370166,-0.17198373946430767
5.105635359116023,-0.30225544078382405
5.1390055248618784,-0.36860271763520336
5.172375690607735,-0.36902822557187803
5.205745856353592,-0.3233775709869335
5.239116022099448,-0.2636403658445009
5.272486187845304,-0.22109072438271338
5.30585635359116,-0.21535700651903825
5.339226519337017,-0.24917577104430394
5.372596685082874,-0.30996882401840964
5.4059668508287295,-0.37667674254849054
5.439337016574586,-0.42854492866281135
5.472707182320442,-0.45228781169282933
5.506077348066299,-0.44510607030077054
5.5394475138121555,-0.4128463862299934
5.572817679558011,-0.36452972942559814
5.606187845303868,-0.3059541817409117
5.639558011049724,-0.2355947858588779
5.672928176795581,-0.1452096928666413
5.706298342541437,-0.0254396761041266
5.739668508287293,0.12607247357967863
5.77303867403315,0.2986225148101706
5.806408839779006,0.4690609514592955
5.839779005524862,0.6109550550388635
5.873149171270718,0.7093652927837367
5.906519337016575,0.7737143362629413
5.939889502762432,0.8398001756550538
5.9732596685082875,0.955708948814864
6.006629834254144,1.1545322564955367
6.04,1.4256137660749173
6.073370165745857,1.7002723297929159
6.1067403314917135,1.8639029772313243
6.140110497237569,1.7946897671855149
6.173480662983426,1.4152022645354125
6.206850828729282,0.7343329560351368
6.240220994475139,-0.14120997963597787
6.273591160220995,-1.0342029658587966
6.306961325966851,-1.7538977430498366
6.340331491712708,-2.1597594610538704
6.373701657458564,-2.2057501294326496
6.40707182320442,-1.9478486453668757
6.440441988950277,-1.514006287858712
6.473812154696133,-1.051777855758671
6.50718232044199,-0.6769953721035008
6.5405524861878455,-0.44379114593752705
6.573922651933702,-0.34428607351346957
6.607292817679559,-0.3318227775365115
6.640662983425415,-0.35208363550491706
6.674033149171271,-0.3661019778840666
6.707403314917127,-0.3570527176744322
6.740773480662984,-0.32331625773093475
6.774143646408841,-0.2672146356455367
6.8075138121546965,-0.18859440438487604
6.840883977900553,-0.08645916622971095
6.874254143646409,0.03506284909779497
6.907624309392266,0.16322127563891642
6.9409944751381225,0.2800307260668828
6.974364640883978,0.3713019120934454
7.007734806629835,0.43538899189198754
7.041104972375691,0.48526537731411135
7.074475138121548,0.5415243870830396
7.107845303867403,0.6195989692932679
7.14121546961326,0.718217524728599
7.174585635359117,0.8156405458191665
7.207955801104973,0.8760639590336818
7.241325966850829,0.8633749330071122
7.274696132596685,0.7561354767703067
7.308066298342542,0.5576817849899592
7.341436464088399,0.29790352270515136
7.3748066298342545,0.026678436658630345
7.408176795580111,-0.1986214528461212
7.441546961325967,-0.32814462330579713
7.474917127071824,-0.33355463241566896
7.5082872928176805,-0.21750921659884342
7.541657458563536,-0.015427174473509336
7.575027624309393,0.21236568694430744
7.608397790055249,0.39726176890379317
7.641767955801106,0.48333107708143663
7.675138121546962,0.4454729244251722
7.708508287292818,0.2975625333643445
7.741878453038675,0.08662116307914676
7.775248618784531,-0.12548686655539418
7.808618784530387,-0.2859094906434559
7.841988950276244,-0.3704812015921702
7.8753591160221,-0.3908614506090681
7.908729281767957,-0.3860780668220578
7.9420994475138125,-0.4023677670665695
7.975469613259669,-0.4704946005272478
8.008839779005525,-0.590701768584938
8.042209944751383,-0.7316664944867052
8.075580110497238,-0.8433144678944727
8.108950276243094,-0.8773835059958034
8.14232044198895,-0.8068559977956649
8.175690607734808,-0.6365956648615078
8.209060773480664,-0.4016382965206723
8.24243093922652,-0.15453017288213056
8.275801104972377,0.05306255798208644
8.309171270718233,0.1876211845726641
8.342541436464089,0.24375964714526668
8.375911602209946,0.2433331124501526
8.409281767955802,0.22387251749728965
8.442651933701658,0.22071028393332506
8.476022099447514,0.2503020769224441
8.509392265193371,0.3026375151807347
8.542762430939227,0.34722744291993596
8.576132596685083,0.3508141939702635
8.60950276243094,0.2985911857052083
8.642872928176796,0.20788536320265855
8.676243093922652,0.12595343837502365
8.709613259668508,0.11087157827126962
8.742983425414366,0.20303940741589993
8.776353591160222,0.40039859392946503
8.809723756906077,0.6501680815496023
8.843093922651935,0.8633759578542671
8.87646408839779,0.9482029926851031
8.909834254143647,0.8486565535608294
8.943204419889504,0.5711366202030185
8.97657458563536,0.18571278503923333
9.009944751381216,-0.1998810836470207
9.043314917127072,-0.4826075953630335
9.07668508287293,-0.6038858048595614
9.110055248618785,-0.5689952735455082
9.143425414364641,-0.4382735632837405
9.176795580110499,-0.2957197434749977
9.210165745856354,-0.21077585995307782
9.24353591160221,-0.21106476224740428
9.276906077348068,-0.2772797495634322
9.310276243093924,-0.36009734458992304
9.34364640883978,-0.4087417624211243
9.377016574585635,-0.3964340524295458
9.410386740331493,-0.3309490039926568
9.443756906077349,-0.24677995080267418
9.477127071823205,-0.1845684661270489
9.510497237569062,-0.16906645427951641
9.543867403314918,-0.19661498242983574
9.577237569060774,-0.23760896126528694
9.610607734806631,-0.2517645144299853
9.643977900552487,-0.20805851676570977
9.677348066298343,-0.09963923829967195
9.710718232044199,0.05287749578120184
9.744088397790057,0.21047127345943442
9.777458563535912,0.3323194260087067
9.810828729281768,0.3922821920541784
9.844198895027626,0.3883480879429212
9.877569060773482,0.34159826346624933
9.910939226519337,0.28572286113786455
9.944309392265193,0.2518153966415239
9.97767955801105,0.25487428655721933
10.011049723756907,0.2876844591011167
10.044419889502763,0.3247883323624494
10.07779005524862,0.3350324568049054
10.111160220994476,0.297245450408929
10.144530386740332,0.21173360494470436
10.17790055248619,0.10169022882855948
10.211270718232045,0.00312331095865277
10.244640883977901,-0.05237213583516488
10.278011049723757,-0.0536394169538931
10.311381215469615,-0.016489775351886237
10.34475138121547,0.023022277067886517
10.378121546961326,0.025516785243108242
10.411491712707184,-0.03304406755173441
10.44486187845304,-0.15023136617217459
10.478232044198895,-0.2986799111877334
10.511602209944753,-0.43865582674946413
10.544972375690609,-0.5346566243020179
10.578342541436465,-0.5678557400995371
10.61171270718232,-0.5394146986913957
10.645082872928178,-0.46498427698400735
10.678453038674034,-0.3649488829283749
10.71182320441989,-0.25604621211236533
10.745193370165747,-0.1478976123951259
10.778563535911603,-0.04445995094343004
10.811933701657459,0.05227437545946838
10.845303867403315,0.139445014123294
10.878674033149172,0.21288089409309524
10.912044198895028,0.26842727243717407
10.945414364640884,0.30334475000554867
10.978784530386742,0.3166364572440792
11.012154696132598,0.30856174023963645
11.045524861878453,0.2804769376380588
11.078895027624311,0.23573049305890764
11.112265193370167,0.1810459084268687
11.145635359116023,0.12683622757460222
11.179005524861878,0.08515456202909764
11.212375690607736,0.06546416850782893
11.245745856353592,0.07013869124872271
11.279116022099448,0.092360386046212
11.312486187845305,0.1182154990334596
11.345856353591161,0.13263436533958645
11.379226519337017,0.12656649755311417
11.412596685082875,0.10175623965759488
11.44596685082873,0.07039143826635616
11.479337016574586,0.049358547721255065
11.512707182320442,0.05160129359589237
11.5460773480663,0.07871743393593354
11.579447513812156,0.11857884987892653
11.612817679558011,0.14953000304485325
11.646187845303869,0.1496041560734824
11.679558011049725,0.10663800817512671
11.71292817679558,0.024433497359289166
11.746298342541436,-0.07828100548053274
11.779668508287294,-0.1759753331188214
11.81303867403315,-0.24781068748052604
11.846408839779006,-0.2867760581355924
11.879779005524863,-0.30158889469630895
11.91314917127072,-0.31009852892727596
11.946519337016575,-0.32766975193962544
11.979889502762433,-0.3572821826534452
12.013259668508288,-0.3876657256764527
12.046629834254144,-0.4013785913498361
12.08,-0.3884610968655048
12.113370165745858,-0.35687819159610795
12.146740331491714,-0.33157529220230736
12.18011049723757,-0.3400967894209644
12.213480662983427,-0.39134103470833814
12.246850828729283,-0.46000235237699894
12.280220994475139,-0.4883044365675617
12.313591160220996,-0.40826239882880744
12.346961325966852,-0.17602431001400176
12.380331491712708,0.19853307347706886
12.413701657458564,0.6435593318146907
12.447071823204421,1.0454793932167847
12.480441988950277,1.2908063372494756
12.513812154696133,1.3113198231567753
12.54718232044199,1.1120054623712181
12.580552486187846,0.7689378634975461
12.613922651933702,0.3982371565510437
12.64729281767956,0.11027886983070223
12.680662983425416,-0.03074517136572774
12.714033149171271,-0.025356552447456188
12.747403314917127,0.07048367956105506
12.780773480662985,0.17592117918198777
12.81414364640884,0.22194089557246863
12.847513812154697,0.17796779918633843
12.880883977900554,0.05810622797420658
12.91425414364641,-0.09305719177113506
12.947624309392266,-0.22589598675880973
12.980994475138122,-0.3091526196865133
13.01436464088398,-0.3406573601982732
13.047734806629835,-0.34213834959372585
13.081104972375691,-0.34300987827085067
13.114475138121549,-0.3627383594669979
13.147845303867404,-0.40082285632345305
13.18121546961326,-0.43858049895982454
13.214585635359118,-0.4507334523090058
13.247955801104974,-0.4203496379851075
13.28132596685083,-0.34972320278152436
13.314696132596685,-0.2621309640539332
13.348066298342543,-0.19353893209366066
13.381436464088399,-0.1774091310937734
13.414806629834255,-0.22845572787995272
13.448176795580112,-0.3319477387608409
13.481546961325968,-0.4438115271146037
13.514917127071824,-0.503396563576346
13.548287292817681,-0.45584241986687296
13.581657458563537,-0.27603314103959187
13.615027624309393,0.0163857673284291
13.648397790055249,0.35928207957117597
13.681767955801106,0.6689026194199014
13.715138121546962,0.8715128056591975
13.748508287292818,0.9316436635548332
13.781878453038676,0.8632765715650388
13.815248618784532,0.7182197152861727
13.848618784530387,0.557556981094523
13.881988950276245,0.4211527939274617
13.9153591160221,0.3114881685209161
13.948729281767957,0.20038723090694904
13.982099447513813,0.05438861331441747
14.01546961325967,-0.13624037582607362
14.048839779005526,-0.34222251715949714
14.082209944751382,-0.5034507457835867
14.11558011049724,-0.5569807102385136
14.148950276243095,-0.46983434467042245
14.182320441988951,-0.25880662180451336
14.215690607734807,0.013376896486573355
14.249060773480664,0.26342441700369507
14.28243093922652,0.4211563744582298
14.315801104972376,0.4548906635942194
14.349171270718234,0.37753048583878224
14.38254143646409,0.23315510386654073
14.415911602209945,0.07353201146313355
14.449281767955803,-0.06268711857794228
14.482651933701659,-0.1592264034817991
14.516022099447515,-0.218911408375288
14.54939226519337,-0.25358750636557376
14.582762430939228,-0.27484073547226123
14.616132596685084,-0.2900218473639437
14.64950276243094,-0.3030035633089203
14.682872928176797,-0.3159002119630374
14.716243093922653,-0.32857580198807307
14.749613259668509,-0.3360605787067757
14.782983425414367,-0.3269948526105143
14.816353591160222,-0.28642235779634667
14.849723756906078,-0.2034335547936118
14.883093922651934,-0.08031802220804847
14.916464088397792,0.06228776542024303
14.949834254143648,0.1886719383994263
14.983204419889503,0.26013115118662
15.016574585635361,0.2513561425494718
15.049944751381217,0.16350941716670625
15.083314917127073,0.027051938218596198
15.116685082872928,-0.10813027263687455
15.150055248618786,-0.1915485084826415
15.183425414364642,-0.19152706737444952
15.216795580110498,-0.10644048283611722
15.250165745856355,0.03695756441951057
15.283535911602211,0.19658841977735902
15.316906077348067,0.33282791473505724
15.350276243093925,0.42276356760713596
15.38364640883978,0.4649823610070538
15.417016574585636,0.4736733875257747
15.450386740331492,0.46578856858454404
15.48375690607735,0.4481726798758214
15.517127071823205,0.4116400909876583
15.550497237569061,0.33571526870814145
15.583867403314919,0.20233523289217906
15.617237569060775,0.01165845217439602
15.65060773480663,-0.20900191891779607
15.683977900552488,-0.4095701212066575
15.717348066298344,-0.534891158210945
15.7507182320442,-0.5483377459563452
15.784088397790056,-0.4498490650901835
15.817458563535913,-0.27870720481145134
15.85082872928177,-0.09861445363287534
15.884198895027625,0.0283612817038357
15.917569060773483,0.06664451049399768
15.950939226519338,0.019254094889151977
15.984309392265194,-0.07761859164232861
16.01767955801105,-0.17350676223736672
16.051049723756908,-0.22606480652684877
16.084419889502765,-0.2167426578806822
16.11779005524862,-0.15423211434014983
16.151160220994477,-0.06659906400807496
16.18453038674033,0.012357397352876935
16.21790055248619,0.05595012994651962
16.251270718232046,0.05223142450925738
16.2846408839779,0.00539936632878321
16.318011049723758,-0.0673910916146375
16.351381215469615,-0.14143071759727846
16.38475138121547,-0.19049028572618767
16.418121546961327,-0.19299570911631014
16.451491712707185,-0.1380462975248609
16.48486187845304,-0.03005971242895771
16.518232044198896,0.11026237852125807
16.551602209944754,0.25079417455153546
16.584972375690608,0.35864198964188126
16.618342541436466,0.4131139739397771
16.651712707182323,0.41489383254785805
16.685082872928177,0.38572902423553684
16.718453038674035,0.35708052123835293
16.751823204419892,0.35227161952935004
16.785193370165747,0.37123439756146265
16.818563535911604,0.38684905828296556
16.851933701657458,0.3564673305426601
16.885303867403316,0.2441004824692499
16.918674033149173,0.04242321649289769
16.952044198895027,-0.21706585850508608
16.985414364640885,-0.47195651975179376
17.018784530386743,-0.6522196749174336
17.052154696132597,-0.7084232347300622
17.085524861878454,-0.6317962616549244
17.118895027624312,-0.45688327080758817
17.152265193370166,-0.24582815821268048
17.185635359116024,-0.06198001159443925
17.21900552486188,0.05472098298790586
17.252375690607735,0.09951211208718283
