Frequency (Hz),Amplitude
0.0,8.014691438999312
0.019801980198019802,8.021989918108895
0.039603960396039604,8.043816945253731
0.0594059405940594,8.079969247513795
0.07920792079207921,8.130114424812076
0.09900990099009901,8.1938000688831
0.1188118811881188,8.27046566259534
0.13861386138613863,8.359456518961128
0.15841584158415842,8.460038961787477
0.1782178217821782,8.571415969290337
0.19801980198019803,8.692742584249922
0.21782178217821782,8.823140519444566
0.2376237623762376,8.961711533623838
0.25742574257425743,9.107549301834617
0.27722772277227725,9.259749639733963
0.297029702970297,9.41741905528732
0.31683168316831684,9.579681688762847
0.33663366336633666,9.745684763069889
0.3564356435643564,9.914602703891983
0.37623762376237624,10.085640106869297
0.39603960396039606,10.258033731927037
0.4158415841584158,10.431053697155102
0.43564356435643564,10.604004030255613
0.45544554455445546,10.776222717547467
0.4752475247524752,10.94708137113945
0.495049504950495,11.11598461573523
0.5148514851485149,11.282369278627998
0.5346534653465347,11.445703450347088
0.5544554455445545,11.605485469382113
0.5742574257425742,11.76124287246409
0.594059405940594,11.912531341922374
0.613861386138614,12.05893367347897
0.6336633663366337,12.200058781268476
0.6534653465346534,12.33554075165913
0.6732673267326733,12.465037953378404
0.6930693069306931,12.588232208318777
0.7128712871287128,12.704828025042735
0.7326732673267327,12.814551895266584
0.7524752475247525,12.917151652359133
0.7722772277227723,13.012395890033552
0.7920792079207921,13.100073438859217
0.8118811881188118,13.179992897899291
0.8316831683168316,13.251982218640077
0.8514851485148516,13.315888338372337
0.8712871287128713,13.371576860279754
0.891089108910891,13.418931777659441
0.9108910891089109,13.457855239923054
0.9306930693069307,13.488267358289436
0.9504950495049505,13.510106049368975
0.9702970297029703,13.523326915148525
0.99009900990099,13.527903158206072
1.00990099009901,13.523825531313475
1.0297029702970297,13.511102320919184
1.0495049504950495,13.48975936433995
1.0693069306930694,13.459840100827032
1.0891089108910892,13.421405657009801
1.108910891089109,13.374534967553402
1.1287128712871286,13.319324932196027
1.1485148514851484,13.25589061065342
1.1683168316831685,13.184365457185505
1.188118811881188,13.104901596912631
1.2079207920792079,13.017670146230051
1.227722772277228,12.92286157989637
1.2475247524752475,12.820686147541979
1.2673267326732673,12.711374342442324
1.2871287128712872,12.59517742539777
1.3069306930693068,12.472368006426558
1.3267326732673268,12.343240686662533
1.3465346534653466,12.208112762304795
1.3663366336633662,12.06732499161785
1.3861386138613863,11.921242424748653
1.405940594059406,11.770255294402808
1.4257425742574257,11.61477996308203
1.4455445544554455,11.455259919479428
1.4653465346534653,11.292166812583085
1.4851485148514851,11.126001506856149
1.504950495049505,10.957295135323447
1.5247524752475248,10.786610119278903
1.5445544554455446,10.614541113410608
1.5643564356435644,10.441715823241278
1.5841584158415842,10.26879562779074
1.6039603960396038,10.096475924310814
1.6237623762376237,9.925486094063874
1.6435643564356437,9.756588968971588
1.6633663366336633,9.590579659546355
1.683168316831683,9.428283586403644
1.7029702970297032,9.270553543100831
1.7227722772277227,9.118265610101256
1.7425742574257426,8.972313742136299
1.7623762376237624,8.833602868555106
1.782178217821782,8.7030403830524
1.801980198019802,8.581525959617085
1.8217821782178218,8.469939718349499
1.8415841584158414,8.369128877929732
1.8613861386138615,8.279893166916285
1.881188118811881,8.202969414541938
1.900990099009901,8.139015888629023
1.920792079207921,8.088597074429982
1.9405940594059405,8.05216967207159
1.9603960396039604,8.030070611741664
1.98019801980198,8.022507830695034
2.0,8.02955442071756
2.01980198019802,8.051146547900686
2.0396039603960396,8.087085290202285
2.0594059405940595,8.137042263494799
2.0792079207920793,8.200568648426461
2.099009900990099,8.277107020021186
2.118811881188119,8.366005241945054
2.1386138613861387,8.466531627568907
2.1584158415841586,8.577890587206909
2.1782178217821784,8.699238061591927
2.1980198019801978,8.829696165885895
2.217821782178218,8.968366614754348
2.237623762376238,9.114342647815599
2.257425742574257,9.266719311182415
2.2772277227722775,9.424602065363848
2.297029702970297,9.587113778145802
2.3168316831683167,9.753400222997904
2.336633663366337,9.922634241634817
2.3564356435643563,10.094018747704567
2.376237623762376,10.266788751812776
2.3960396039603964,10.440212580667193
2.4158415841584158,10.613592448896048
2.4356435643564356,10.786264524142371
2.455445544554456,10.957598606673345
2.4752475247524752,11.126997525570584
2.495049504950495,11.293896335612434
2.514851485148515,11.4577613828014
2.5346534653465347,11.618089292386856
2.5544554455445545,11.774405921221206
2.5742574257425743,11.926265306267013
2.594059405940594,12.073248632859888
2.6138613861386135,12.214963239712308
2.633663366336634,12.351041672388968
2.6534653465346536,12.481140792879337
2.673267326732673,12.604940949737081
2.6930693069306932,12.722145210875988
2.712871287128713,12.832478659355688
2.7326732673267324,12.935687751230331
2.7524752475247527,13.031539733666598
2.7722772277227725,13.119822120974483
2.792079207920792,13.200342225868225
2.811881188118812,13.272926743128943
2.8316831683168315,13.337421382830826
2.8514851485148514,13.393690550385044
2.8712871287128716,13.441617070822973
2.891089108910891,13.481101954962927
2.910891089108911,13.512064205365377
2.9306930693069306,13.534440660270992
2.9504950495049505,13.548185874024012
2.9702970297029703,13.553272032803495
2.99009900990099,13.549688904814568
3.00990099009901,13.53744382442578
3.0297029702970297,13.51656171007556
3.0495049504950495,13.487085116108444
3.0693069306930694,13.449074319039369
3.089108910891089,13.402607439078466
3.108910891089109,13.347780598079185
3.128712871287129,13.28470811539449
3.148514851485148,13.213522743435554
3.1683168316831685,13.134375945019169
3.1881188118811883,13.047438214855008
3.2079207920792077,12.952899447750308
3.227722772277228,12.850969356284022
3.2475247524752473,12.741877940801883
3.267326732673267,12.625876014585396
3.2871287128712874,12.503235786915111
3.3069306930693068,12.374251506439345
3.3267326732673266,12.239240166719705
3.346534653465347,12.098542274984217
3.366336633663366,11.952522683894937
3.386138613861386,11.801571484423228
3.4059405940594063,11.646104955598865
3.4257425742574257,11.486566563808807
3.4455445544554455,11.323428000293593
3.4653465346534653,11.157190240327886
3.485148514851485,10.988384601058403
3.504950495049505,10.81757376688191
3.5247524752475248,10.645352741357897
3.5445544554455446,10.472349672778682
3.564356435643564,10.299226486552888
3.5841584158415842,10.126679241519904
3.603960396039604,9.95543810943538
3.6237623762376234,9.78626685770319
3.6435643564356437,9.61996169595987
3.6633663366336635,9.457349328898713
3.683168316831683,9.299284042998316
3.702970297029703,9.146643646624302
3.722772277227723,9.000324085101699
3.7425742574257423,8.86123256923172
3.762376237623762,8.730279091996737
3.7821782178217824,8.60836626806529
3.801980198019802,8.496377516934198
3.8217821782178216,8.395163723201225
3.841584158415842,8.305528642600676
3.8613861386138613,8.228213471023755
3.881188118811881,8.163881141284408
3.9009900990099013,8.113101039714369
3.9207920792079207,8.076334920224896
3.9405940594059405,8.05392481701927
3.96039603960396,8.046083704314809
3.98019801980198,8.052889518033092
4.0,8.07428294909926
4.01980198019802,8.110069162209955
4.03960396039604,8.159923318720775
4.0594059405940595,8.2233995225068
4.079207920792079,8.29994259507389
4.099009900990099,8.388901943635771
4.118811881188119,8.489546723530625
4.138613861386139,8.601081511437378
4.158415841584159,8.722661784989453
4.178217821782178,8.853408627793009
4.198019801980198,8.992422224937064
4.217821782178218,9.13879386325796
4.237623762376238,9.291616287789195
4.257425742574258,9.449992381324499
4.2772277227722775,9.613042223354249
4.297029702970297,9.779908647469284
4.316831683168317,9.949761455170854
4.336633663366336,10.121800462965181
4.356435643564357,10.295257563284986
4.376237623762377,10.469397972634683
4.3960396039603955,10.643520826280222
4.415841584158416,10.816959260916109
4.435643564356436,10.989080107374217
4.455445544554455,11.159283296218385
4.475247524752476,11.32700106103997
4.4950495049504955,11.49169700802666
4.514851485148514,11.65286510618478
4.534653465346535,11.810028640499109
4.554455445544555,11.962739160214856
4.574257425742574,12.110575446145093
4.594059405940594,12.253142514226795
4.613861386138614,12.390070667243839
4.633663366336633,12.52101460248772
4.653465346534653,12.645652579936101
4.673267326732674,12.763685653121597
4.693069306930693,12.874836963083373
4.712871287128713,12.97885109451775
4.732673267326733,13.075493492361685
4.752475247524752,13.16454993647059
4.772277227722772,13.245826071717397
4.792079207920793,13.319146990687555
4.811881188118812,13.384356866131045
4.8316831683168315,13.441318630421254
4.851485148514852,13.489913699436284
4.871287128712871,13.530041738499067
4.891089108910891,13.56162046827299
4.910891089108912,13.584585508799153
4.930693069306931,13.598890260168641
4.9504950495049505,13.604505818644892
4.97029702970297,13.601420927380552
4.99009900990099,13.589641961208121
5.00990099009901,13.56919294532155
5.02970297029703,13.54011560800464
5.0495049504950495,13.502469467900449
5.069306930693069,13.456331956651814
5.089108910891089,13.401798578073995
5.108910891089109,13.338983105344196
5.128712871287129,13.26801781800355
5.148514851485149,13.18905378086077
5.1683168316831685,13.102261167152838
5.188118811881188,13.007829628547
5.207920792079208,12.905968714744134
5.227722772277227,12.796908345546452
5.247524752475248,12.680899338255644
5.267326732673268,12.55821399313892
5.2871287128712865,12.42914673939465
5.306930693069307,12.294014843513525
5.326732673267327,12.153159181096596
5.346534653465346,12.00694507197245
5.366336633663367,11.855763176749766
5.3861386138613865,11.70003045062305
5.405940594059405,11.540191147167233
5.425742574257426,11.376717860840786
5.445544554455446,11.210112591766881
5.465346534653465,11.040907809861274
5.485148514851486,10.869667487298898
5.504950495049505,10.696988058433723
5.524752475247524,10.523499254424548
5.544554455445545,10.349864745856047
5.564356435643565,10.17678251059902
5.584158415841584,10.00498482625457
5.603960396039604,9.835237767317025
5.623762376237624,9.668340067641715
5.643564356435643,9.5051211904616
5.663366336633663,9.346438433294043
5.683168316831684,9.193172886631611
5.702970297029703,9.046224067113622
5.7227722772277225,8.906503062346925
5.742574257425743,8.774924060349356
5.762376237623762,8.65239419596507
5.782178217821782,8.539801732371682
5.801980198019803,8.43800270812636
5.821782178217822,8.34780631525201
5.841584158415841,8.269959422735225
5.861386138613861,8.20513080810152
5.881188118811881,8.153895788340925
5.900990099009901,8.116722028786272
5.920792079207921,8.093957334209287
5.9405940594059405,8.085820175759132
5.96039603960396,8.092393575869993
5.98019801980198,8.113622769199353
6.0,8.149316802193386
6.01980198019802,8.199153957915419
6.03960396039604,8.262690631230525
6.0594059405940595,8.339373064389244
6.079207920792079,8.428551207686356
6.099009900990099,8.529493904824161
6.118811881188119,8.641404615460896
6.138613861386139,8.763436965035668
6.158415841584159,8.894709534634531
6.178217821782178,9.034319449739858
6.198019801980198,9.181354476455276
6.217821782178218,9.33490347191766
6.237623762376237,9.494065152233288
6.257425742574258,9.657955231747593
6.2772277227722775,9.825712051325375
6.297029702970296,9.996500853023218
6.316831683168317,10.169516878135383
6.336633663366337,10.343987469723768
6.356435643564356,10.519173353889716
6.376237623762377,10.694369260124692
6.396039603960396,10.868904023236581
6.415841584158415,11.042140289955894
6.435643564356436,11.213473934033226
6.455445544554456,11.382333265511013
6.475247524752475,11.548178103499001
6.495049504950495,11.710498767478764
6.514851485148515,11.86881502996056
6.534653465346534,12.022675063119086
6.554455445544554,12.171654403668771
6.574257425742575,12.315354953485231
6.594059405940594,12.45340402811328
6.6138613861386135,12.585453461102373
6.633663366336634,12.711178768878424
6.653465346534653,12.830278378418686
6.673267326732673,12.942472918190225
6.693069306930694,13.047504571514226
6.712871287128713,13.14513649062053
6.732673267326732,13.235152269070694
6.752475247524753,13.317355469884763
6.772277227722772,13.391569206547453
6.792079207920792,13.457635774050548
6.811881188118813,13.51541632721445
6.8316831683168315,13.56479060369447
6.851485148514851,13.605656689297609
6.871287128712871,13.63793082349536
6.891089108910891,13.661547243307266
6.910891089108911,13.676458064037874
6.930693069306931,13.682633195672484
6.9504950495049505,13.680060294066935
6.97029702970297,13.668744746403195
6.99009900990099,13.648709690721871
7.00990099009901,13.619996069682458
7.02970297029703,13.582662719042787
7.0495049504950495,13.53678649168592
7.069306930693069,13.482462418356114
7.089108910891089,13.419803906590428
7.108910891089109,13.348942979645894
7.128712871287128,13.270030557517105
7.148514851485149,13.183236782407812
7.1683168316831685,13.088751391250877
7.188118811881187,12.986784138049329
7.207920792079208,12.877565268916067
7.227722772277228,12.76134605269611
7.247524752475247,12.638399369928864
7.267326732673268,12.509020362605446
7.287128712871287,12.373527146643081
7.306930693069306,12.232261588167841
7.326732673267327,12.085590143480992
7.346534653465347,11.933904760882623
7.366336633663366,11.777623840210778
7.3861386138613865,11.617193242876798
7.405940594059406,11.453087341165137
7.425742574257425,11.285810090417982
7.445544554455446,11.115896101227344
7.465346534653466,10.943911680678415
7.485148514851485,10.770455801808136
7.504950495049505,10.596160948570523
7.524752475247524,10.421693769618827
7.544554455445544,10.24775545813871
7.564356435643565,10.075081757019221
7.584158415841584,9.904442469364117
7.603960396039604,9.73664033469283
7.623762376237624,9.572509112688884
7.643564356435643,9.412910701251285
7.663366336633663,9.25873110689774
7.683168316831684,9.110875087049727
7.702970297029703,8.970259299822247
7.7227722772277225,8.837803832332316
7.742574257425743,8.71442203750521
7.762376237623762,8.601008694788414
7.782178217821782,8.498426622330925
7.801980198019803,8.407492003333472
7.821782178217822,8.328958838625942
7.841584158415841,8.26350308678342
7.861386138613862,8.211707183173765
7.881188118811881,8.174045718586576
7.900990099009901,8.150873085959889
7.92079207920792,8.142413855267153
7.9405940594059405,8.148756506932253
7.96039603960396,8.169850951127287
7.980198019801979,8.205510004864555
8.0,8.2554147217235
8.01980198019802,8.319123205376238
8.03960396039604,8.396082320178945
8.05940594059406,8.485641563607551
8.07920792079208,8.587068297337677
8.099009900990099,8.699563544265208
8.118811881188119,8.822277634837771
8.138613861386139,8.954325108092304
8.158415841584159,9.094798419029853
8.178217821782178,9.242780154487924
8.198019801980198,9.397353598964008
8.217821782178218,9.557611609811268
8.237623762376238,9.722663853029209
8.257425742574258,9.891642515927717
8.277227722772277,10.063706653623516
8.297029702970297,10.238045346666473
8.316831683168317,10.413879851733716
8.336633663366337,10.590464920790403
8.356435643564357,10.767089450348397
8.376237623762377,10.943076604649459
8.396039603960396,11.117783537158747
8.415841584158416,11.290600815361476
8.435643564356436,11.460951635599516
8.455445544554456,11.62829089819035
8.475247524752476,11.792104198629527
8.495049504950495,11.951906778343877
8.514851485148515,12.107242468149359
8.534653465346535,12.257682649097179
8.554455445544555,12.4028252485501
8.574257425742575,12.542293783889264
8.594059405940595,12.675736461991548
8.613861386138613,12.802825339334753
8.633663366336634,12.923255545105675
8.653465346534654,13.036744567847853
8.673267326732672,13.143031604862314
8.693069306930694,13.241876972657419
8.712871287128714,13.333061576143729
8.732673267326732,13.416386433914427
8.752475247524753,13.491672256785973
8.772277227722773,13.558759076747995
8.792079207920791,13.617505923554347
8.811881188118813,13.667790546347694
8.831683168316832,13.70950917792886
8.85148514851485,13.742576339541536
8.871287128712872,13.766924684333116
8.891089108910892,13.782504877960669
8.91089108910891,13.789285515135175
8.930693069306932,13.787253071228994
8.950495049504951,13.776411888409418
8.97029702970297,13.756784196102565
8.990099009900991,13.728410165933717
9.00990099009901,13.691348001633106
9.029702970297029,13.645674064734905
9.04950495049505,13.591483037233253
9.06930693069307,13.528888122686219
9.089108910891088,13.458021287574459
9.10891089108911,13.379033545018842
9.12871287128713,13.292095283232376
9.148514851485148,13.197396641315468
9.16831683168317,13.095147935184107
9.188118811881187,12.985580136528188
9.207920792079207,12.86894540770642
9.227722772277229,12.745517695359712
9.247524752475247,12.615593385225553
9.267326732673267,12.47949202010532
9.287128712871288,12.337557082106658
9.306930693069306,12.190156839070303
9.326732673267326,12.037685253388831
9.346534653465348,11.880562949110272
9.366336633663366,11.719238230141269
9.386138613861386,11.554188138348566
9.405940594059407,11.385919535205755
9.425742574257425,11.214970184125383
9.445544554455445,11.041909802525524
9.465346534653467,10.86734104278051
9.485148514851485,10.691900349305397
9.504950495049505,10.516258625003065
9.524752475247526,10.341121624170718
9.544554455445544,10.167229970939323
9.564356435643564,9.995358682931167
9.584158415841586,9.826316060028887
9.603960396039604,9.660941779477444
9.623762376237623,9.500104023208454
9.643564356435645,9.344695454286764
9.663366336633663,9.195627860525404
9.683168316831683,9.053825299033933
9.702970297029704,8.920215610468778
9.722772277227723,8.795720230367191
9.742574257425742,8.681242310131967
9.762376237623764,8.577653272340214
9.782178217821782,8.48577806047157
9.801980198019802,8.406379493203467
9.821782178217823,8.340142283886435
9.841584158415841,8.287657417626448
9.861386138613861,8.249407669825832
9.881188118811881,8.225755080291409
9.900990099009901,8.21693115085035
9.92079207920792,8.223030406502724
9.94059405940594,8.244007758020036
9.96039603960396,8.27967984818436
9.98019801980198,8.329730285272321
10.0,8.393718401099365
10.01980198019802,8.471090949705491
10.03960396039604,8.561196010710306
10.05940594059406,8.663298290111396
10.07920792079208,8.776595019231086
10.099009900990099,8.900231726987716
10.118811881188119,9.033317282109968
10.138613861386139,9.17493774847709
10.158415841584159,9.324168748316026
10.178217821782178,9.48008616872049
10.198019801980198,9.641775166533524
10.217821782178218,9.808337520005072
10.237623762376238,9.978897442078061
10.257425742574258,10.152606011963707
10.277227722772277,10.328644402849118
10.297029702970297,10.506226088795456
10.316831683168317,10.684598207688445
10.336633663366337,10.863042243494053
10.356435643564357,11.040874173287964
10.376237623762377,11.217444205013201
10.396039603960396,11.392136212396174
10.415841584158416,11.564366955031574
10.435643564356436,11.733585154980194
10.455445544554454,11.899270486610389
10.475247524752476,12.060932523922194
10.495049504950495,12.218109679135472
10.514851485148514,12.370368157729303
10.534653465346535,12.517300948169984
10.554455445544555,12.658526859035467
10.574257425742573,12.793689611908208
10.594059405940595,12.922456995067353
10.613861386138614,13.044520080479513
10.633663366336632,13.159592504711668
10.653465346534654,13.26740981303689
10.673267326732674,13.367728865062572
10.693069306930692,13.4603272995943
10.712871287128714,13.545003056080354
10.732673267326733,13.621573949805743
10.752475247524751,13.689877297974306
10.772277227722773,13.749769593894714
