Time (s),Filtered Signal
0.0,-0.012865753083465879
0.03337004405286344,-0.9845539227355457
0.06674008810572687,-1.8149287644835908
0.10011013215859031,-2.386015240065138
0.13348017621145375,-2.623704825453959
0.16685022026431717,-2.514605799199444
0.20022026431718062,-2.112532462332926
0.23359030837004408,-1.5289780748252666
0.2669603524229075,-0.906129270322621
0.3003303964757709,-0.378093597966333
0.33370044052863435,-0.03261022569638387
0.3670704845814978,0.11234537523115053
0.40044052863436125,0.10710083189260351
0.43381057268722467,0.04383200822553607
0.46718061674008815,0.015855496591263188
0.5005506607929515,0.07995920298965538
0.533920704845815,0.2376780331135819
0.5672907488986785,0.44243653260715127
0.6006607929515418,0.6272615113564113
0.6340308370044053,0.7384915293106201
0.6674008810572687,0.7591732330553325
0.7007709251101322,0.7121364626597512
0.7341409691629956,0.6433857978941062
0.767511013215859,0.5958217528934152
0.8008810572687225,0.5869686155755106
0.834251101321586,0.601146937769317
0.8676211453744493,0.5986297619005521
0.9009911894273128,0.536001492156911
0.9343612334801763,0.3872449258375861
0.9677312775330397,0.1559296178380692
1.001101321585903,-0.12576997324184053
1.0344713656387665,-0.40886473753883024
1.06784140969163,-0.6433991208068761
1.1012114537444935,-0.7913613651598655
1.134581497797357,-0.8329846972458091
1.1679515418502202,-0.7671841836228236
1.2013215859030837,-0.6095370052974576
1.2346916299559472,-0.39060969371156556
1.2680616740088106,-0.15433837915045812
1.3014317180616741,0.046771463616395115
1.3348017621145374,0.16284566816359114
1.3681718061674009,0.1636384554711102
1.4015418502202643,0.055141717556567556
1.4349118942731278,-0.11378454052126238
1.4682819383259913,-0.26233000302433157
1.5016519823788548,-0.3061468799798091
1.535022026431718,-0.1934980721760909
1.5683920704845815,0.06692752495070817
1.601762114537445,0.40122141457584665
1.6351321585903085,0.6937748006858243
1.668502202643172,0.8312318476044579
1.7018722466960352,0.7487440804477742
1.7352422907488987,0.45845501006112177
1.7686123348017622,0.047604216058258875
1.8019823788546256,-0.35319135534336626
1.8353524229074891,-0.6182985484552288
1.8687224669603526,-0.6723575932022658
1.9020925110132159,-0.5147526375015524
1.9354625550660793,-0.21465416974633272
1.9688325991189428,0.11975662324346353
2.002202643171806,0.3840408988029647
2.0355726872246698,0.5142852760699876
2.068942731277533,0.5035996900379348
2.1023127753303967,0.39367710096028813
2.13568281938326,0.24795621457114794
2.1690528634361232,0.12039220891249543
2.202422907488987,0.034242650255706296
2.23579295154185,-0.021032185292852397
2.269162995594714,-0.07600758260426732
2.302533039647577,-0.15954168891539214
2.3359030837004404,-0.28042898032474867
2.369273127753304,-0.4207815180085912
2.4026431718061674,-0.542948671634587
2.436013215859031,-0.6053427048019067
2.4693832599118943,-0.579214035449833
2.5027533039647576,-0.45934274808341424
2.5361233480176213,-0.26554601517268167
2.5694933920704845,-0.03619470646248874
2.6028634361233483,0.1826728895664079
2.6362334801762115,0.3490514138380162
2.6696035242290748,0.43509381317127827
2.7029735682819385,0.43412806386912056
2.7363436123348017,0.36301586375723843
2.7697136563876654,0.2581983396319325
2.8030837004405287,0.16479045481329702
2.8364537444933924,0.12066166020041605
2.8698237885462556,0.14063411259713285
2.903193832599119,0.20779240044588945
2.9365638766519826,0.27758785078607223
2.969933920704846,0.29549633635342915
3.0033039647577096,0.22218024949088427
3.036674008810573,0.054895743757151595
3.070044052863436,-0.16623027197414134
3.1034140969162998,-0.37223817998067715
3.136784140969163,-0.4947979566425778
3.1701541850220267,-0.49750306939952355
3.20352422907489,-0.3932971069515876
3.2368942731277532,-0.23868989638475838
3.270264317180617,-0.10720524900154853
3.30363436123348,-0.055280242622908635
3.337004405286344,-0.09754268268626252
3.370374449339207,-0.20302219285370326
3.4037444933920704,-0.31263321248943177
3.437114537444934,-0.3676166386028201
3.4704845814977974,-0.33424435871346736
3.503854625550661,-0.21376566989160625
3.5372246696035243,-0.03550686161312808
3.5705947136563876,0.1601837976038651
3.6039647577092513,0.3385984359034759
3.6373348017621145,0.47897049920736734
3.6707048458149782,0.5730773530490277
3.7040748898678415,0.6189306196764336
3.737444933920705,0.6162045842048897
3.7708149779735685,0.5670618293037891
3.8041850220264317,0.4808415983603824
3.8375550660792954,0.37748469682544233
3.8709251101321587,0.2849135741494964
3.9042951541850224,0.22944603912021017
3.9376651982378856,0.22314780539153528
3.971035242290749,0.2548742938794287
4.004405286343612,0.2908805654355184
4.037775330396476,0.2865533142038076
4.0711453744493395,0.2051286293232021
4.104515418502203,0.03513953879896103
4.137885462555066,-0.20187270411482888
4.171255506607929,-0.4577168518413946
4.2046255506607935,-0.6757270592125413
4.237995594713657,-0.8127850498522375
4.27136563876652,-0.8553132628052876
4.304735682819383,-0.8222061514049545
4.3381057268722465,-0.7537396195532935
4.371475770925111,-0.6917838972079839
4.404845814977974,-0.6602792557378243
4.438215859030837,-0.6545204280073225
4.4715859030837,-0.6437795704337236
4.504955947136564,-0.5860141857056863
4.538325991189428,-0.44825330218088844
4.571696035242291,-0.22381887199415798
4.605066079295154,0.06115456212322579
4.638436123348018,0.3548725016400324
4.671806167400881,0.5977739159048876
4.705176211453745,0.7436483704782436
4.738546255506608,0.7753273033155175
4.7719162995594715,0.7090529719164073
4.805286343612335,0.5867055212723788
4.838656387665198,0.4598721473195924
4.872026431718062,0.3722009080698636
4.905396475770925,0.34608005536417874
4.938766519823789,0.3773449690947117
4.972136563876652,0.43884913607036125
5.005506607929515,0.49129419039417327
5.038876651982379,0.49792319859133505
5.072246696035243,0.438500860493249
5.105616740088106,0.3177158280809817
5.138986784140969,0.16436759090946979
5.172356828193832,0.020739188267919494
5.2057268722466965,-0.07436049013878955
5.23909691629956,-0.1021086340117259
5.272466960352423,-0.07240430878824188
5.305837004405286,-0.0204418461376309
5.3392070484581495,0.007937521587562741
5.372577092511014,-0.024027245699308065
5.405947136563877,-0.12787918867318235
5.43931718061674,-0.2846301538173965
5.4726872246696034,-0.45268301158601937
5.506057268722468,-0.5853251268584203
5.539427312775331,-0.6496549410050729
5.572797356828194,-0.6382428594755986
5.606167400881057,-0.5686565933818998
5.639537444933921,-0.472254017135746
5.672907488986785,-0.378867618516172
5.706277533039648,-0.3052410014247779
5.739647577092511,-0.2519089352672388
5.7730176211453745,-0.2079804240877595
5.806387665198238,-0.15938176669803278
5.839757709251102,-0.09562538736388507
5.873127753303965,-0.01264184399106173
5.9064977973568284,0.08763111739553028
5.939867841409692,0.19861098044030415
5.973237885462555,0.30974246095613633
6.006607929515419,0.40669374272699993
6.039977973568282,0.47263362632672995
6.073348017621146,0.49189139772181484
6.106718061674009,0.45564775854565087
6.140088105726872,0.3674141544021257
6.173458149779736,0.24521490691257686
6.2068281938325995,0.11826805603588475
6.240198237885463,0.018313684556598313
6.273568281938326,-0.03151974867031691
6.306938325991189,-0.025728299681119008
6.3403083700440535,0.020846748666143583
6.373678414096917,0.07823945350647854
6.40704845814978,0.11268843916460615
6.440418502202643,0.0995062003475054
6.4737885462555065,0.03224256456986369
6.507158590308371,-0.0754662132202034
6.540528634361234,-0.1958464426489278
6.573898678414097,-0.29801149067328514
6.60726872246696,-0.3593673267776073
6.640638766519824,-0.37269394993960714
6.674008810572688,-0.346102528028687
6.707378854625551,-0.2961644292666241
6.740748898678414,-0.23762870905614125
6.774118942731278,-0.17497711983659306
6.807488986784141,-0.10056198660275875
6.840859030837005,-0.001008008518032514
6.874229074889868,0.13097819304744526
6.9075991189427315,0.28596483984478366
6.940969162995595,0.43535644100478227
6.974339207048458,0.5404492193543353
7.007709251101322,0.5698563664686187
7.041079295154185,0.5166283355369087
7.074449339207049,0.40522226225500046
7.107819383259912,0.2829599743176593
7.141189427312775,0.19876482956671976
7.174559471365639,0.1794048163937737
7.207929515418503,0.2158045794705296
7.241299559471366,0.2674075985005325
7.274669603524229,0.2831151919844048
7.308039647577092,0.22803601128471057
7.3414096916299565,0.10150608200581468
7.37477973568282,-0.06381000284097293
7.408149779735683,-0.22138649304311386
7.441519823788546,-0.3376005978367181
7.47488986784141,-0.4098038319755908
7.508259911894274,-0.4645474175373633
7.541629955947137,-0.5368239380530719
7.575,-0.6432422263692136
7.608370044052863,-0.766474556998176
7.641740088105728,-0.8618675355804257
7.675110132158591,-0.8833645270645156
7.708480176211454,-0.8132546594825317
7.741850220264317,-0.6767810248230555
7.775220264317181,-0.5308768925276924
7.808590308370045,-0.43162399056522716
7.841960352422908,-0.39836712559328474
7.875330396475771,-0.39574051590966575
7.9087004405286345,-0.3459573025098615
7.942070484581498,-0.16741686660000896
7.975440528634362,0.17904171027629487
8.008810572687224,0.6600512074904927
8.042180616740088,1.1723715998646593
8.075550660792953,1.578995438284978
8.108920704845815,1.7629932536347641
8.142290748898679,1.6746261735387393
8.175660792951541,1.3503588729659861
8.209030837004406,0.8957059477304581
8.24240088105727,0.44076722537744156
8.275770925110132,0.08962190792687225
8.309140969162996,-0.11346387296724629
8.342511013215859,-0.1874901601362347
8.375881057268723,-0.18995063482280078
8.409251101321587,-0.17958988076749338
8.44262114537445,-0.18703036219986585
8.475991189427313,-0.20714861624735637
8.509361233480176,-0.2137755813545483
8.54273127753304,-0.18499480287024359
8.576101321585904,-0.12279154985718599
8.609471365638766,-0.05586870870025057
8.64284140969163,-0.025256041471344397
8.676211453744493,-0.06218137484551508
8.709581497797357,-0.17112786900017202
8.742951541850221,-0.32690509533585566
8.776321585903084,-0.48613508359321955
8.809691629955948,-0.6060010029875685
8.84306167400881,-0.6603975892125606
8.876431718061674,-0.6464522848825741
8.909801762114538,-0.5803036860412452
8.9431718061674,-0.4863451029789204
8.976541850220265,-0.38623739736772217
9.009911894273127,-0.2925435772562234
9.043281938325991,-0.20846627636144097
9.076651982378856,-0.13203465884476878
9.110022026431718,-0.061528402703776804
9.143392070484582,0.0009223231968097257
9.176762114537445,0.04931119833824703
9.210132158590309,0.07720203245703022
9.243502202643173,0.08273577147245052
9.276872246696035,0.07226171110506446
9.3102422907489,0.06013468439592514
9.343612334801762,0.06426651530139828
9.376982378854626,0.09960027901734729
9.41035242290749,0.17307772619574488
9.443722466960352,0.282705905743214
9.477092511013216,0.42042746753090127
9.510462555066079,0.5756780335572426
9.543832599118943,0.7360137348318645
9.577202643171807,0.8837153386224806
9.61057268722467,0.9912536009995923
9.643942731277534,1.0210453559454076
9.677312775330396,0.9338045936641981
9.71068281938326,0.7050172855955157
9.744052863436124,0.34312168700371204
9.777422907488987,-0.1005100256045318
9.81079295154185,-0.538012355289273
9.844162995594713,-0.8692332428075873
9.877533039647577,-1.0160212149796193
9.910903083700441,-0.9525004773499937
9.944273127753304,-0.7173461145749458
9.977643171806168,-0.4012828346155013
10.01101321585903,-0.11404832433011822
10.044383259911895,0.05557561372507113
10.077753303964759,0.06998046815134457
10.111123348017621,-0.04889016535421056
10.144493392070485,-0.23516819748070925
10.177863436123348,-0.41036499972931595
10.211233480176212,-0.5157446606724461
10.244603524229076,-0.5317665749965282
10.277973568281938,-0.4774794402726501
10.311343612334802,-0.3924261938619063
10.344713656387665,-0.311483488743914
10.378083700440529,-0.2455783994548323
10.411453744493393,-0.177526391292955
10.444823788546255,-0.07435777460076892
10.47819383259912,0.09069147491604186
10.511563876651982,0.3180105781043927
10.544933920704846,0.5738019372197587
10.57830396475771,0.7991672466640832
10.611674008810573,0.9324956599518963
10.645044052863437,0.9351320997729159
10.678414096916299,0.8085853731961741
10.711784140969163,0.595281458166162
10.745154185022027,0.362289676054639
10.77852422907489,0.17509000731413005
10.811894273127754,0.07279183334968158
10.845264317180618,0.05530980625681148
10.87863436123348,0.08738244567438702
10.912004405286345,0.11672631748879995
10.945374449339207,0.09763885948690484
10.978744493392071,0.009642657721970553
11.012114537444935,-0.13622107984506426
11.045484581497798,-0.30484223120508264
11.078854625550662,-0.4535860371381463
11.112224669603524,-0.5498722609681108
11.145594713656388,-0.582192360296292
11.178964757709252,-0.5607298251722534
11.212334801762115,-0.5088293883625709
11.245704845814979,-0.4505307766799833
11.279074889867841,-0.4004751534073805
11.312444933920705,-0.3604303242392647
11.34581497797357,-0.3227995296449828
11.379185022026432,-0.27796184373825883
11.412555066079296,-0.22089624178773623
11.445925110132158,-0.1536551610047076
11.479295154185023,-0.0829202458580478
11.512665198237887,-0.014585017806220152
11.546035242290749,0.051164736237461955
11.579405286343613,0.12103580873363258
11.612775330396476,0.20471833983360171
11.64614537444934,0.3072924585186441
11.679515418502204,0.42177809161752566
11.712885462555066,0.5264046132165044
11.74625550660793,0.5895394329944299
11.779625550660793,0.5816337181690374
11.812995594713657,0.48963472335273717
11.846365638766521,0.3271474716876086
11.879735682819383,0.13460800867431089
11.913105726872248,-0.03226618090792686
11.94647577092511,-0.12216494343152114
11.979845814977974,-0.108299727878145
12.013215859030838,-0.00036057549730701894
12.0465859030837,0.15726907003865775
12.079955947136565,0.30096468301031454
12.113325991189427,0.37107187753686743
12.146696035242291,0.33358465470573895
12.180066079295155,0.1916116381632658
12.213436123348018,-0.017666930620479093
12.246806167400882,-0.23860678061371135
12.280176211453744,-0.4180155758632218
12.313546255506608,-0.5222168907029515
12.346916299559473,-0.5435830573122149
12.380286343612335,-0.4955278433565112
12.413656387665199,-0.4008013864906112
12.447026431718061,-0.2806877501647895
12.480396475770926,-0.15083247606771136
12.51376651982379,-0.024226743802321413
12.547136563876652,0.08325579221458718
12.580506607929516,0.1511242141742305
12.613876651982379,0.15994658633957554
12.647246696035243,0.10252723159498732
12.680616740088107,-0.0061354740835136215
12.71398678414097,-0.12774181960122277
12.747356828193833,-0.2120543087026386
12.780726872246696,-0.21731403383220593
12.81409691629956,-0.13017935219424756
12.847466960352424,0.02566281209827187
12.880837004405286,0.19815226107587858
12.91420704845815,0.32974081820211065
12.947577092511013,0.3833206718423095
12.980947136563877,0.3576251939091039
13.014317180616741,0.28383262506908646
13.047687224669604,0.20544565573268042
13.081057268722468,0.15296271501257208
13.11442731277533,0.12772022529028593
13.147797356828194,0.10377812540928226
13.181167400881058,0.046145714900769644
13.21453744493392,-0.06568262747375866
13.247907488986785,-0.2225937905426405
13.281277533039647,-0.3875770214118759
13.314647577092511,-0.5129144923573662
13.348017621145376,-0.5628810664325675
13.381387665198238,-0.5295222797560482
13.414757709251102,-0.4337730805163358
13.448127753303964,-0.3128286311498672
13.481497797356829,-0.20193377627301887
13.514867841409693,-0.12053708866511742
13.548237885462555,-0.06867569128490757
13.58160792951542,-0.03274952456262214
13.614977973568282,0.005018469280920364
13.648348017621146,0.05941518422654577
13.68171806167401,0.139663157565438
13.715088105726872,0.24941619839965362
13.748458149779736,0.3858014025705732
13.781828193832599,0.5363369632439544
13.815198237885463,0.6765628352526593
13.848568281938327,0.7731271801695566
13.88193832599119,0.7945559771100528
13.915308370044054,0.726195707254688
13.948678414096916,0.5810270889179878
13.98204845814978,0.3983451159672732
14.015418502202644,0.22851183902909267
14.048788546255507,0.11057698577957023
14.08215859030837,0.05481566549250947
14.115528634361233,0.040222279847114614
14.148898678414097,0.028479799971492435
14.182268722466961,-0.013922185207382838
14.215638766519824,-0.09861123794998541
14.249008810572688,-0.21310942780506623
14.28237885462555,-0.33368575133415235
14.315748898678414,-0.44380883136584015
14.349118942731279,-0.5451859167610378
14.382488986784141,-0.6533682035155671
14.415859030837005,-0.7803599208761107
14.449229074889868,-0.9159521036446642
14.482599118942732,-1.0215272332670664
14.515969162995596,-1.04315783133487
14.549339207048458,-0.9388584925191904
14.582709251101322,-0.7051205971262274
14.616079295154185,-0.38661614831631164
14.649449339207049,-0.061516100934874446
14.682819383259913,0.1914431755068788
14.716189427312775,0.32724481213578627
14.74955947136564,0.3520614014612573
14.782929515418502,0.3149489230736089
14.816299559471366,0.2791153863936255
14.84966960352423,0.2890947860393624
14.883039647577093,0.35149307928924445
14.916409691629957,0.4382950444782695
14.94977973568282,0.5086067739559387
14.983149779735683,0.534971883261072
15.016519823788547,0.5192226931835658
15.04988986784141,0.4899605614649935
15.083259911894274,0.48435175379572953
15.116629955947138,0.524959271620931
15.15,0.6040970702643695
15.183370044052865,0.6837244418963327
15.216740088105727,0.7110788423348422
15.250110132158591,0.6428412867187726
15.283480176211455,0.46666620608311693
15.316850220264318,0.2098749665687612
15.350220264317182,-0.0693430162935629
15.383590308370044,-0.3049564629535265
15.416960352422908,-0.4502537588237193
15.450330396475772,-0.49665652763312473
15.483700440528635,-0.47522425344750824
15.517070484581499,-0.4399195810691475
15.550440528634361,-0.4404360199543952
15.583810572687225,-0.4974858870163138
15.61718061674009,-0.5923134092383089
15.650550660792952,-0.6753848214725401
15.683920704845816,-0.6901066674811521
15.717290748898678,-0.6004596307874837
15.750660792951543,-0.409810151055703
15.784030837004407,-0.16239128336625386
15.817400881057269,0.0731715713400936
15.850770925110133,0.23105360491954519
15.884140969162996,0.27446785412797736
15.91751101321586,0.20995284272126774
15.950881057268724,0.08396477307412042
15.984251101321586,-0.03653334437763185
16.01762114537445,-0.09128616262239733
16.050991189427315,-0.05058113078114709
16.084361233480177,0.0738542602787902
16.11773127753304,0.23498807352000464
16.151101321585905,0.3707012844110035
16.184471365638768,0.4293702138533427
16.21784140969163,0.39000021775840954
16.251211453744492,0.26861894819477805
16.284581497797358,0.10877807124034532
16.31795154185022,-0.038914154279383065
16.351321585903083,-0.13853611537586485
16.38469162995595,-0.18194094414255524
16.41806167400881,-0.18764505035609683
16.451431718061674,-0.1868750720529099
16.48480176211454,-0.20427101352962068
16.518171806167402,-0.24321992887871288
16.551541850220264,-0.28340898126900393
16.584911894273127,-0.2919970985422853
16.618281938325993,-0.24271880058631137
16.651651982378855,-0.13276856998648093
16.685022026431717,0.01206340911804066
16.718392070484583,0.1477741082658073
16.751762114537446,0.23359437950531997
16.785132158590308,0.25361066119119396
16.818502202643174,0.22669996091735012
16.851872246696036,0.19837546739766596
16.8852422907489,0.21748928558720543
16.91861233480176,0.30908086271240465
16.951982378854627,0.45738636542203537
16.98535242290749,0.6084464485545198
17.01872246696035,0.6921181662493229
17.052092511013218,0.6535847992621145
17.08546255506608,0.47963523781191547
17.118832599118942,0.20737578392816136
17.152202643171808,-0.08875866823267758
17.18557268722467,-0.3259546660144853
17.218942731277533,-0.44525614129286634
17.2523127753304,-0.43329925446648515
17.28568281938326,-0.3246273560650259
