Time (s),Filtered Signal
0.0,0.021648952656531672
0.0334075723830735,0.0949160784065684
0.066815144766147,0.1497113083919878
0.1002227171492205,0.175205793027968
0.133630289532294,0.1720054851292609
0.1670378619153675,0.15072809228711542
0.200445434298441,0.12619647868049627
0.23385300668151449,0.11029250738677364
0.267260579064588,0.10695447395028153
0.3006681514476615,0.11147982430656127
0.334075723830735,0.11402324534598017
0.3674832962138085,0.10518597203038363
0.400890868596882,0.08083473278906798
0.4342984409799555,0.0439893067727221
0.46770601336302897,0.0032455350325745007
0.5011135857461025,-0.031143391993922052
0.534521158129176,-0.05149232894249116
0.5679287305122495,-0.055324375666774644
0.601336302895323,-0.0455205889725005
0.6347438752783965,-0.02833337007568894
0.66815144766147,-0.010517943310284147
0.7015590200445435,0.003007139337521302
0.734966592427617,0.01010731414101844
0.7683741648106905,0.010975241075283528
0.801781737193764,0.006918480831832029
0.8351893095768375,-0.0007850402982758895
0.868596881959911,-0.011421411601284124
0.9020044543429845,-0.024699480937628724
0.9354120267260579,-0.04025248829945958
0.9688195991091315,-0.057227365186163705
1.002227171492205,-0.07427048014449826
1.0356347438752784,-0.08993148657639491
1.069042316258352,-0.10322890007979953
1.1024498886414256,-0.11399887948648824
1.135857461024499,-0.12275655485882446
1.1692650334075725,-0.1300922010444262
1.202672605790646,-0.1359391654605208
1.2360801781737194,-0.13918383555402014
1.269487750556793,-0.13793000683563755
1.3028953229398665,-0.13035543011088113
1.33630289532294,-0.1157316710792727
1.3697104677060135,-0.09504690945922196
1.403118040089087,-0.07085561784109848
1.4365256124721606,-0.04637006107449225
1.469933184855234,-0.024187965461515748
1.5033407572383075,-0.0052261364165158515
1.536748329621381,0.01166729802147275
1.5701559020044544,0.029250864653161415
1.603563474387528,0.0507639597782149
1.6369710467706016,0.07858136580063256
1.670378619153675,0.11314866867834128
1.7037861915367485,0.15254200542508234
1.737193763919822,0.192716250959139
1.7706013363028954,0.22826323286889644
1.804008908685969,0.2534250605711218
1.8374164810690425,0.2631948902366415
1.8708240534521159,0.2544463427731519
1.9042316258351895,0.227002889714918
1.937639198218263,0.18437134329843358
1.9710467706013366,0.13369098175885769
2.00445434298441,0.08452465695767816
2.0378619153674835,0.04652500820920812
2.071269487750557,0.02657810677400798
2.1046770601336307,0.026432330019287294
2.138084632516704,0.04180046068856426
2.1714922048997773,0.06344699529055209
2.204899777282851,0.08004048195521178
2.2383073496659245,0.08186519526353471
2.271714922048998,0.06411073013136162
2.3051224944320716,0.028533853903253435
2.338530066815145,-0.017190938482872474
2.3719376391982183,-0.06229896138974495
2.405345211581292,-0.09696908408254774
2.4387527839643655,-0.11605345855371657
2.472160356347439,-0.12101101453189173
2.5055679287305126,-0.11919373585383115
2.538975501113586,-0.12070225658907195
2.5723830734966593,-0.13409153244364616
2.605790645879733,-0.1627709960788123
2.6391982182628064,-0.20368906045376103
2.67260579064588,-0.2488758703574114
2.7060133630289536,-0.2890836579274513
2.739420935412027,-0.31774528731912505
2.7728285077951007,-0.3332927847101436
2.806236080178174,-0.3386888714056318
2.8396436525612474,-0.33848887424120316
2.873051224944321,-0.33514614516535157
2.9064587973273945,-0.32681655301153184
2.939866369710468,-0.30819420758666966
2.9732739420935417,-0.27418965499500547
3.006681514476615,-0.22443399429967992
3.0400890868596884,-0.16572046995498368
3.073496659242762,-0.11022147068724061
3.1069042316258355,-0.06947181144588396
3.140311804008909,-0.046711892340253976
3.1737193763919826,-0.03185767586831261
3.207126948775056,-0.0029625211496662023
3.2405345211581293,0.06472335203604067
3.273942093541203,0.18516955138412547
3.3073496659242765,0.3501391431481647
3.34075723830735,0.5273693275309171
3.3741648106904236,0.6724143894650235
3.407572383073497,0.7513504904876901
3.4409799554565703,0.7642084711052994
3.474387527839644,0.7553901138893979
3.5077951002227175,0.8006930279077015
3.541202672605791,0.9709817536163832
3.5746102449888646,1.2859034165883467
3.608017817371938,1.6804088834742343
3.6414253897550113,2.0058017485057458
3.674832962138085,2.0736931427576515
3.7082405345211584,1.73040596123235
3.7416481069042318,0.9312404233986965
3.7750556792873056,-0.2208208401312843
3.808463251670379,-1.4942497977357736
3.8418708240534527,-2.602195753241142
3.875278396436526,-3.300156797070332
3.9086859688195994,-3.46660861927042
3.942093541202673,-3.133647326978149
3.9755011135857465,-2.458705738435079
4.00890868596882,-1.654846043231397
4.042316258351893,-0.9128102881123438
4.075723830734967,-0.3466776383055611
4.109131403118041,0.020322520859599395
4.142538975501114,0.23320187950598653
4.1759465478841875,0.36373802502381924
4.209354120267261,0.4717309668887266
4.242761692650334,0.5840308529982785
4.276169265033408,0.6948786550995888
4.309576837416482,0.7810205843098592
4.342984409799555,0.8205356766248049
4.3763919821826285,0.8058696992806612
4.409799554565702,0.746804651485046
4.443207126948775,0.6646527795973827
4.476614699331849,0.5823626221514884
4.510022271714923,0.5156969551882448
4.543429844097996,0.4689016070309629
4.5768374164810695,0.4356953660450209
4.610244988864143,0.40419421039499387
4.643652561247216,0.3632009284243542
4.67706013363029,0.30724698125371874
4.710467706013364,0.23861539771898999
4.743875278396437,0.16589396630248313
4.77728285077951,0.09995269287255971
4.810690423162584,0.04917353111405312
4.844097995545657,0.01596192373192414
4.877505567928731,-0.004045285435574849
4.910913140311805,-0.01985486243752366
4.944320712694878,-0.041117697275566724
4.977728285077951,-0.07406207833420071
5.011135857461025,-0.11909208003559817
5.044543429844098,-0.1709397023356037
5.077951002227172,-0.2210863396742135
5.111358574610246,-0.2612294064154679
5.144766146993319,-0.2862593521263762
5.178173719376392,-0.2955945738093266
5.211581291759466,-0.29255213987442974
5.244988864142539,-0.2823097563450274
5.278396436525613,-0.2695581105364479
5.311804008908687,-0.2569329774603903
5.34521158129176,-0.24478398834349713
5.378619153674833,-0.2320677006978383
5.412026726057907,-0.21756602582816637
5.445434298440981,-0.2005565179179489
5.478841870824054,-0.18053576110234212
5.512249443207128,-0.15632728475837268
5.545657015590201,-0.12543207144309776
5.579064587973274,-0.08445144593671904
5.612472160356348,-0.030798566373419465
5.645879732739422,0.03496187621023017
5.679287305122495,0.10743477704625701
5.712694877505569,0.17662190546346349
5.746102449888642,0.2304988355039541
5.779510022271715,0.2591707033497695
5.812917594654789,0.2588463267343784
5.846325167037863,0.23370002794903078
5.879732739420936,0.19453376358344263
5.91314031180401,0.15464121848380175
5.946547884187083,0.12465067309566005
5.979955456570156,0.10865548450843282
6.01336302895323,0.10334548975158006
6.046770601336304,0.10043667678072088
6.080178173719377,0.09116964015748008
6.1135857461024505,0.07074098808105185
6.146993318485524,0.040646873413586124
6.180400890868597,0.00795742416198547
6.213808463251671,-0.018019855423748184
6.247216035634745,-0.03007807063315255
6.280623608017818,-0.026486786551645825
6.3140311804008915,-0.01197702194482045
6.347438752783965,0.004003914958152872
6.380846325167038,0.010995942585397071
6.414253897550112,0.001718191253884215
6.447661469933186,-0.024837389721806654
6.481069042316259,-0.06259735219532235
6.5144766146993325,-0.10030985539231382
6.547884187082406,-0.1256416330722312
6.581291759465479,-0.13005350159293455
6.614699331848553,-0.11252906815279778
6.648106904231627,-0.0804534460579093
6.6815144766147,-0.04698849873558033
6.7149220489977735,-0.02581906220463981
6.748329621380847,-0.0254420983604001
6.78173719376392,-0.04553725231615857
6.815144766146994,-0.07711699866491592
6.848552338530068,-0.10645004385155357
6.881959910913141,-0.1209935973073903
6.915367483296214,-0.11462591711643885
6.948775055679288,-0.08981385560074026
6.982182628062361,-0.0558143866429918
7.015590200445435,-0.023878070684285595
7.048997772828509,-0.0018005572622454304
7.082405345211582,0.009581554714966066
7.115812917594655,0.016329203537576085
7.149220489977729,0.02788950772427058
7.182628062360802,0.05193545818585702
7.216035634743876,0.09017327088191227
7.24944320712695,0.13723771773873622
7.282850779510023,0.18318467378188605
7.316258351893096,0.21818106142032428
7.34966592427617,0.23683150631781733
7.383073496659243,0.23984043447505632
7.416481069042317,0.23224806586786234
7.449888641425391,0.21940756039416645
7.4832962138084635,0.2030945777061221
7.516703786191537,0.18002016389343103
7.550111358574611,0.1436889794906147
7.583518930957685,0.08874944396454532
7.616926503340758,0.01561623269970426
7.650334075723832,-0.06715690188470691
7.683741648106905,-0.14435716584285205
7.717149220489978,-0.19926321494112736
7.750556792873052,-0.22040003912767353
7.783964365256126,-0.20677883826031943
7.817371937639199,-0.16894672865653682
7.850779510022273,-0.1250791077805946
7.884187082405346,-0.09383351275910944
7.917594654788419,-0.08738647863220463
7.951002227171493,-0.10794501553987094
7.984409799554567,-0.14903809634465834
8.01781737193764,-0.20017121831887646
8.051224944320714,-0.25161094160100644
8.084632516703786,-0.29631331322054855
8.118040089086861,-0.3282228803406908
8.151447661469934,-0.3389673716884945
8.184855233853007,-0.3164852617707965
8.218262806236082,-0.24817381370092573
8.251670378619155,-0.12811038103903832
8.285077951002227,0.03537946840639695
8.318485523385302,0.21683976907254163
8.351893095768375,0.3787151988041786
8.385300668151448,0.48339939488516037
8.418708240534523,0.50730902330954
8.452115812917596,0.45039239363063177
8.485523385300668,0.3364170032953874
8.518930957683743,0.2038112976470222
8.552338530066816,0.09130601936591787
8.585746102449889,0.02476318995758915
8.619153674832964,0.010468908677902698
8.652561247216036,0.036691358508248145
8.68596881959911,0.08147454885941337
8.719376391982184,0.12235050450543553
8.752783964365257,0.1437295446230969
8.78619153674833,0.13968394764297362
8.819599109131405,0.11237292111704443
8.853006681514477,0.06816039393151588
8.88641425389755,0.013883930252288049
8.919821826280625,-0.045105126093978834
8.953229398663698,-0.10488450190039776
8.98663697104677,-0.16175506061359848
9.020044543429846,-0.21112768182405323
9.053452115812918,-0.24737946945123282
9.086859688195991,-0.2648303807808746
9.120267260579066,-0.25937309235527833
9.153674832962139,-0.23005108412169906
9.187082405345212,-0.17999720676359118
9.220489977728286,-0.11641189784145654
9.25389755011136,-0.04950446833768398
9.287305122494432,0.009479217560413842
9.320712694877507,0.05079716950271064
9.35412026726058,0.06872224041013844
9.387527839643653,0.06326138713197235
9.420935412026727,0.04040367104068799
9.4543429844098,0.010607837110422357
9.487750556792873,-0.014171442901987918
9.521158129175948,-0.024064923227114517
9.55456570155902,-0.014339700825126941
9.587973273942094,0.013100705553155978
9.621380846325168,0.05029978385650223
9.654788418708241,0.08576819298461826
9.688195991091314,0.1081629222718371
9.721603563474389,0.10996673398498705
9.755011135857462,0.08998598820362415
9.788418708240535,0.05382923476892626
9.82182628062361,0.012156539350238962
9.855233853006682,-0.022778400703197015
9.888641425389755,-0.0411756486535656
9.92204899777283,-0.03896567294016461
9.955456570155903,-0.01916489058084672
9.988864142538976,0.009230696023898359
10.02227171492205,0.03452154081672631
10.055679287305123,0.04665209197076142
10.089086859688196,0.04103200863570303
10.12249443207127,0.020283053504198848
10.155902004454344,-0.0069379391471429235
10.189309576837417,-0.029707221599354273
10.222717149220491,-0.039655341570007975
10.256124721603564,-0.03467817834478329
10.289532293986637,-0.01974948599054173
10.322939866369712,-0.0043526696099356
10.356347438752785,0.0023138574038981223
10.389755011135858,-0.003930829008434388
10.423162583518932,-0.0198975094194592
10.456570155902005,-0.036255841888435066
10.489977728285078,-0.04182721048217013
10.523385300668153,-0.02894455373499514
10.556792873051226,0.0026276745327885403
10.590200445434299,0.04501552388223005
10.623608017817373,0.0850553568788523
10.657015590200446,0.109280394643837
10.69042316258352,0.10889812731368359
10.723830734966594,0.08280532109298079
10.757238307349667,0.03770936010926769
10.790645879732741,-0.014367321659123614
10.824053452115814,-0.060071692015494366
10.857461024498887,-0.08877985967037691
10.890868596881962,-0.09550676553894616
10.924276169265035,-0.08191179631860293
10.957683741648108,-0.055252331075273685
10.991091314031182,-0.025757031809280063
11.024498886414255,-0.0033588010614393573
11.057906458797328,0.005144940325675828
11.091314031180403,-0.0022747356103999957
11.124721603563476,-0.022680367633240068
11.158129175946549,-0.04914276596547601
11.191536748329623,-0.07245381062747204
11.224944320712696,-0.08326977067382749
11.25835189309577,-0.07451835038031004
11.291759465478844,-0.04377429587337684
11.325167037861917,0.005074654705805496
11.35857461024499,0.0618222864179773
11.391982182628064,0.11227052002393015
11.425389755011137,0.142617256681823
11.45879732739421,0.14445007466603554
11.492204899777285,0.11821216223760708
11.525612472160358,0.0734021696556275
11.55902004454343,0.025177467969234
11.592427616926505,-0.01127434761388346
11.625835189309578,-0.026197629375121444
11.659242761692651,-0.018350986562329683
11.692650334075726,0.005286561972221269
11.726057906458799,0.03267941242990848
11.759465478841872,0.05124699343046673
11.792873051224946,0.05200854559358128
11.82628062360802,0.03211470415101486
11.859688195991092,-0.00474551943099248
11.893095768374167,-0.04989404210320599
11.92650334075724,-0.09251317618300467
11.959910913140313,-0.12286604717447645
11.993318485523387,-0.13491698842327235
12.02672605790646,-0.1276029381061166
12.060133630289533,-0.10447414263355992
12.093541202672608,-0.07200053577610462
12.12694877505568,-0.03730102808514296
12.160356347438753,-0.0061866067617094905
12.193763919821828,0.017851726893013734
12.227171492204901,0.03359878073704972
12.260579064587974,0.04140470625124681
12.293986636971049,0.042411806270370604
12.327394209354122,0.03815365439943774
12.360801781737194,0.030554778483568686
12.39420935412027,0.022000211668482615
12.427616926503342,0.015073938734137399
12.461024498886415,0.011831666512599233
12.49443207126949,0.012905175647538318
12.527839643652563,0.017035063471498583
12.561247216035635,0.021541732331350927
12.59465478841871,0.023738578393463185
12.628062360801783,0.022632298583872168
12.661469933184856,0.01988526638268454
12.69487750556793,0.01926421342511768
12.728285077951004,0.024619150842058336
12.761692650334076,0.037368569781766545
12.795100222717151,0.05491238622869547
12.828507795100224,0.07101397383359856
12.861915367483297,0.07815872802004459
12.895322939866372,0.0708014742124247
12.928730512249444,0.04789937438903972
12.962138084632517,0.01348466567253989
12.995545657015592,-0.024950274267830287
13.028953229398665,-0.05937639806612448
13.062360801781738,-0.08398526220301536
13.095768374164813,-0.09652663711178604
13.129175946547885,-0.09786201891867227
13.162583518930958,-0.09039282147246555
13.195991091314033,-0.07655380270005963
13.229398663697106,-0.05827584709172121
13.262806236080179,-0.03743902273318291
13.296213808463254,-0.016513139053532137
13.329621380846326,0.0015502118243655393
13.3630289532294,0.01443561458569342
13.396436525612474,0.021887020869764594
13.429844097995547,0.02624597951552294
13.46325167037862,0.03134537420266275
13.496659242761694,0.04010048423276273
13.530066815144767,0.052155467331249546
13.56347438752784,0.06314595582707984
13.596881959910915,0.06632647453289718
13.630289532293988,0.05594207368750748
13.66369710467706,0.030619349600942973
13.697104677060135,-0.005107127719728156
13.730512249443208,-0.042102907909638054
13.763919821826281,-0.07025645273195429
13.797327394209356,-0.08265906664046833
13.830734966592429,-0.07827804148304063
13.864142538975502,-0.06184065061550332
13.897550111358576,-0.04108459383331762
13.93095768374165,-0.02285885705587611
13.964365256124722,-0.010089541359439678
13.997772828507797,-0.0011011130752280251
14.03118040089087,0.008497299917130947
14.064587973273943,0.02250110849099793
14.097995545657017,0.04122871974401804
14.13140311804009,0.060648024895798215
14.164810690423163,0.07400033932565386
14.198218262806238,0.07509262633969625
14.23162583518931,0.06156326127332593
14.265033407572384,0.03644784492163532
14.298440979955458,0.007249275836982137
14.331848552338531,-0.017025664460795415
14.365256124721604,-0.02942618390740837
14.398663697104679,-0.02756973183786302
14.432071269487752,-0.014072699004365983
14.465478841870825,0.005083054691508849
14.4988864142539,0.023294228976553113
14.532293986636972,0.035845566562982774
14.565701559020045,0.041105285973390214
14.59910913140312,0.040046802034675213
14.632516703786193,0.0345472165431045
14.665924276169266,0.025475192215870697
14.69933184855234,0.011689296654765965
14.732739420935413,-0.009334783143450502
14.766146993318486,-0.03934531496858985
14.79955456570156,-0.07665246450696898
14.832962138084634,-0.1145620560186919
14.866369710467707,-0.142264165956168
14.899777282850781,-0.14840366561387155
14.933184855233854,-0.12602482157004544
14.966592427616927,-0.0765230324506901
15.0,-0.010397184045602163
