Time (s),Filtered Signal
0.0,0.008648880719299371
0.0334075723830735,-0.18702562760789132
0.066815144766147,-0.3697023963538292
0.1002227171492205,-0.5194012895804748
0.133630289532294,-0.6086869204075293
0.1670378619153675,-0.6111559621546205
0.200445434298441,-0.5147945745855969
0.23385300668151449,-0.33236311615544756
0.267260579064588,-0.10189069681162329
0.3006681514476615,0.12443163872732163
0.334075723830735,0.29828793926640634
0.3674832962138085,0.39171451194891693
0.400890868596882,0.40438739247230837
0.4342984409799555,0.35897336298338167
0.46770601336302897,0.28783298356881687
0.5011135857461025,0.21825138914394812
0.534521158129176,0.16325077423321352
0.5679287305122495,0.12136692266308552
0.601336302895323,0.08383776491041324
0.6347438752783965,0.0441379568372354
0.66815144766147,0.004314229727443419
0.7015590200445435,-0.02502349901868662
0.734966592427617,-0.030515449961220638
0.7683741648106905,-0.004166510650108203
0.801781737193764,0.050635450313501286
0.8351893095768375,0.11827449161698282
0.868596881959911,0.17568256651458347
0.9020044543429845,0.2005925113004464
0.9354120267260579,0.17969020391249033
0.9688195991091315,0.11329140660678626
1.002227171492205,0.014770243123884981
1.0356347438752784,-0.09479545964896784
1.069042316258352,-0.1943639474004861
1.1024498886414256,-0.269796754998406
1.135857461024499,-0.3171338258514935
1.1692650334075725,-0.3412548128216129
1.202672605790646,-0.35102370629984575
1.2360801781737194,-0.35357930523325276
1.269487750556793,-0.35066803991897977
1.3028953229398665,-0.3386732614357661
1.33630289532294,-0.31192707319772706
1.3697104677060135,-0.2671375696593554
1.403118040089087,-0.2062971769701191
1.4365256124721606,-0.13646620157101827
1.469933184855234,-0.06668368396398316
1.5033407572383075,-0.0038398788192847595
1.536748329621381,0.050214965387596955
1.5701559020044544,0.09889349936502403
1.603563474387528,0.14851584667278697
1.6369710467706016,0.20474079602957618
1.670378619153675,0.2695098745089011
1.7037861915367485,0.3396475310733432
1.737193763919822,0.40727556050273334
1.7706013363028954,0.461491260311879
1.804008908685969,0.4906549439757476
1.8374164810690425,0.48492718972070664
1.8708240534521159,0.4388883497165325
1.9042316258351895,0.35383560420915783
1.937639198218263,0.23886408745153567
1.9710467706013366,0.10968428876879528
2.00445434298441,-0.01519932108295567
2.0378619153674835,-0.1199552977757641
2.071269487750557,-0.19630986474378675
2.1046770601336307,-0.2454884312185496
2.138084632516704,-0.27613713420282054
2.1714922048997773,-0.29916561152332594
2.204899777282851,-0.3219809045301081
2.2383073496659245,-0.3447470911333993
2.271714922048998,-0.3601537067628824
2.3051224944320716,-0.356508677954027
2.338530066815145,-0.3226811986828136
2.3719376391982183,-0.2529485375783039
2.405345211581292,-0.1500758087925091
2.4387527839643655,-0.025675747953237738
2.472160356347439,0.10221875909516012
2.5055679287305126,0.21359106868221472
2.538975501113586,0.2915151390235302
2.5723830734966593,0.32635551328013473
2.605790645879733,0.3179363134870358
2.6391982182628064,0.27518940102759915
2.67260579064588,0.21347161627851513
2.7060133630289536,0.15024597695637346
2.739420935412027,0.10016108663216468
2.7728285077951007,0.07080243401979866
2.806236080178174,0.06045421355734778
2.8396436525612474,0.058875386479742095
2.873051224944321,0.05120675834865655
2.9064587973273945,0.023869791124143922
2.939866369710468,-0.029749310892985832
2.9732739420935417,-0.10625798670982121
3.006681514476615,-0.1933387454134425
3.0400890868596884,-0.2746214863318492
3.073496659242762,-0.3361898721146378
3.1069042316258355,-0.37169953810690215
3.140311804008909,-0.3837127762368988
3.1737193763919826,-0.3807183825725455
3.207126948775056,-0.37145639320543267
3.2405345211581293,-0.3594735502740635
3.273942093541203,-0.34062042661934355
3.3073496659242765,-0.30461963963345595
3.34075723830735,-0.2397661751689546
3.3741648106904236,-0.13836525144133
3.407572383073497,-0.00038694516641430007
3.4409799554565703,0.16601502279227093
3.474387527839644,0.34674318283194794
3.5077951002227175,0.5250857074702292
3.541202672605791,0.6843133360085637
3.5746102449888646,0.8087213320235325
3.608017817371938,0.8837575799817103
3.6414253897550113,0.8967945644598321
3.674832962138085,0.8397373505448663
3.7082405345211584,0.7130772003221777
3.7416481069042318,0.529183537436906
3.7750556792873056,0.3119752872540668
3.808463251670379,0.09148470913962253
3.8418708240534527,-0.10526575973894711
3.875278396436526,-0.2629750453525992
3.9086859688195994,-0.381742307093717
3.942093541202673,-0.47339685061990516
3.9755011135857465,-0.5521169872822587
4.00890868596882,-0.6242697190811028
4.042316258351893,-0.6830599577810581
4.075723830734967,-0.7111327448624255
4.109131403118041,-0.6900051127916274
4.142538975501114,-0.6114181711093182
4.1759465478841875,-0.48447412983584803
4.209354120267261,-0.3344816892368714
4.242761692650334,-0.19372343135532966
4.276169265033408,-0.08859368346877236
4.309576837416482,-0.029450844267870563
4.342984409799555,-0.0080622946529274
4.3763919821826285,-0.003516492388017885
4.409799554565702,0.006838387175702308
4.443207126948775,0.03713575997098543
4.476614699331849,0.08821430058197488
4.510022271714923,0.14980030016211648
4.543429844097996,0.20744675211680963
4.5768374164810695,0.25003863279508765
4.610244988864143,0.2741773905448437
4.643652561247216,0.28403053529956845
4.67706013363029,0.2877213769732861
4.710467706013364,0.2927127540562404
4.743875278396437,0.30249236649893857
4.77728285077951,0.31568241775130645
4.810690423162584,0.327345226729484
4.844097995545657,0.331421216212322
4.877505567928731,0.3231121003466927
4.910913140311805,0.30038666379656603
4.944320712694878,0.264282218400141
4.977728285077951,0.2180780726276266
5.011135857461025,0.16570366492437366
5.044543429844098,0.10995572406009407
5.077951002227172,0.05120105301288936
5.111358574610246,-0.012860306765833975
5.144766146993319,-0.08612210136175881
5.178173719376392,-0.17188060986889753
5.211581291759466,-0.27014110226713844
5.244988864142539,-0.375378847185885
5.278396436525613,-0.4758860845931189
5.311804008908687,-0.5556241416991232
5.34521158129176,-0.5986543877002626
5.378619153674833,-0.5948360561044458
5.412026726057907,-0.5442322068398268
5.445434298440981,-0.45755058609888183
5.478841870824054,-0.35153259283971544
5.512249443207128,-0.24098501229208052
5.545657015590201,-0.1315858411706614
5.579064587973274,-0.017965544756839223
5.612472160356348,0.11086138838775468
5.645879732739422,0.26088081750958886
5.679287305122495,0.4231206919789974
5.712694877505569,0.5708501471739522
5.746102449888642,0.6671742906653562
5.779510022271715,0.6805550241336749
5.812917594654789,0.6008291971307832
5.846325167037863,0.44713097287562037
5.879732739420936,0.2627279707257791
5.91314031180401,0.09835394301639314
5.946547884187083,-0.00838795161239452
5.979955456570156,-0.04781167120839007
6.01336302895323,-0.040165993682247055
6.046770601336304,-0.02413105971392353
6.080178173719377,-0.03746521276395877
6.1135857461024505,-0.0989784177379185
6.146993318485524,-0.20007125210843898
6.180400890868597,-0.3093669655724669
6.213808463251671,-0.38782567572456683
6.247216035634745,-0.4070086710927039
6.280623608017818,-0.3619417520953911
6.3140311804008915,-0.2727753281846721
6.347438752783965,-0.17481768749707471
6.380846325167038,-0.10196934518383309
6.414253897550112,-0.07151645986468702
6.447661469933186,-0.07729415610287754
6.481069042316259,-0.09399137442331451
6.5144766146993325,-0.09005401003765244
6.547884187082406,-0.042895631777915326
6.581291759465479,0.05040520167940391
6.614699331848553,0.17117867573745174
6.648106904231627,0.2862004097880637
6.6815144766147,0.3602952505487507
6.7149220489977735,0.36933809592819444
6.748329621380847,0.3088363804678936
6.78173719376392,0.19528997004294835
6.815144766146994,0.06031475716900775
6.848552338530068,-0.05992494211970027
6.881959910913141,-0.1359961776974944
6.915367483296214,-0.15335291326969255
6.948775055679288,-0.1150427361279441
6.982182628062361,-0.038772273718338
7.015590200445435,0.049992774892597305
7.048997772828509,0.12622289840929704
7.082405345211582,0.17218398582327507
7.115812917594655,0.18117214212227928
7.149220489977729,0.15755002130581602
7.182628062360802,0.11365128388502516
7.216035634743876,0.06487554304653273
7.24944320712695,0.024556767550872816
7.282850779510023,2.0198250935830978e-05
7.316258351893096,-0.009204908276930978
7.34966592427617,-0.01064595354365054
7.383073496659243,-0.015910525467005877
7.416481069042317,-0.03638716917812937
7.449888641425391,-0.07895354545033384
7.4832962138084635,-0.14303225877282955
7.516703786191537,-0.21988313664719072
7.550111358574611,-0.29429930874139815
7.583518930957685,-0.3482165273230642
7.616926503340758,-0.3653681741926863
7.650334075723832,-0.33597155169595877
7.683741648106905,-0.26032945092938586
7.717149220489978,-0.15015159918160437
7.750556792873052,-0.026608692115073974
7.783964365256126,0.0850525956577203
7.817371937639199,0.16311955476680712
7.850779510022273,0.19666523711960093
7.884187082405346,0.18937522552487476
7.917594654788419,0.1578586003914652
7.951002227171493,0.12459494693257762
7.984409799554567,0.10819703950995696
8.01781737193764,0.11519322780766088
8.051224944320714,0.1371640818022191
8.084632516703786,0.15482936450136484
8.118040089086861,0.1475456642288411
8.151447661469934,0.10409245586715264
8.184855233853007,0.029817363249024963
8.218262806236082,-0.05340103820122879
8.251670378619155,-0.11489344355527299
8.285077951002227,-0.12778295656358152
8.318485523385302,-0.0812463980890657
8.351893095768375,0.012927028011113026
8.385300668151448,0.12279975508977886
8.418708240534523,0.20748513973386035
8.452115812917596,0.23304585884390017
8.485523385300668,0.18673089975800178
8.518930957683743,0.0833960068986864
8.552338530066816,-0.03916927860776445
8.585746102449889,-0.13473049472056428
8.619153674832964,-0.16726528332336088
8.652561247216036,-0.1259577645169426
8.68596881959911,-0.02991674612094463
8.719376391982184,0.07966731969000981
8.752783964365257,0.15661627086676308
8.78619153674833,0.16856813679106922
8.819599109131405,0.10920901186388877
8.853006681514477,-0.0011461769173178869
8.88641425389755,-0.12611817137618042
8.919821826280625,-0.2293253228599972
8.953229398663698,-0.2881803496823936
8.98663697104677,-0.2995014377873216
9.020044543429846,-0.27561079164771957
9.053452115812918,-0.23434945969715404
9.086859688195991,-0.18889867480411698
9.120267260579066,-0.14248508855487974
9.153674832962139,-0.08983201927629206
9.187082405345212,-0.02359194685600217
9.220489977728286,0.05819644258299409
9.25389755011136,0.14757854387767322
9.287305122494432,0.22727316561923608
9.320712694877507,0.27614655463205134
9.35412026726058,0.27729644227538414
9.387527839643653,0.22545100380204317
9.420935412026727,0.13058619003146527
9.4543429844098,0.015974625973612603
9.487750556792873,-0.08905072328466417
9.521158129175948,-0.15912364073436608
9.55456570155902,-0.18167279430194713
9.587973273942094,-0.16062501790585862
9.621380846325168,-0.11302517633932554
9.654788418708241,-0.05988278260698963
9.688195991091314,-0.015596685227515849
9.721603563474389,0.01862188091640651
9.755011135857462,0.0536894008255415
9.788418708240535,0.10425005238668406
9.82182628062361,0.17729039193111604
9.855233853006682,0.2640524595556977
9.888641425389755,0.3401441130712312
9.92204899777283,0.37462864368014676
9.955456570155903,0.34411302089396006
9.988864142538976,0.24496425697550106
10.02227171492205,0.09737790228018837
10.055679287305123,-0.06110599322339713
10.089086859688196,-0.18986853412239357
10.12249443207127,-0.26069519997262736
10.155902004454344,-0.2674367352951921
10.189309576837417,-0.2258083059903136
10.222717149220491,-0.16413348703647657
10.256124721603564,-0.11004379641689359
10.289532293986637,-0.07966671080406199
10.322939866369712,-0.07406436044754566
10.356347438752785,-0.08366170010601394
10.389755011135858,-0.09724394806524092
10.423162583518932,-0.10993693822377176
10.456570155902005,-0.12549158992715317
10.489977728285078,-0.15165643763295306
10.523385300668153,-0.19156769260159134
10.556792873051226,-0.23664246466238875
10.590200445434299,-0.26595619771289464
10.623608017817373,-0.2536729492035358
10.657015590200446,-0.18153591464007152
10.69042316258352,-0.05018786420719973
10.723830734966594,0.11695491795094097
10.757238307349667,0.2801847314242532
10.790645879732741,0.3980955374295612
10.824053452115814,0.4437802491656644
10.857461024498887,0.4150717815830723
10.890868596881962,0.3340664556538281
10.924276169265035,0.23637966393459642
10.957683741648108,0.15546525320300073
10.991091314031182,0.10937932314466374
11.024498886414255,0.09568576484732513
11.057906458797328,0.09588314456842884
11.091314031180403,0.08615925145384846
11.124721603563476,0.04876575294875291
11.158129175946549,-0.021107241741027637
11.191536748329623,-0.11506726761638841
11.224944320712696,-0.2164292824753252
11.25835189309577,-0.3067221545403093
11.291759465478844,-0.37040725789769435
11.325167037861917,-0.39645258524782445
11.35857461024499,-0.3777859184925461
11.391982182628064,-0.3108533258423036
11.425389755011137,-0.19686286358757255
11.45879732739421,-0.04437005119046998
11.492204899777285,0.12889660298789685
11.525612472160358,0.2973204210391012
11.55902004454343,0.4325815998491334
11.592427616926505,0.5111434664168585
11.625835189309578,0.5208110012557813
11.659242761692651,0.4633674784414041
11.692650334075726,0.35228987863390865
11.726057906458799,0.2070768649670509
11.759465478841872,0.047261585944122976
11.792873051224946,-0.11114440445901584
11.82628062360802,-0.2559021544708832
11.859688195991092,-0.37677018792825767
11.893095768374167,-0.4640328874229046
11.92650334075724,-0.5090019964355819
11.959910913140313,-0.5063498519768813
11.993318485523387,-0.4565236818993194
12.02672605790646,-0.36628339697984197
12.060133630289533,-0.24676321626290246
12.093541202672608,-0.11034765387491735
12.12694877505568,0.03140628587666888
12.160356347438753,0.16738790581841848
12.193763919821828,0.28475683253260303
12.227171492204901,0.3674731356058525
12.260579064587974,0.39818202638009004
12.293986636971049,0.36419152348182343
12.327394209354122,0.2653425512090687
12.360801781737194,0.11943745241817366
12.39420935412027,-0.038911087279809985
12.427616926503342,-0.1673697853389382
12.461024498886415,-0.23018128493362747
12.49443207126949,-0.2117215926896205
12.527839643652563,-0.12296151893078518
12.561247216035635,0.0026199038478704954
12.59465478841871,0.12223473771331728
12.628062360801783,0.20032297591186676
12.661469933184856,0.2211502877175034
12.69487750556793,0.19225158705085016
12.728285077951004,0.13793721514419185
12.761692650334076,0.08656833703977572
12.795100222717151,0.05774339210667678
12.828507795100224,0.05500471156894527
12.861915367483297,0.06670123581617209
12.895322939866372,0.07376933615833385
12.928730512249444,0.060202044975102384
12.962138084632517,0.021119501496968493
12.995545657015592,-0.035146872557272474
13.028953229398665,-0.09152586397563847
13.062360801781738,-0.1307301029956494
13.095768374164813,-0.1435935649226389
13.129175946547885,-0.13328774851245706
13.162583518930958,-0.11356142280411503
13.195991091314033,-0.10197140651512322
13.229398663697106,-0.11134292271318054
13.262806236080179,-0.14343587575828431
13.296213808463254,-0.18771050724839994
13.329621380846326,-0.22568019115079405
13.3630289532294,-0.23870945405111402
13.396436525612474,-0.21553361164228077
13.429844097995547,-0.15608414368694332
13.46325167037862,-0.07027653135488292
13.496659242761694,0.02690289808631951
13.530066815144767,0.1209581565369128
13.56347438752784,0.20126696810761083
13.596881959910915,0.26134218845793455
13.630289532293988,0.297197040473146
13.66369710467706,0.30601606900080514
13.697104677060135,0.28655918761037846
13.730512249443208,0.24093001229355437
13.763919821826281,0.17595629110873634
13.797327394209356,0.10251500332285486
13.830734966592429,0.032592718709939725
13.864142538975502,-0.02442803415261703
13.897550111358576,-0.06410831621283761
13.93095768374165,-0.0866399425840334
13.964365256124722,-0.09436635259900984
13.997772828507797,-0.08903936838729173
14.03118040089087,-0.07082551788122785
14.064587973273943,-0.039839325089226746
14.097995545657017,0.0007692235950623505
14.13140311804009,0.0422962075078101
14.164810690423163,0.07052651910819215
14.198218262806238,0.06904382572723214
14.23162583518931,0.024855352636441858
14.265033407572384,-0.06574654400293725
14.298440979955458,-0.19328713336586179
14.331848552338531,-0.3346699029336542
14.365256124721604,-0.456691106271118
14.398663697104679,-0.5231242242006368
14.432071269487752,-0.5042233104722842
14.465478841870825,-0.3866289092896827
14.4988864142539,-0.1807535724586464
14.532293986636972,0.07764519454162344
14.565701559020045,0.3340241790478973
14.59910913140312,0.5294262951936941
14.632516703786193,0.6187775533662341
14.665924276169266,0.586450160524233
14.69933184855234,0.45230244954343624
14.732739420935413,0.26467361981768067
14.766146993318486,0.08238699482564749
14.79955456570156,-0.04693088697173714
14.832962138084634,-0.10281656141569118
14.866369710467707,-0.0952990013814359
14.899777282850781,-0.054718534315497135
14.933184855233854,-0.013756267641737546
14.966592427616927,0.008925067442994435
15.0,0.01522632164434133
