Frequency (Hz),Amplitude
0.0,5.082584186315765
0.020066889632107024,5.080065968803924
0.04013377926421405,5.072513810793775
0.060200668896321065,5.05993519340165
0.0802675585284281,5.042342576958153
0.10033444816053512,5.019753388722415
0.12040133779264213,4.992190005700369
0.14046822742474915,4.959679732585533
0.1605351170568562,4.922254774845901
0.1806020066889632,4.87995220698608
0.20066889632107024,4.832813936019141
0.22073578595317725,4.780886660188228
0.24080267558528426,4.724221822983512
0.2608695652173913,4.6628755625060405
0.2809364548494983,4.596908656235924
0.3010033444816054,4.526386461268662
0.3210702341137124,4.451378850090179
0.34113712374581934,4.371960141968297
0.3612040133779264,4.288209030046382
0.3812709030100334,4.200208504233807
0.4013377926421405,4.108045769997987
0.42140468227424743,4.011812163174818
0.4414715719063545,3.911603060928638
0.4615384615384615,3.8075177890105905
0.4816053511705685,3.6996595254865703
0.5016722408026756,3.588135201135023
0.5217391304347826,3.4730553967529434
0.5418060200668896,3.354534237660401
0.5618729096989966,3.2326892857651215
0.5819397993311036,3.107641429649351
0.6020066889632107,2.979514773285383
0.6220735785953176,2.8484365241975644
0.6421404682274248,2.7145368822042752
0.6622073578595318,2.577948930355652
0.6822742474916387,2.4388085304359524
0.7023411371237458,2.2972542266055997
0.7224080267558528,2.1534271627429384
0.7424749163879598,2.007471022412839
0.7625418060200668,1.8595320062992506
0.7826086956521738,1.7097588727232593
0.802675585284281,1.5583030874440105
0.8227424749163879,1.4053191702948438
0.8428093645484949,1.250965414593368
0.862876254180602,1.0954053586767214
0.882943143812709,0.938810901651641
0.903010033444816,0.781369405742183
0.923076923076923,0.6233019017996536
0.9431438127090299,0.4649189330220358
0.963210702341137,0.30684979766553705
0.983277591973244,0.15170003890032074
1.0033444816053512,0.05479580378004903
1.0234113712374582,0.1849538325407854
1.0434782608695652,0.3413328399805134
1.0635451505016722,0.49957972117591276
1.0836120401337792,0.6579505210371098
1.1036789297658862,0.815929891404599
1.1237458193979932,0.9732359812064645
1.1438127090301002,1.12965775079169
1.1638795986622072,1.2850121208533707
1.1839464882943145,1.4391293406528716
1.2040133779264215,1.5918471059256394
1.2240802675585283,1.7430079276688386
1.2441471571906353,1.8924578758226918
1.2642140468227423,2.0400459641090185
1.2842809364548495,2.1856238574952953
1.3043478260869565,2.329045752078636
1.3244147157190636,2.4701683516121653
1.3444816053511706,2.608850900224243
1.3645484949832773,2.744955248672722
1.3846153846153846,2.878345940897871
1.4046822742474916,3.0088903128472237
1.4247491638795986,3.1364585985370996
1.4448160535117056,3.2609240400911297
1.4648829431438126,3.3821629995818574
1.4849498327759196,3.500055071183341
1.5050167224080266,3.6144831925812606
1.5250836120401337,3.7253337548759435
1.5451505016722407,3.832496710407522
1.5652173913043477,3.935865678065737
1.5852842809364547,4.03533804573996
1.605351170568562,4.130815069631306
1.625418060200669,4.222201970197302
1.6454849498327757,4.309408024535278
1.6655518394648827,4.392346655038063
1.6856187290969897,4.4709355141768174
1.705685618729097,4.545096565282513
1.725752508361204,4.614756159211635
1.745819397993311,4.679845106792865
1.765886287625418,4.740298746961723
1.7859531772575248,4.796057010498465
1.806020066889632,4.847064479292618
1.826086956521739,4.893270441064395
1.846153846153846,4.9346289394800396
1.866220735785953,4.971098819604254
1.8862876254180598,5.002643768638955
1.9063545150501673,5.029232351903314
1.926421404682274,5.050838044015649
1.9464882943143813,5.067439255243315
1.966555183946488,5.0790193529920336
1.9866220735785953,5.085566678411621
2.0066889632107023,5.08707455810031
2.026755852842809,5.083541310895105
2.0468227424749164,5.074970249741038
2.0668896321070234,5.061369678637309
2.0869565217391304,5.042752884663747
2.1070234113712374,5.019138125096071
2.1270903010033444,4.990548609624066
2.1471571906354514,4.957012477691865
2.1672240802675584,4.918562770985077
2.1872909698996654,4.875237401094968
2.2073578595317724,4.8270791123954035
2.2274247491638794,4.774135440174082
2.2474916387959865,4.716458664065239
2.267558528428094,4.654105756837348
2.2876254180602005,4.587138328595468
2.3076923076923075,4.515622566464851
2.3277591973244145,4.439629169829431
2.3478260869565215,4.359233281207078
2.367892976588629,4.274514412852095
2.3879598662207355,4.185556369185647
2.408026755852843,4.092447165166522
2.4280936454849495,3.995278940728647
2.4481605351170566,3.894147871428906
2.468227424749164,3.789154075470098
2.4882943143812706,3.6804015172914877
2.508361204013378,3.56799790795498
2.5284280936454846,3.4520546026030936
2.548494983277592,3.3326864953300723
2.568561872909699,3.210011911898375
2.5886287625418056,3.0841525008614035
2.608695652173913,2.9552331238392
2.6287625418060196,2.8233817459674206
2.648829431438127,2.6887293279509867
2.668896321070234,2.551409721784934
2.688963210702341,2.411559573196214
2.709030100334448,2.2693182354572583
2.7290969899665547,2.1248277018670017
2.749163879598662,1.978232568714593
2.769230769230769,1.829680048537512
2.789297658862876,1.6793200682126463
2.809364548494983,1.5273055148173313
2.82943143812709,1.3737927499905531
2.849498327759197,1.2189426388931288
2.869565217391304,1.062922633645762
2.8896321070234112,0.9059112085037768
2.9096989966555182,0.7481081492925717
2.9297658862876252,0.5897617486026223
2.9498327759197323,0.43125645263171497
2.9698996655518393,0.27350507442697297
2.9899665551839463,0.12139422269097619
3.0100334448160533,0.07760934110947049
3.0301003344481603,0.2206989228014528
3.0501672240802673,0.3776643391231081
3.0702341137123748,0.5361217870452877
3.0903010033444813,0.6946447963531566
3.1103678929765888,0.852748581896867
3.1304347826086953,1.0101543197573888
3.1505016722408024,1.1666501297924163
3.1705685618729094,1.3220517092306847
3.1906354515050164,1.4761882739857985
3.210702341137124,1.6288967276775792
3.2307692307692304,1.78001899022543
3.250836120401338,1.9294006959071508
3.270903010033445,2.076890542331689
3.2909698996655514,2.2223399720076333
3.311036789297659,2.365603033939408
3.3311036789297654,2.5065363472445936
3.351170568561873,2.644999124684837
3.3712374581939795,2.7808532322998687
3.391304347826087,2.913963271123159
3.411371237458194,3.0441966724187592
3.4314381270903005,3.1714238010389506
3.451505016722408,3.295518063390969
3.471571906354515,3.416356017662744
3.491638795986622,3.533817484691097
3.511705685618729,3.6477856583298918
3.531772575250836,3.7581472144891688
3.551839464882943,3.8647924182273887
3.5719063545150496,3.9676152284244113
3.591973244147157,4.066513399664861
3.612040133779264,4.161388581034239
3.632107023411371,4.2521464115832375
3.652173913043478,4.338696612255236
3.672240802675585,4.420953074101696
3.692307692307692,4.498833942633454
3.712374581939799,4.572261698174377
3.732441471571906,4.641163232098566
3.752508361204013,4.705469918844805
3.7725752508361197,4.765117683612723
3.7926421404682276,4.820047065653934
3.8127090301003346,4.8702032770800905
3.832775919732441,4.915536257116897
3.852842809364548,4.956000721740322
3.872909698996655,4.991556208637528
3.8929765886287626,5.022167117441325
3.9130434782608696,5.0478027451929535
3.933110367892976,5.0684373169935855
3.953177257525083,5.084050011810808
3.9732441471571907,5.094624983411714
3.9933110367892977,5.100151376399858
4.013377926421405,5.100623337338599
4.033444816053511,5.0960400209489585
4.053511705685618,5.086405591375407
4.073578595317726,5.071729218518297
4.093645484949833,5.052025069437404
4.113712374581939,5.027312294836007
4.133779264214047,4.997615010640938
4.153846153846153,4.962962274699151
4.173913043478261,4.923388058617257
4.193979933110368,4.878931214776174
4.214046822742475,4.829635438558893
4.234113712374581,4.77554922583545
4.254180602006689,4.716725825755724
4.274247491638796,4.653223188907093
4.294314381270903,4.585103910901416
4.314381270903009,4.512435171463272
4.334448160535117,4.435288669100103
4.354515050167224,4.3537405514442336
4.374581939799331,4.267871341367792
4.394648829431437,4.177765858984059
4.414715719063545,4.083513139664178
4.434782608695651,3.985206348216507
4.454849498327759,3.8829426893991488
4.474916387959866,3.7768233149656596
4.494983277591973,3.666953227482385
4.5150501672240795,3.5534411812069524
4.535117056856188,3.4363995803864036
4.555183946488294,3.315944375428543
4.575250836120401,3.192194957533438
4.595317725752508,3.065274052562216
4.615384615384615,2.9353076151968707
4.635451505016722,2.802424724854627
4.655518394648829,2.666757485439097
4.6755852842809364,2.528440931966644
4.695652173913043,2.387612948615933
4.71571906354515,2.2444142051968416
4.735785953177258,2.098988123116696
4.7558528428093645,1.951480888948527
4.775919732441471,1.802041546245575
4.795986622073578,1.6508222195611724
4.816053511705686,1.4979785700987938
4.8361204013377925,1.3436706761587396
4.856187290969899,1.1880647380973826
4.8762541806020065,1.0313365008105604
4.896321070234113,0.8736785890226902
4.916387959866221,0.7153178605020315
4.936454849498328,0.5565628339568234
4.956521739130435,0.39796505349799444
4.976588628762541,0.24111363022460489
4.996655518394649,0.09722424780695713
5.016722408026756,0.11195451989314067
5.036789297658863,0.2595799770367564
5.056856187290969,0.4168854077949494
5.076923076923077,0.5756400719322529
5.096989966555184,0.7344901164586354
5.117056856187291,0.8929308679867966
5.137123745819398,1.0506678871927733
5.157190635451505,1.2074795834533059
5.177257525083611,1.3631755350943726
5.197324414715719,1.5175809274439243
5.217391304347826,1.670529883840165
5.237458193979933,1.8218623251363628
5.257525083612039,1.9714223965735378
5.277591973244148,2.119057654135073
5.297658862876254,2.2646186451413692
5.317725752508361,2.4079587051365636
5.337792642140468,2.5489338788526292
5.357859531772575,2.68740291491459
5.377926421404682,2.8232273055570962
5.397993311036789,2.956271354303098
5.418060200668896,3.0864022611306723
5.438127090301003,3.2134902184890906
5.458193979933109,3.3374085138327847
5.478260869565218,3.4580336357701427
5.498327759197324,3.575245381830518
5.518394648829431,3.688926966441384
5.538461538461538,3.7989651280981414
5.558528428093646,3.9052502349732854
5.578595317725752,4.007676388393734
5.598662207357859,4.106141523743028
5.618729096989966,4.200547508436469
5.638795986622073,4.290800236683753
5.65886287625418,4.376809720802821
5.678929765886288,4.458490178885908
5.698996655518394,4.535760118647278
5.719063545150501,4.608542417304674
5.739130434782608,4.676764397364535
5.759197324414716,4.740357898195839
5.7792642140468224,4.799259343289855
5.799331103678929,4.853409803113842
5.8193979933110365,4.902755053476005
5.839464882943144,4.9472456293274485
5.8595317725752505,4.986836873934588
5.879598662207358,5.021488983362453
5.8996655518394645,5.051167046216125
5.919732441471571,5.07584107859387
5.9397993311036785,5.095486054211621
5.959866220735786,5.1100819296645215
5.9799331103678925,5.119613664796993
5.999999999999999,5.124071238158551
6.020066889632107,5.123449657528337
6.040133779264214,5.117748965496893
6.060200668896321,5.10697424009939
6.080267558528428,5.091135590500251
6.100334448160535,5.070248147734624
6.120401337792642,5.044332050518119
6.1404682274247495,5.01341242614186
6.160535117056856,4.977519366475966
6.180602006688963,4.936687899110664
6.200668896321069,4.890957953670421
6.2207357859531776,4.840374323343253
6.240802675585284,4.784986621673962
6.260869565217391,4.724849234677706
6.280936454849498,4.660021268337916
6.301003344481605,4.590566491561424
6.321070234113712,4.516553274673145
6.341137123745819,4.438054523543573
6.361204013377926,4.35514760945494
6.381270903010033,4.267914294826708
6.40133779264214,4.176440654938787
6.421404682274248,4.080816995812915
6.441471571906354,3.981137768439821
6.461538461538461,3.877501479574958
6.481605351170568,3.7700105993708446
6.501672240802676,3.6587714661742896
6.521739130434782,3.543894188897598
6.54180602006689,3.4254925474834326
6.561872909698996,3.303683892136776
6.581939799331103,3.1785890422147727
6.60200668896321,3.0503321859773975
6.622073578595318,2.919040782858723
6.642140468227424,2.78484547059896
6.662207357859531,2.6478799806115365
6.682274247491639,2.5082810665652318
6.702341137123746,2.366188453713931
6.722408026755852,2.2217448206711663
6.742474916387959,2.075095832321274
6.762541806020066,1.9263902546952913
6.782608695652174,1.7757802044912128
6.80267558528428,1.6234216269656923
6.822742474916388,1.46947517691821
6.842809364548494,1.3141078468173883
6.862876254180601,1.1574960654396433
6.882943143812709,0.9998319147396002
6.903010033444816,0.8413366150159985
6.9230769230769225,0.6822931889885585
6.94314381270903,0.5231391488355712
6.963210702341137,0.3648010398212698
6.983277591973244,0.2105171499624053
7.0033444816053505,0.08809104424189348
7.023411371237458,0.15353521198284398
7.0434782608695645,0.30284410763906816
7.063545150501672,0.4603640210917719
7.083612040133779,0.6194985714251641
7.103678929765886,0.7788350871596162
7.123745819397993,0.937810663889355
7.143812709030099,1.0960980048678355
7.1638795986622075,1.2534566147284307
7.183946488294314,1.4096845101218882
7.204013377926421,1.5645993643146465
7.224080267558528,1.7180301498572434
7.2441471571906355,1.8698130873342218
7.264214046822742,2.0197895556344228
7.2842809364548495,2.167804971804156
7.304347826086956,2.3137081825192594
7.324414715719063,2.457351140235589
7.34448160535117,2.5985887447617264
7.364548494983278,2.7372787843966635
7.384615384615384,2.8732819386783417
7.404682274247491,3.0064618200390014
7.424749163879598,3.1366850403292625
7.444816053511706,3.263821293269168
7.464882943143812,3.3877434469729653
7.48494983277592,3.508327642618651
7.505016722408026,3.6254533965605646
7.525083612040134,3.73900370398477
7.545150501672239,3.84886514274045
7.565217391304348,3.954927976342716
7.585284280936455,4.057086255392385
7.605351170568561,4.155237916834481
7.625418060200669,4.2492848806024455
7.645484949832775,4.3391331432869125
7.665551839464882,4.424692868534633
7.685618729096991,4.505878473934433
7.705685618729096,4.582608714185041
7.725752508361204,4.6548067603703425
7.74581939799331,4.722400275190843
7.765886287625418,4.785321484019763
7.785953177257525,4.843507241667971
7.806020066889631,4.8968990947551845
7.826086956521739,4.9454433395966095
7.846153846153847,4.989091075524092
7.866220735785952,5.027798253569957
7.88628762541806,5.061525720449956
7.906354515050166,5.090239257789241
7.926421404682274,5.113909616542629
7.946488294314381,5.132512546566919
7.966555183946488,5.1460288213099314
7.986622073578595,5.154444257586913
8.006688963210701,5.157749730421451
8.02675585284281,5.1559411829340975
8.046822742474916,5.1490196312678105
8.066889632107022,5.136991164545752
8.08695652173913,5.119866939862806
8.107023411371236,5.097663172318445
8.127090301003344,5.070401120105012
8.147157190635452,5.038107064671635
8.167224080267557,5.000812285991053
8.187290969899665,4.958553032963137
8.207357859531772,4.911370488996485
8.227424749163879,4.859310732817215
8.247491638795987,4.802424694562146
8.267558528428093,4.740768107223137
8.2876254180602,4.674401453519077
8.307692307692307,4.603389908283695
8.327759197324415,4.5278032764704434
8.347826086956522,4.447715926890997
8.367892976588628,4.363206721822351
8.387959866220736,4.274358942639595
8.408026755852843,4.18126021165902
8.42809364548495,4.0840024104107
8.448160535117056,3.982681594603888
8.468227424749163,3.8773979061059243
8.488294314381271,3.7682554823312207
8.508361204013378,3.6553623635381363
8.528428093645484,3.5388303986698193
8.548494983277592,3.4187751505651702
8.568561872909697,3.2953158016329365
8.588628762541806,3.168575061461306
8.608695652173914,3.0386790783838653
8.628762541806019,2.9057573578297
8.648829431438127,2.7699426914943865
8.668896321070234,2.6313711032161478
8.68896321070234,2.490181820327509
8.709030100334449,2.3465172838691446
8.729096989966555,2.2005232186367745
8.749163879598662,2.0523487968652847
8.769230769230768,1.9021469518104583
8.789297658862875,1.7500749383072434
8.809364548494983,1.5962953148980643
8.82943143812709,1.4409776770096787
8.849498327759196,1.2843017992661103
8.869565217391303,1.126463594158484
8.889632107023411,0.967687158952791
8.909698996655518,0.8082513650562896
8.929765886287624,0.6485560640354179
8.949832775919733,0.48931775605719824
8.96989966555184,0.3323199465841469
8.989966555183946,0.18487243135867762
9.010033444816054,0.10481170070682162
9.030100334448159,0.2024327727679077
9.050167224080267,0.3522313923399293
9.070234113712376,0.509850149773785
9.09030100334448,0.6694087611439407
9.110367892976589,0.8293554980570198
9.130434782608695,0.9890351888539847
9.150501672240802,1.148069321059255
9.17056856187291,1.3061877052091095
9.190635451505017,1.4631700329260096
9.210702341137123,1.6188219869377487
9.23076923076923,1.7729642788525732
9.250836120401337,1.925427176853823
9.270903010033445,2.076047601274805
9.290969899665551,2.224667516451087
9.311036789297658,2.371133018524047
9.331103678929765,2.5152938162753062
9.351170568561873,2.6570029434108733
9.37123745819398,2.7961166119428094
9.391304347826086,2.932494154048778
9.411371237458194,3.065998020654935
9.4314381270903,3.1964938169662855
9.451505016722408,3.323850362275051
9.471571906354516,3.4479397657192066
9.49163879598662,3.5686375123856795
9.511705685618729,3.685822555900895
9.531772575250837,3.7993774147978545
9.551839464882942,3.909188270716365
9.57190635451505,4.015145067015473
9.591973244147155,4.117141606739566
9.612040133779264,4.21507564913466
9.632107023411372,4.308849004093838
9.652173913043477,4.398367624043186
9.672240802675585,4.483541692877322
9.692307692307692,4.564285711626341
9.712374581939798,4.640518580591694
9.732441471571907,4.712163677730939
9.752508361204013,4.779148933105001
9.77257525083612,4.841406899228226
9.792642140468226,4.898874817183004
9.812709030100335,4.951494678378979
9.832775919732441,4.999213281851576
9.852842809364548,5.041982287007717
9.872909698996656,5.079758261738033
9.89297658862876,5.1125027258246964
9.91304347826087,5.140182189583448
9.933110367892976,5.162768187686615
9.953177257525082,5.180237308122085
9.97324414715719,5.19257121625044
9.993311036789297,5.199756673929905
10.013377926421404,5.201785553685679
10.033444816053512,5.198654847907171
10.053511705685617,5.1903666730634646
10.073578595317725,5.176928268934235
10.093645484949834,5.158351992860264
10.113712374581938,5.134655309024753
10.133779264214047,5.105860772783886
10.153846153846153,5.071996010072736
10.17391304347826,5.033093691920426
10.193979933110368,4.989191504117063
10.214046822742475,4.940332112083958
10.234113712374581,4.886563121008665
10.254180602006688,4.827937031317402
10.274247491638796,4.764511189569942
10.294314381270903,4.6963477348761264
10.31438127090301,4.6235135409501105
10.334448160535118,4.546080153937783
10.354515050167223,4.464123726176814
10.37458193979933,4.377724946077651
10.394648829431437,4.2869689643499544
10.414715719063544,4.1919453168446195
10.434782608695652,4.092747844339763
10.454849498327757,3.989474609675107
10.474916387959865,3.8822278127387952
10.494983277591974,3.771113703944246
10.515050167224079,3.656242497014349
10.535117056856187,3.537728282137781
10.555183946488295,3.41568894090477
10.5752508361204,3.290246064913705
10.595317725752508,3.1615248806316005
10.615384615384615,3.0296541840977453
10.635451505016722,2.8947662905475875
10.65551839464883,2.7569970062755393
10.675585284280936,2.6164856335009685
10.695652173913043,2.473375024416448
10.71571906354515,2.327811709316902
10.735785953177256,2.1799461381364322
10.755852842809364,2.0299330993310383
10.775919732441471,1.8779324234980401
10.795986622073578,1.7241101589076593
10.816053511705684,1.5686405593847432
10.836120401337793,1.4117095352899727
10.856187290969899,1.2535208869029697
10.876254180602006,1.0943081914016648
10.896321070234114,0.9343591615728256
