Frequency (Hz),Amplitude
0.0,8.130973230416407
0.01978021978021978,8.127617880010037
0.03956043956043956,8.11755673492264
0.05934065934065934,8.100804522326237
0.07912087912087912,8.07738581696455
0.0989010989010989,8.047335086044876
0.11868131868131868,8.010696753516003
0.13846153846153844,7.96752528519866
0.15824175824175823,7.917885296710277
0.17802197802197803,7.861851686642793
0.1978021978021978,7.799509798025543
0.21758241758241756,7.7309556117466185
0.23736263736263735,7.6562959763302825
0.2571428571428572,7.575648879292511
0.2769230769230769,7.489143766239707
0.2967032967032967,7.396921914958141
0.31648351648351647,7.29913687298764
0.3362637362637363,7.195954968607666
0.35604395604395606,7.087555906814668
0.3758241758241758,6.974133463764644
0.3956043956043956,6.855896295320813
0.4153846153846154,6.733068877805537
0.4351648351648351,6.605892601820829
0.45494505494505494,6.474627043066929
0.4747252747252747,6.339551437417327
0.4945054945054945,6.200966391013566
0.5142857142857143,6.059195859657126
0.5340659340659341,5.914589435008242
0.5538461538461538,5.767524977578004
0.5736263736263736,5.618411637470916
0.5934065934065934,5.4676933021566345
0.6131868131868132,5.315852504514211
0.6329670329670329,5.163414811520437
0.6527472527472528,5.010953690729012
0.6725274725274726,4.859095813282235
0.6923076923076923,4.708526692230498
0.7120879120879121,4.559996465426367
0.7318681318681318,4.41432550402351
0.7516483516483516,4.272409351564708
0.7714285714285715,4.13522226870058
0.7912087912087912,4.003818377004669
0.810989010989011,3.879329081347748
0.8307692307692308,3.7629551518046274
0.8505494505494506,3.65595165244364
0.8703296703296702,3.559603953356463
0.8901098901098901,3.475193529061282
0.9098901098901099,3.403953298188394
0.9296703296703297,3.347013965473878
0.9494505494505494,3.3053450386576997
0.9692307692307692,3.2796964506533777
0.989010989010989,3.270548284361687
1.0087912087912088,3.278076191928375
1.0285714285714287,3.302138285427097
1.0483516483516484,3.3422857999462563
1.0681318681318681,3.3977956501774997
1.087912087912088,3.467719398518665
1.1076923076923075,3.5509411411190537
1.1274725274725275,3.646236725617839
1.1472527472527472,3.7523281623754334
1.1670329670329669,3.8679293143530686
1.1868131868131868,3.9917811935926966
1.2065934065934065,4.122676962054163
1.2263736263736265,4.259477853412919
1.2461538461538462,4.401121752791131
1.2659340659340659,4.546626255266045
1.2857142857142858,4.695087848457436
1.3054945054945055,4.845678572087957
1.3252747252747252,4.997641192336277
1.3450549450549452,5.1502836427153165
1.3648351648351649,5.302973247694925
1.3846153846153846,5.455131063913816
1.4043956043956045,5.606226541074542
1.4241758241758242,5.755772611554267
1.443956043956044,5.903321255142687
1.4637362637362636,6.048459545004184
1.4835164835164834,6.190806156410143
1.5032967032967033,6.330008306020183
1.523076923076923,6.465739082871878
1.542857142857143,6.597695130192157
1.5626373626373626,6.725594637895213
1.5824175824175823,6.849175607986614
1.6021978021978023,6.968194358268588
1.621978021978022,7.08242423323808
1.6417582417582417,7.191654494580697
1.6615384615384616,7.295689367012858
1.6813186813186813,7.394347218317038
1.7010989010989013,7.487459855209532
1.720879120879121,7.574871919169262
1.7406593406593405,7.6564403685500855
1.7604395604395604,7.732034035219966
1.7802197802197801,7.801533245644186
1.7999999999999998,7.864829497784907
1.8197802197802198,7.921825186453121
1.8395604395604395,7.972433370847054
1.8593406593406594,8.016577578967294
1.879120879120879,8.054191644434534
1.8989010989010988,8.08521957196982
1.9186813186813187,8.109615428446432
1.9384615384615385,8.127343257002199
1.9582417582417584,8.138377012224035
1.978021978021978,8.14270051489543
1.9978021978021978,8.14030742524249
2.0175824175824175,8.131201234035636
2.0373626373626372,8.115395271311414
2.0571428571428574,8.092912732880514
2.076923076923077,8.063786725193713
2.096703296703297,8.028060329555668
2.1164835164835165,7.985786687115902
2.1362637362637362,7.937029106538219
2.1560439560439564,7.881861196763088
2.175824175824176,7.820367027845424
2.195604395604396,7.752641323484438
2.215384615384615,7.678789689578239
2.2351648351648348,7.598928883949481
2.254945054945055,7.513187133318308
2.2747252747252746,7.421704504665605
2.2945054945054943,7.324633339355979
2.314285714285714,7.222138759801528
2.3340659340659338,7.114399260070095
2.353846153846154,7.001607393703637
2.3736263736263736,6.883970574139036
2.3934065934065933,6.761712005536951
2.413186813186813,6.635071764536669
2.4329670329670328,6.504308056460307
2.452747252747253,6.36969867275306
2.4725274725274726,6.231542679882376
2.4923076923076923,6.090162373366357
2.512087912087912,5.945905533778719
2.5318681318681318,5.799148024025939
2.5516483516483515,5.650296768187068
2.5714285714285716,5.499793150643814
2.5912087912087913,5.348116868461845
2.610989010989011,5.195790257620955
2.6307692307692307,5.043383091344358
2.6505494505494505,4.891517811790251
2.6703296703296706,4.740875098587011
2.6901098901098903,4.592199591401191
2.70989010989011,4.446305460009103
2.7296703296703297,4.304081345293769
2.7494505494505495,4.166493972022699
2.769230769230769,4.034589460749852
2.7890109890109893,3.9094910591913368
2.808791208791209,3.7923917175777486
2.8285714285714287,3.6845397319396835
2.8483516483516484,3.587215705156125
2.8681318681318677,3.5016994969713973
2.887912087912088,3.4292268171141305
2.9076923076923076,3.370936739153954
2.9274725274725273,3.3278135530768944
2.947252747252747,3.3006286105497717
2.9670329670329667,3.289889447570794
2.986813186813187,3.295803722199921
3.0065934065934066,3.3182639066427555
3.0263736263736263,3.356855393376239
3.046153846153846,3.4108865898247718
3.0659340659340657,3.47943592732081
3.085714285714286,3.561408538993833
3.1054945054945056,3.6555950677526465
3.1252747252747253,3.7607263463309857
3.145054945054945,3.875519823102915
3.1648351648351647,3.9987158356978556
3.184615384615385,4.129103642341232
3.2043956043956046,4.265538299743138
3.2241758241758243,4.40695005546187
3.243956043956044,4.552348051970807
3.2637362637362637,4.700819993396697
3.2835164835164834,4.851529148911286
3.3032967032967036,5.003709757311964
3.3230769230769233,5.156661610964332
3.342857142857143,5.309744358530446
3.3626373626373627,5.462371880238355
3.3824175824175824,5.614006952421794
3.4021978021978025,5.764156321247878
3.4219780219780223,5.912366239876219
3.441758241758242,6.058218480613447
3.4615384615384617,6.201326807308046
3.481318681318681,6.341333878179484
3.501098901098901,6.477908541746891
3.520879120879121,6.610743485845416
3.5406593406593405,6.739553200043698
3.5604395604395602,6.864072213849265
3.58021978021978,6.984053576084983
3.5999999999999996,7.099267544206896
3.61978021978022,7.209500455784416
3.6395604395604395,7.314553757682989
3.659340659340659,7.414243171572522
3.679120879120879,7.508397977182938
3.6989010989010986,7.596860397228164
3.718681318681319,7.679485070128956
3.7384615384615385,7.756138598602458
3.758241758241758,7.826699163877721
3.7780219780219784,7.891056196768287
3.7978021978021976,7.94911009811204
3.8175824175824173,8.00077200220143
3.8373626373626375,8.045963577796089
3.8571428571428568,8.084616862157239
3.876923076923077,8.116674124287604
3.896703296703296,8.142087754218544
3.916483516483517,8.1608201757739
3.936263736263736,8.172843780769426
3.956043956043956,8.17814088309156
3.9758241758241755,8.176703691548623
3.9956043956043956,8.168534300813242
4.015384615384615,8.153644700184707
4.035164835164835,8.13205680030418
4.054945054945055,8.10380247836254
4.0747252747252745,8.06892364275911
4.094505494505494,8.027472318608828
4.114285714285715,7.979510755965627
4.134065934065934,7.925111563140507
4.153846153846154,7.864357868056799
4.173626373626373,7.797343511213551
4.193406593406594,7.724173274536667
4.213186813186813,7.64496315120128
4.232967032967033,7.559840662425732
4.252747252747253,7.468945228288598
4.2725274725274724,7.372428600825786
4.292307692307692,7.270455369050905
4.312087912087913,7.163203547132269
4.331868131868132,7.050865258782107
4.351648351648352,6.933647532990289
4.371428571428571,6.811773228587248
4.391208791208792,6.685482107758333
4.410989010989011,6.555032081546696
4.43076923076923,6.420700653536759
4.450549450549451,6.2827865912190894
4.4703296703296695,6.14161185783797
4.49010989010989,5.997523840537332
4.50989010989011,5.850897912897178
4.52967032967033,5.70214037078383
4.549450549450549,5.551691778747977
4.569230769230769,5.40003075839856
4.589010989010989,5.247678237949468
4.608791208791209,5.095202160218027
4.628571428571428,4.943222610287801
4.648351648351649,4.792417267949519
4.6681318681318675,4.643527006553128
4.687912087912088,4.497361340572804
4.707692307692308,4.35480326056889
4.7274725274725276,4.216812780475335
4.747252747252747,4.084428259705928
4.767032967032967,3.958764267835697
4.786813186813187,3.841004474405996
4.806593406593407,3.7323878496106273
4.826373626373626,3.6341864763851914
4.846153846153847,3.5476736603810948
4.8659340659340655,3.474081940519668
4.885714285714286,3.414552130768832
4.905494505494506,3.370076559470435
4.9252747252747255,3.3414418344767527
4.945054945054945,3.3291780989216306
4.964835164835165,3.3335221142610343
4.984615384615385,3.3544001276636815
5.004395604395604,3.3914334512517383
5.024175824175824,3.4439657787578137
5.043956043956045,3.511107658962678
5.0637362637362635,3.5917912680485466
5.083516483516483,3.6848281321971657
5.103296703296703,3.7889635281671876
5.123076923076923,3.9029232751531597
5.142857142857143,4.02545079549434
5.162637362637362,4.155334135529362
5.182417582417583,4.291423863530356
5.2021978021978015,4.432643400288541
5.221978021978022,4.577993521018569
5.241758241758242,4.726552660885215
5.2615384615384615,4.877474404579432
5.281318681318681,5.0299832439860515
5.301098901098901,5.183369406367509
5.320879120879121,5.336983316503548
5.340659340659341,5.490230067803706
5.36043956043956,5.6425641366901385
5.380219780219781,5.793484474010163
5.3999999999999995,5.942530038242161
5.41978021978022,6.089275789824198
5.43956043956044,6.2333291374367255
5.4593406593406595,6.374326810353953
5.479120879120879,6.511932122208309
5.498901098901099,6.645832587930959
5.518681318681319,6.775737855309025
5.538461538461538,6.901377914219195
5.558241758241758,7.022501549280141
5.578021978021979,7.138875004842533
5.5978021978021975,7.250280834547356
5.617582417582418,7.356516910915188
5.637362637362637,7.4573955734604755
5.6571428571428575,7.552742896595002
5.676923076923077,7.642398061073245
5.696703296703297,7.7262128149402
5.716483516483517,7.80405101188552
5.736263736263735,7.87578821660836
5.756043956043956,7.941311368280878
5.775824175824176,8.000518494489851
5.795604395604395,8.053318469161304
5.815384615384615,8.099630808954016
5.835164835164835,8.13938550346679
5.854945054945055,8.172522875358807
5.874725274725275,8.198993467150675
5.894505494505494,8.218757952069694
5.914285714285715,8.231787066840347
5.934065934065933,8.238061564812579
5.953846153846154,8.237572188276085
5.973626373626374,8.230319659239305
5.993406593406593,8.216314688366518
6.013186813186813,8.195578002174075
6.032967032967033,8.168140388996331
6.052747252747253,8.13404276465252
6.072527472527473,8.093336259185964
6.092307692307692,8.046082326517146
6.112087912087913,7.9923528793619
6.131868131868131,7.932230452327087
6.151648351648352,7.865808396720531
6.171428571428572,7.7931911113138534
6.191208791208791,7.714494314092029
6.210989010989011,7.629845360927618
6.230769230769231,7.539383618152478
6.2505494505494505,7.443260897183503
6.270329670329671,7.341641960716698
6.29010989010989,7.23470511155764
6.309890109890111,7.122642876931128
6.329670329670329,7.005662803129689
6.349450549450549,6.8839883776359985
6.36923076923077,6.757860098395278
6.3890109890109885,6.6275367127067275
6.408791208791209,6.493296651206882
6.428571428571428,6.3554396855399915
6.4483516483516485,6.214288841384509
6.468131868131868,6.070192601249406
6.487912087912088,5.923527433417483
6.507692307692308,5.774700683894928
6.527472527472527,5.624153866172311
6.547252747252747,5.4723663774568125
6.567032967032967,5.319859657566097
6.5868131868131865,5.167201784749125
6.606593406593407,5.015012467062914
6.626373626373626,4.863968333019569
6.6461538461538465,4.714808344129155
6.665934065934065,4.568339036838671
6.685714285714286,4.425439144502159
6.705494505494506,4.287062946287407
6.725274725274725,4.154241441209077
6.745054945054945,4.028080167687917
6.764835164835165,3.9097522217429814
6.7846153846153845,3.800484843844028
6.804395604395605,3.7015379597965747
6.824175824175824,3.614173422267744
6.8439560439560445,3.539614553770626
6.863736263736263,3.478997016297267
6.883516483516484,3.4333139370288994
6.903296703296704,3.4033602610417955
6.923076923076923,3.3896828875814027
6.942857142857143,3.392543590190245
6.962637362637362,3.4119005474804878
6.9824175824175825,3.4474115675377512
7.002197802197802,3.498458447192723
7.021978021978022,3.5641884329824256
7.041758241758242,3.6435664336069284
7.061538461538461,3.735430967144166
7.081318681318681,3.8385476760453336
7.101098901098901,3.9516560346186007
7.1208791208791204,4.073506923189502
7.140659340659341,4.202890524537014
7.16043956043956,4.338655250309848
7.1802197802197805,4.479719098467774
7.199999999999999,4.625075084601547
7.21978021978022,4.773792332662942
7.23956043956044,4.925014193430317
7.259340659340659,5.077954483718234
7.279120879120879,5.231892668298128
7.298901098901099,5.3861685710654665
7.318681318681318,5.540177012992624
7.338461538461539,5.693362631053851
7.358241758241758,5.8452150283899815
7.3780219780219785,5.995264333599257
7.397802197802197,6.1430771985822465
7.417582417582418,6.288253233342839
7.437362637362638,6.430421857407631
7.457142857142857,6.569239537188569
7.476923076923077,6.704387373845246
7.496703296703297,6.835569005000365
7.516483516483516,6.9625087846381115
7.536263736263736,7.084950207735868
7.556043956043957,7.202654549029266
7.575824175824176,7.315399688395396
7.595604395604395,7.4229790984159765
7.615384615384615,7.525200972611017
7.635164835164835,7.621887475538077
7.654945054945055,7.71287409840092
7.674725274725275,7.798009105997793
7.694505494505494,7.877153062773481
7.7142857142857135,7.950178427438532
7.734065934065935,8.016969207106902
7.753846153846154,8.077420663202226
7.7736263736263735,8.131439062517305
7.793406593406592,8.178941467802842
7.813186813186814,8.219855563130588
7.832967032967034,8.254119510040928
7.852747252747252,8.281681831162892
7.872527472527472,8.302501318599733
7.892307692307693,8.316546964919379
7.912087912087912,8.323797915088273
7.931868131868132,8.324243438150146
7.951648351648351,8.317882917887925
7.971428571428572,8.304725862127569
7.991208791208791,8.284791930755082
8.010989010989011,8.25811098293176
8.03076923076923,8.22472314441657
8.05054945054945,8.184678896347421
8.07032967032967,8.138039187304436
8.09010989010989,8.084875570988237
8.10989010989011,8.025270372406052
8.129670329670331,7.959316886079619
8.149450549450549,7.887119610485292
8.169230769230769,7.808794523723136
8.189010989010988,7.724469406303948
8.20879120879121,7.634284217960392
8.22857142857143,7.538391536549052
8.248351648351647,7.4369570684359845
8.268131868131867,7.330160241270332
8.287912087912087,7.2181948917701515
8.307692307692308,7.101270063088717
8.327472527472528,6.979610928511648
8.347252747252746,6.853459860654542
8.367032967032966,6.7230776679689175
8.386813186813187,6.588745023170395
8.406593406593407,6.450764111076204
8.426373626373627,6.3094605261032815
8.446153846153845,6.165185452041511
8.465934065934066,6.018318158221545
8.485714285714286,5.869268846141366
8.505494505494505,5.718481877956348
8.525274725274725,5.566439411453445
8.545054945054945,5.413665453058475
8.564835164835165,5.260730318067673
8.584615384615384,5.108255451619119
8.604395604395604,4.956918509718941
8.624175824175826,4.807458520553965
8.643956043956043,4.660680835252435
8.663736263736263,4.517461427463726
8.683516483516483,4.378749908575683
8.703296703296704,4.2455703928441935
8.723076923076924,4.1190190901693375
8.742857142857142,4.000257261517637
8.762637362637362,3.8904980117369647
8.782417582417583,3.7909854213198946
8.802197802197803,3.702964865671111
8.821978021978023,3.6276441686117225
8.84175824175824,3.566146553255773
8.86153846153846,3.519458105504547
8.881318681318682,3.4883743470863045
8.901098901098901,3.473451997311543
8.920879120879121,3.4749724684983434
8.940659340659339,3.4929226476418354
8.96043956043956,3.526996076558771
8.98021978021978,3.5766143222551783
9.0,3.6409650706376993
9.01978021978022,3.719051194516777
9.03956043956044,3.809744243375937
9.05934065934066,3.911836420897839
9.079120879120879,4.024086677480821
9.098901098901099,4.145258431446773
9.11868131868132,4.27414813949218
9.138461538461538,4.409605188279505
9.158241758241758,4.550544315598378
9.178021978021977,4.695952070187063
9.197802197802199,4.84488881757636
9.217582417582419,4.996487625478423
9.237362637362637,5.149951116211347
9.257142857142856,5.30454711973182
9.276923076923078,5.459603733602134
9.296703296703297,5.6145042095983175
9.316483516483517,5.768681942352951
9.336263736263735,5.921615728918739
9.356043956043957,6.072825392612124
9.375824175824176,6.221867812935206
9.395604395604396,6.36833336958279
9.415384615384616,6.511842787481411
9.435164835164835,6.652044357598707
9.454945054945055,6.788611502028345
9.474725274725275,6.921240649530833
9.494505494505495,7.049649387841979
9.514285714285714,7.17357486065588
9.534065934065934,7.292772379581021
9.553846153846154,7.407014224122676
9.573626373626373,7.516088605587493
9.593406593406593,7.619798773570136
9.613186813186815,7.7179622462742445
9.632967032967032,7.810410148293426
9.652747252747252,7.896986641616147
9.672527472527472,7.97754843752322
9.692307692307693,8.051964378730215
9.712087912087913,8.120115082608153
9.731868131868131,8.18189263761507
9.75164835164835,8.237200346208803
9.771428571428572,8.285952508509899
9.791208791208792,8.328074241860064
9.810989010989012,8.363501332196075
9.83076923076923,8.392180113845498
9.850549450549451,8.414067374965356
9.87032967032967,8.429130286399623
9.89010989010989,8.43734635223935
9.90989010989011,8.438703380839906
9.92967032967033,8.433199475494336
9.94945054945055,8.420843044388862
9.96923076923077,8.401652829885299
9.989010989010989,8.375657957594644
10.008791208791209,8.342898006134304
10.028571428571428,8.303423098908237
10.048351648351648,8.257294019723357
10.068131868131868,8.204582354566762
10.08791208791209,8.145370662427986
10.107692307692307,8.079752678669289
10.127472527472527,8.007833555138507
10.147252747252747,7.9297301419968536
10.167032967032966,7.845571317113569
10.186813186813188,7.7554983698775475
10.206593406593406,7.659665447410612
10.226373626373626,7.5582400724565515
10.246153846153845,7.451403743683142
10.265934065934067,7.339352630787917
10.285714285714286,7.222298378656015
10.305494505494504,7.100469036885064
10.325274725274724,6.974110133262147
10.345054945054946,6.843485912221003
10.364835164835165,6.708880761863818
10.384615384615385,6.570600855685558
10.404395604395603,6.428976037499559
10.424175824175824,6.284361979924379
10.443956043956044,6.13714264768075
10.463736263736264,5.987733096155338
10.483516483516484,5.836582632174045
10.503296703296703,5.68417835619887
10.523076923076923,5.531049091126606
10.542857142857143,5.377769679665276
10.562637362637362,5.22496559611103
10.582417582417584,5.073317764446155
10.602197802197802,4.923567397298201
10.621978021978022,4.776520563241949
10.641758241758241,4.633052047653095
10.661538461538463,4.4941078921927655
10.681318681318682,4.360705784084312
10.7010989010989,4.233932235165769
10.72087912087912,4.114935278666104
10.740659340659342,4.004911282469214
10.760439560439561,3.9050845256398086
10.780219780219781,3.816678527252608
10.799999999999999,3.7408788647319478
10.819780219780219,3.67878842515581
10.83956043956044,3.631377617421039
