Frequency (Hz),Amplitude
0.0,14.690036016830549
0.019823788546255508,14.706998040800737
0.039647577092511016,14.757700540981821
0.059471365638766524,14.841599323076167
0.07929515418502203,14.957808568950384
0.09911894273127755,15.105130708795523
0.11894273127753305,15.282094763167505
0.13876651982378857,15.487000291909238
0.15859030837004406,15.717963993109246
0.17841409691629956,15.972966224942736
0.1982378854625551,16.249895187346375
0.2180616740088106,16.546587090831352
0.2378854625550661,16.8608612546719
0.25770925110132165,17.190549638013774
0.27753303964757714,17.533520767117828
0.29735682819383263,17.887698360519646
0.31718061674008813,18.251075173819668
0.3370044052863437,18.62172270333174
0.3568281938325991,18.997797425439956
0.37665198237885467,19.37754422957491
0.3964757709251102,19.75929764799402
0.41629955947136565,20.141481411679248
0.4361233480176212,20.52260678085912
0.4559471365638767,20.901270019127907
0.4757709251101322,21.276149306839734
0.49559471365638774,21.646001324954867
0.5154185022026433,22.00965768569627
0.5352422907488987,22.3660213410662
0.5550660792951543,22.714063063694343
0.5748898678414097,23.052818065560647
0.5947136563876653,23.38138279770032
0.6145374449339208,23.69891195692096
0.6343612334801763,24.004615712824176
0.6541850220264318,24.29775715913342
0.6740088105726874,24.57764998673757
0.6938325991189428,24.84365637134883
0.7136563876651982,25.095185065745692
0.7334801762114539,25.33168968483118
0.7533039647577093,25.552667170874447
0.7731277533039648,25.757656426078224
0.7929515418502204,25.946237099842875
0.8127753303964759,26.118028518644124
0.8325991189427313,26.272688747195247
0.8524229074889869,26.409913770459653
0.8722466960352424,26.52943678705281
0.8920704845814978,26.631027605588486
0.9118942731277534,26.714492136559908
0.931718061674009,26.77967197337664
0.9515418502202644,26.82644405720222
0.9713656387665199,26.854720421241925
0.9911894273127755,26.864448011121567
1.0110132158590308,26.855608578969687
1.0308370044052866,26.828218649778776
1.0506607929515421,26.782329559573018
1.0704845814977975,26.718027565863082
1.090308370044053,26.635434031819575
1.1101321585903086,26.534705686560997
1.1299559471365639,26.416034964924652
1.1497797356828194,26.279650431079265
1.1696035242290752,26.125817291345804
1.1894273127753305,25.954838002614647
1.209251101321586,25.767052983783273
1.2290748898678416,25.562841438671267
1.248898678414097,25.342622299889808
1.2687224669603525,25.10685530411735
1.288546255506608,24.85604221012907
1.3083700440528636,24.590728171686457
1.3281938325991192,24.311503277939945
1.3480176211453747,24.019004274231037
1.36784140969163,23.713916475957323
1.3876651982378856,23.396975887306485
1.4074889867841411,23.068971534928686
1.4273127753303965,22.730748023695398
1.4471365638766522,22.38320831718575
1.4669603524229078,22.027316738957445
1.4867841409691631,21.66410218137329
1.5066079295154187,21.29466149602533
1.5264317180616742,20.920163022726726
1.5462555066079295,20.541850191612205
1.5660792951541853,20.161045103963776
1.5859030837004409,19.779151960801787
1.6057268722466962,19.397660162967338
1.6255506607929517,19.018146851591087
1.6453744493392073,18.642278593314412
1.6651982378854626,18.27181184128625
1.6850220264317182,17.90859172334648
1.7048458149779737,17.554548627881722
1.7246696035242293,17.21169198379281
1.7444933920704848,16.882100576046412
1.7643171806167404,16.567908719021617
1.7841409691629957,16.271287647080705
1.8039647577092512,15.99442159883275
1.8237885462555068,15.73947829098284
1.8436123348017623,15.508573815755282
1.863436123348018,15.303732455224004
1.8832599118942732,15.126842467155916
1.9030837004405288,14.979609512318914
1.9229074889867843,14.863509984548795
1.9427312775330399,14.77974697059085
1.9625550660792954,14.729211798573338
1.982378854625551,14.712454042551853
2.002202643171806,14.729662393404663
2.0220264317180616,14.7806580089079
2.041850220264317,14.864900915992065
2.061674008810573,14.98150890968891
2.0814977973568287,15.129287350982851
2.1013215859030843,15.306767463946468
2.1211453744493394,15.512250270021788
2.140969162995595,15.743853200575495
2.1607929515418505,15.999556656289071
2.180616740088106,16.277248244661916
2.2004405286343616,16.574763016779144
2.220264317180617,16.889918639718545
2.2400881057268722,17.220545003105443
2.2599118942731278,17.56450821910681
2.2797356828193833,17.919729314898316
2.299559471365639,18.28419813765722
2.319383259911895,18.65598311054945
2.3392070484581504,19.033237516487652
2.3590308370044055,19.414202967974386
2.378854625550661,19.79721066691046
2.3986784140969166,20.180680984527267
2.418502202643172,20.56312181083983
2.4383259911894277,20.94312604345662
2.4581497797356833,21.31936851221967
2.4779735682819384,21.690602571555083
2.497797356828194,22.05565653749778
2.5176211453744495,22.4134301009487
2.537444933920705,22.762890812053364
2.5572687224669606,23.10307070158454
2.577092511013216,23.433063082705853
2.5969162995594717,23.75201955935842
2.6167400881057272,24.05914725472654
2.6365638766519828,24.353706263910105
2.6563876651982383,24.635007328306024
2.676211453744494,24.902409724667795
2.6960352422907494,25.155319358862208
2.715859030837005,25.39318705258991
2.73568281938326,25.615507010459687
2.7555066079295156,25.821815454575166
2.775330396475771,26.011689414012835
2.7951541850220267,26.18474565711211
2.8149779735682823,26.34063975525047
2.834801762114538,26.479065267667455
2.854625550660793,26.599753037875402
2.874449339207049,26.702470593209465
2.8942731277533045,26.78702164010495
2.91409691629956,26.853245648721792
2.9339207048458156,26.901017521559744
2.953744493392071,26.930247341715592
2.9735682819383262,26.94088019742389
2.993392070484582,26.93289608049845
3.0132158590308373,26.906309857255142
3.033039647577093,26.861171311452143
3.0528634361233484,26.79756525973642
3.072687224669604,26.71561174104264
3.092511013215859,26.615466282353005
3.1123348017621146,26.497320244205163
3.1321585903083706,26.361401250327194
3.151982378854626,26.20797370678891
3.1718061674008817,26.03733941708414
3.1916299559471373,25.84983830059771
3.2114537444933924,25.645849222945667
3.231277533039648,25.4257909477015
3.2511013215859035,25.19012321999836
3.270925110132159,24.939347993394406
3.2907488986784146,24.674010812150247
3.31057268722467,24.394702361614275
3.3303964757709252,24.102060199644313
3.350220264317181,23.796770681769562
3.3700440528634363,23.479571091934776
3.389867841409692,23.1512519889241
3.4096916299559474,22.81265977562849
3.4295154185022034,22.464699493798133
3.4493392070484585,22.10833784031174
3.469162995594714,21.744606391678346
3.4889867841409696,21.37460501071431
3.508810572687225,20.999505392214065
3.5286343612334807,20.620554681931832
3.5484581497797363,20.239079074183913
3.5682819383259914,19.856487256697577
3.588105726872247,19.474273525893295
3.6079295154185025,19.09402034080905
3.627753303964758,18.717400019178903
3.6475770925110136,18.346175205651388
3.667400881057269,17.98219766232616
3.6872246696035247,17.627404850667816
3.7070484581497802,17.283813699631935
3.726872246696036,16.953510899726226
3.7466960352422913,16.638639043389254
3.7665198237885464,16.341377969297987
3.7863436123348024,16.063920785389424
3.8061674008810575,15.808444265102528
3.8259911894273135,15.577073649928746
3.8458149779735686,15.371842351410546
3.8656387665198246,15.19464760794462
3.8854625550660797,15.04720376827077
3.905286343612335,14.93099546625537
3.925110132158591,14.847233418809935
3.9449339207048464,14.796815812124555
3.964757709251102,14.780298151250456
3.9845814977973575,14.797873991698815
4.004405286343612,14.849368174313252
4.024229074889869,14.934243143950784
4.044052863436123,15.051617802138333
4.06387665198238,15.200297298884248
4.083700440528634,15.378811363837531
4.103524229074891,15.585458311327244
4.123348017621146,15.818351754428022
4.143171806167401,16.075467288820636
4.162995594713657,16.354686869138877
4.182819383259912,16.653839190550137
4.2026431718061685,16.9707350045062
4.222466960352423,17.303196861204064
4.242290748898679,17.6490832337612
4.262114537444934,18.00630732050288
4.28193832599119,18.372851044226692
4.301762114537445,18.74677488688223
4.321585903083701,19.126224237251257
4.3414096916299565,19.50943291129455
4.361233480176212,19.89472445069012
4.381057268722468,20.28051173146898
4.400881057268723,20.665295333856758
4.420704845814979,21.047661044747457
4.440528634361234,21.426276790700918
4.46035242290749,21.79988923457161
4.4801762114537445,22.167320213766143
4.500000000000001,22.527463152541102
4.5198237885462555,22.879279543919203
4.539647577092512,23.22179556765428
4.559471365638767,23.554098888048415
4.579295154185023,23.875335658189567
4.599118942731278,24.184707744310646
4.618942731277533,24.481470174576266
4.63876651982379,24.764928809926765
4.658590308370044,25.03443823003445
4.678414096916301,25.289399824446996
4.6982378854625555,25.52926007721553
4.718061674008811,25.753509032413316
4.737885462555067,25.96167892770381
4.757709251101322,26.153342983332205
4.777533039647578,26.3281143344475
4.797356828193833,26.485645095413805
4.817180616740089,26.625625545656597
4.837004405286344,26.74778342756548
4.856828193832599,26.851883347989244
4.876651982378855,26.937726275897344
4.896475770925111,27.00514912981477
4.9162995594713665,27.054024449666045
4.936123348017622,27.08426014867238
4.955947136563877,27.0957993419423
4.975770925110133,27.088620249374003
4.995594713656388,27.062736171456155
5.015418502202644,27.01819553751243
5.035242290748899,26.955082026894967
5.055066079295155,26.8735147645894
5.07488986784141,26.77364859366697
5.094713656387666,26.65567442799795
5.114537444933921,26.5198196896402
5.134361233480177,26.366348836331866
5.154185022026432,26.195563985547114
5.174008810572688,26.007805642617637
5.193832599118943,25.80345354146429
5.213656387665199,25.58292760750862
5.2334801762114544,25.346689053317387
5.25330396475771,25.09524161843176
5.2731277533039655,24.82913296559487
5.292951541850221,24.54895624613693
5.312775330396477,24.255351847505917
5.332599118942731,23.94900933569652
5.352422907488988,23.63066960445402
5.372246696035242,23.30112724136348
5.392070484581499,22.961233117968774
5.4118942731277535,22.6118972064991
5.43171806167401,22.25409161911319
5.451541850220265,21.888853856176276
5.47136563876652,21.517290237211252
5.491189427312777,21.140579470913856
5.511013215859031,20.759976297961103
5.530837004405288,20.37681511113922
5.550660792951542,19.992513420400595
5.570484581497798,19.608574984749282
5.5903083700440535,19.22659237756718
5.610132158590309,18.848248686962567
5.6299559471365646,18.475317978849898
5.64977973568282,18.109664070333164
5.669603524229076,17.753237079569214
5.689427312775331,17.408067143896098
5.709251101321586,17.07625464290293
5.729074889867842,16.759956244027265
5.748898678414098,16.461366126062025
5.768722466960353,16.182691854078683
5.788546255506609,15.926124600347231
5.808370044052864,15.693803746156613
5.82819383259912,15.487776361524345
5.848017621145375,15.309952624162133
5.867841409691631,15.162058857655573
5.887665198237886,15.045590463246947
5.907488986784142,14.961767487937536
5.927312775330397,14.911495805251414
5.9471365638766525,14.895336794237954
5.966960352422908,14.913487944399971
5.986784140969164,14.965776014507595
6.00660792951542,15.051663329612815
6.026431718061675,15.170266666935431
6.04625550660793,15.32038713296906
6.066079295154186,15.5005486260935
6.085903083700441,15.709042010809204
6.105726872246697,15.94397202862886
6.125550660792952,16.20330419554592
6.145374449339208,16.48490939815024
6.1651982378854635,16.78660449158161
6.185022026431718,17.10618782037148
6.204845814977975,17.441469148827025
6.224669603524229,17.790293952136306
6.244493392070486,18.150562362669735
6.264317180616741,18.52024329002331
6.284140969162996,18.897384354153374
6.303964757709252,19.28011831095598
6.323788546255507,19.666666632236506
6.3436123348017635,20.055340848109857
6.363436123348018,20.44454218627182
6.3832599118942746,20.83275996165979
6.403083700440529,21.21856909012177
6.422907488986785,21.600627025913056
6.44273127753304,21.977670357778432
6.462555066079296,22.348511242995166
6.482378854625551,22.712033812915365
6.502202643171807,23.0671906464897
6.5220264317180625,23.41299937891445
6.541850220264318,23.748539489752822
6.561674008810574,24.072949297514274
6.581497797356829,24.38542317469714
6.601321585903085,24.68520898781896
6.62114537444934,24.971605760213507
6.640969162995596,25.243961550745432
6.6607929515418505,25.50167153857374
6.680616740088107,25.744176302287116
6.700440528634362,25.970960280820687
6.720264317180618,26.181550403302282
6.740088105726873,26.375514875179192
6.759911894273129,26.552462108506536
6.779735682819384,26.712039785022412
6.799559471365639,26.853934041526237
6.819383259911895,26.977868768048584
6.83920704845815,27.08360501032222
6.859030837004407,27.170940469101467
6.8788546255506615,27.2397090899179
6.898678414096917,27.289780737891665
6.918502202643173,27.32106095323212
6.938325991189428,27.333490784064427
6.958149779735684,27.32704669420111
6.977973568281939,27.30174054445421
6.997797356828195,27.25761964704823
7.01762114537445,27.194766893660216
7.037444933920705,27.113300958579984
7.0572687224669615,27.013376579460772
7.077092511013216,26.895184919120215
7.096916299559473,26.758954012856112
7.116740088105728,26.604949306765302
7.136563876651983,26.433474293591747
7.156387665198239,26.24487125368107
7.176211453744494,26.03952210966531
7.19603524229075,25.81784940453573
7.215859030837005,25.580317413746823
7.235682819383261,25.3274334028968
7.255506607929516,25.059749043290108
7.275330396475772,24.777861998230847
7.295154185022027,24.482417693110385
7.314977973568283,24.174111282104345
7.334801762114538,23.853689823387988
7.354625550660794,23.521954672973518
7.374449339207049,23.179764104252587
7.394273127753305,22.82803615568224
7.4140969162995605,22.467751702285224
7.433920704845816,22.099957737105267
7.453744493392072,21.725770835715497
7.473568281938327,21.3463807594077
7.493392070484583,20.963054129763094
7.513215859030838,20.57713807777481
7.533039647577093,20.190063733388445
7.552863436123348,19.803349375166814
7.572687224669605,19.41860300399612
7.59251101321586,19.03752403918174
7.612334801762115,18.66190376086831
7.6321585903083715,18.293624042091363
7.651982378854627,17.934653832005147
7.671806167400882,17.5870427772964
7.691629955947137,17.252911313889015
7.711453744493394,16.934436542637773
7.731277533039649,16.633833241801117
7.751101321585904,16.353329489204736
7.7709251101321595,16.095136590806206
7.790748898678416,15.861413356037128
7.81057268722467,15.654225226107197
7.830396475770926,15.475499329516062
7.850220264317182,15.326977160725697
7.870044052863436,15.210167174351175
7.889867841409693,15.126300055902492
7.909691629955948,15.076289662200852
7.929515418502204,15.060702530472243
7.9493392070484585,15.07973839245844
7.969162995594715,15.133223324620154
7.9889867841409705,15.220616116305637
8.008810572687224,15.34102729920904
8.02863436123348,15.493249229329688
8.048458149779737,15.675794802123688
8.068281938325994,15.8869419122487
8.088105726872246,16.124780668293877
8.107929515418503,16.387260598819584
8.12775330396476,16.672235549951026
8.147577092511014,16.97750456812574
8.167400881057269,17.300847681907868
8.187224669603525,17.640056064833512
8.207048458149782,17.992956528033165
8.226872246696036,18.35743063660616
8.246696035242293,18.731428969325638
8.266519823788547,19.112981163170677
8.286343612334802,19.5002024249012
8.306167400881058,19.89129717485839
8.325991189427315,20.284560434367695
8.345814977973568,20.678377494419447
8.365638766519824,21.07122232214308
8.38546255506608,21.461655081374733
8.405286343612337,21.84831906946801
8.42511013215859,22.229937307079474
8.444933920704846,22.60530896194242
8.464757709251103,22.973305741496635
8.484581497797357,23.332868351917078
8.504405286343614,23.68300309151045
8.524229074889869,24.02277862346484
8.544052863436125,24.351322955408662
8.56387665198238,24.667820640128724
8.583700440528636,24.971510202210933
8.60352422907489,25.261681788543427
8.623348017621145,25.5376750359293
8.643171806167402,25.798877145990613
8.662995594713658,26.044721155702234
8.682819383259913,26.27468439095512
8.702643171806168,26.488287090271008
8.722466960352424,26.68509118598178
8.74229074889868,26.864699230710453
8.762114537444935,27.026753457733665
8.78193832599119,27.17093496469537
8.801762114537446,27.29696301111722
8.821585903083701,27.404594421175705
8.841409691629957,27.49362308425991
8.861233480176212,27.563879546870485
8.881057268722468,27.615230690458347
8.900881057268723,27.647579490825198
8.92070484581498,27.660864855717595
8.940528634361234,27.655061538238478
8.960352422907489,27.630180124685026
8.980176211453745,27.586267096396092
9.000000000000002,27.523404966167544
9.019823788546258,27.441712490771742
9.039647577092511,27.341344962103918
9.059471365638768,27.222494580478028
9.079295154185024,27.085390914610787
9.099118942731279,26.93030145386614
9.118942731277533,26.75753225938112
9.13876651982379,26.56742872175364
9.158590308370046,26.360376434030478
9.1784140969163,26.136802189773476
9.198237885462555,25.897175116972512
9.218061674008812,25.642007959479987
9.237885462555067,25.37185851839787
9.257709251101323,25.087331266383508
9.27753303964758,24.789079148040248
9.297356828193834,24.477805579280794
9.317180616740089,24.15426665760458
9.337004405286345,23.819273593364983
9.356828193832602,23.473695368994758
9.376651982378855,23.118461628401036
9.396475770925111,22.754565791816987
9.416299559471367,22.383068381669933
9.436123348017622,22.005100531723155
9.455947136563877,21.621867633955627
9.475770925110133,21.234653054314336
9.49559471365639,20.8448218184563
9.515418502202644,20.453824130713752
9.5352422907489,20.06319854269066
9.555066079295155,19.67457453136456
9.57488986784141,19.289674180212184
9.594713656387666,18.910312581682838
9.614537444933923,18.53839649802643
9.634361233480178,18.17592073524555
9.654185022026432,17.824961610301255
9.674008810572689,17.48766683726002
9.693832599118945,17.1662411409079
9.713656387665198,16.86292694767457
9.733480176211454,16.579979627178226
9.75330396475771,16.319636985971705
9.773127753303967,16.084083064137737
9.792951541850222,15.875406757057076
9.812775330396477,15.695556358343618
9.832599118942733,15.546291746051939
9.852422907488988,15.42913653288959
9.872246696035244,15.345332969085502
9.892070484581499,15.29580261458549
9.911894273127754,15.281115696034528
9.93171806167401,15.30147159217394
9.951541850220266,15.356692076179815
9.971365638766521,15.446227885277562
9.991189427312776,15.569178042520381
10.011013215859032,15.724320299390254
10.030837004405289,15.91015025608736
10.050660792951543,16.124926248201767
10.070484581497798,16.366716990240842
10.090308370044054,16.63344919611205
10.11013215859031,16.92295286455239
10.129955947136565,17.233002514657493
10.14977973568282,17.561353280368476
10.169603524229077,17.90577134367778
10.189427312775331,18.264058655379557
10.209251101321588,18.634072239148082
10.229074889867842,19.013738601549832
10.248898678414099,19.401063893285514
10.268722466960353,19.794140508071607
10.28854625550661,20.19115078863602
10.308370044052865,20.590368455364718
10.32819383259912,20.990158299150586
10.348017621145376,21.38897459845389
10.367841409691632,21.785358639938696
10.387665198237887,22.177935647458412
10.407488986784141,22.56541135832202
10.427312775330398,22.946568429659884
10.447136563876654,23.320262811214327
10.466960352422909,23.685420183246766
10.486784140969164,24.041032528423525
10.50660792951542,24.386154883338843
10.526431718061675,24.719902297630018
10.546255506607931,25.041447015388826
10.566079295154186,25.350015883874693
10.585903083700442,25.644887987622525
10.605726872246697,25.925392501278136
10.625550660792953,26.19090675137844
10.645374449339208,26.44085447541279
10.665198237885463,26.674704265537542
10.685022026431719,26.891968184020328
