Time (s),Filtered Signal
0.0,-0.03737323425591804
0.03337000366703337,0.1722920194087521
0.06674000733406674,0.489466601668092
0.1001100110011001,0.9593669452995816
0.13348001466813347,1.5335858689881092
0.16685001833516683,2.083864505368017
0.2002200220022002,2.4551436268101
0.2335900256692336,2.5327343940410496
0.26696002933626695,2.2919667652239117
0.3003300330033003,1.8077808005634015
0.33370003667033366,1.221572330450749
0.36707004033736707,0.682841121380329
0.4004400440044004,0.293665932286554
0.4338100476714338,0.08019080893443761
0.4671800513384672,0.00019744808162336727
0.5005500550055005,-0.02207722037323629
0.5339200586725339,-0.05434410458796611
0.5672900623395672,-0.12859191125335215
0.6006600660066006,-0.23799034984294676
0.634030069673634,-0.354821706826028
0.6674000733406673,-0.45531747461993566
0.7007700770077008,-0.5355798571798747
0.7341400806747341,-0.6101277176364267
0.7675100843417675,-0.6961919424336602
0.8008800880088008,-0.7956634048405873
0.8342500916758342,-0.8874324398499203
0.8676200953428675,-0.9355884507375214
0.9009900990099009,-0.9084620951994458
0.9343601026769344,-0.7965865082299116
0.9677301063439677,-0.6186007128438343
1.001100110011001,-0.4119469860303829
1.0344701136780343,-0.21457516299492901
1.0678401173450678,-0.048778143957304156
1.1012101210121013,0.08396599465638949
1.1345801246791345,0.19567709680445725
1.167950128346168,0.29817448265921975
1.2013201320132012,0.39219527199639065
1.2346901356802347,0.46572897523985135
1.268060139347268,0.5015409491748873
1.3014301430143014,0.4880828978160323
1.3348001466813346,0.42638909264833197
1.368170150348368,0.3288031844234843
1.4015401540154016,0.21107467377797876
1.4349101576824348,0.08371762107941412
1.4682801613494683,-0.051200225907202516
1.5016501650165015,-0.195489679718973
1.535020168683535,-0.3454769399708211
1.5683901723505682,-0.4842530232546688
1.6017601760176017,-0.5814016180253532
1.6351301796846351,-0.6020023207958313
1.6685001833516684,-0.5215273017629193
1.7018701870187019,-0.3397634296898876
1.735240190685735,-0.08678892235685771
1.7686101943527686,0.18274151396959695
1.8019801980198018,0.4057217262359112
1.8353502016868353,0.5312316142767394
1.8687202053538687,0.5375919125071835
1.902090209020902,0.43898474716917146
1.9354602126879354,0.2790324985509918
1.9688302163549687,0.11414774812682967
2.002200220022002,-0.006377234948712032
2.0355702236890356,-0.055558650967797496
2.0689402273560686,-0.03369717042919813
2.102310231023102,0.037629315223285734
2.1356802346901356,0.1286037771373121
2.169050238357169,0.21464891734893835
2.2024202420242025,0.284280468388207
2.2357902456912355,0.3385864430930307
2.269160249358269,0.3840079309295864
2.3025302530253025,0.4233455565147915
2.335900256692336,0.45029416283835383
2.369270260359369,0.45025652372868813
2.4026402640264024,0.4064060152691171
2.436010267693436,0.3073326385529927
2.4693802713604693,0.15252887039591292
2.502750275027503,-0.04602995010121451
2.536120278694536,-0.2657019910045494
2.5694902823615693,-0.47695656660184044
2.6028602860286028,-0.6481987119361555
2.636230289695636,-0.751516755282211
2.6696002933626692,-0.7690973034285914
2.7029702970297027,-0.6989404442435635
2.736340300696736,-0.5574909626765836
2.7697103043637696,-0.3770837805604209
2.803080308030803,-0.19797925277684006
2.836450311697836,-0.05733698973705146
2.8698203153648696,0.020790938113402473
2.903190319031903,0.03066469335330762
2.9365603226989365,-0.01619114473455845
2.96993032636597,-0.09671456813253226
3.003300330033003,-0.1833382328310206
3.0366703337000365,-0.24950265049782983
3.07004033736707,-0.2731041831758066
3.1034103410341034,-0.23932014174203117
3.1367803447011364,-0.14415654671890876
3.17015034836817,0.0020790902402497854
3.2035203520352034,0.17434520041006643
3.236890355702237,0.33825758336180345
3.2702603593692703,0.46096631546271966
3.3036303630363033,0.5230854034601696
3.3370003667033368,0.5253417482859021
3.3703703703703702,0.4857933936119864
3.4037403740374037,0.4287553360145947
3.4371103777044367,0.371651150308199
3.47048038137147,0.31747992561214033
3.5038503850385037,0.2572915616600701
3.537220388705537,0.1809104536475233
3.5705903923725706,0.08893657383298335
3.6039603960396036,-0.001939978972343772
3.637330399706637,-0.0643897394425443
3.6707004033736705,-0.07434705725110194
3.704070407040704,-0.026004528093047395
3.7374404107077375,0.06030233855131352
3.7708104143747705,0.14194490560176373
3.804180418041804,0.1684923809304648
3.8375504217088374,0.10097522146332384
3.870920425375871,-0.07172429544990863
3.904290429042904,-0.3255591993257711
3.9376604327099374,-0.6058020915341321
3.971030436376971,-0.8420470703704215
4.004400440044004,-0.9691006571128852
4.037770443711038,-0.9471559079963836
4.071140447378071,-0.7745514511626811
4.104510451045105,-0.48849383147332337
4.137880454712137,-0.15305409671716205
4.171250458379171,0.1616445580704059
4.204620462046204,0.4016265993770483
4.237990465713238,0.5444123789979995
4.271360469380271,0.6017307511332277
4.304730473047305,0.6087548857143465
4.338100476714338,0.6045466413473874
4.3714704803813715,0.6122218178045323
4.404840484048405,0.6277368070881867
4.438210487715438,0.622715406421082
4.471580491382471,0.5605711023651241
4.5049504950495045,0.41882873601047294
4.538320498716538,0.20689402001841703
4.571690502383571,-0.03040573522083243
4.605060506050605,-0.22727263530020855
4.638430509717638,-0.32459415870311337
4.671800513384672,-0.29869802887156643
4.705170517051705,-0.17690963153942257
4.738540520718738,-0.030447280322686145
4.771910524385771,0.05447588940314317
4.805280528052805,0.015349272318830574
4.838650531719838,-0.15625302509497904
4.872020535386872,-0.40803711851903235
4.905390539053905,-0.6486409534861971
4.938760542720939,-0.7881604451308808
4.972130546387972,-0.7783635728777151
5.005500550055006,-0.6331825976779216
5.038870553722038,-0.41976494092868044
5.072240557389072,-0.22497593789376263
5.105610561056105,-0.11419350717317064
5.138980564723139,-0.10249461738788491
5.172350568390172,-0.1515522541619106
5.2057205720572055,-0.19248882648580823
5.239090575724239,-0.16226089171177246
5.272460579391272,-0.03510124891944765
5.305830583058306,0.16612788229734246
5.3392005867253385,0.38308462800774923
5.372570590392372,0.5515331199865205
5.405940594059405,0.6314911483063048
5.439310597726439,0.6227657633963714
5.472680601393472,0.5591770772687708
5.506050605060506,0.4862534899601526
5.539420608727539,0.43555805649652696
5.572790612394573,0.40985843168910757
5.606160616061606,0.38680827834132875
5.63953061972864,0.33827271551361904
5.672900623395672,0.253476223151765
5.706270627062706,0.15157435610763945
5.739640630729739,0.07470032134534928
5.773010634396773,0.0635193043120176
5.806380638063806,0.12814695783140204
5.83975064173084,0.23178755876899318
5.873120645397873,0.2993337885511907
5.9064906490649065,0.25026319505942207
5.93986065273194,0.04102588783383427
5.9732306563989725,-0.3051657729041662
6.006600660066006,-0.6986785760180327
6.0399706637330395,-1.0166115651217769
6.073340667400073,-1.1541143386381416
6.106710671067106,-1.069199587287226
6.14008067473414,-0.7994572079696824
6.173450678401173,-0.44346947531674047
6.206820682068207,-0.1172577004715448
6.24019068573524,0.09269400905686465
6.273560689402273,0.15864916315888136
6.306930693069306,0.11241741157545981
6.34030069673634,0.02138953590820603
6.373670700403373,-0.04591580978320448
6.407040704070407,-0.048069583561664096
6.44041070773744,0.018422388651544618
6.473780711404474,0.12707875659698153
6.507150715071507,0.24095576897359808
6.540520718738541,0.3325193069384638
6.573890722405573,0.3943898241786283
6.607260726072607,0.43716116359631885
6.64063072973964,0.4771343515274681
6.6740007334066735,0.5214483893112928
6.707370737073707,0.5589259221366292
6.7407407407407405,0.5618569737263521
6.774110744407774,0.4984146186074406
6.807480748074807,0.3499320938738864
6.840850751741841,0.12438739865120058
6.8742207554088735,-0.1413602644589655
6.907590759075907,-0.3929989673820411
6.94096076274294,-0.5794984873315396
6.974330766409974,-0.6735496571755684
7.007700770077007,-0.6813720273403011
7.041070773744041,-0.6363037491923789
7.074440777411074,-0.5788594266692765
7.107810781078108,-0.5334706438437881
7.141180784745141,-0.49456247057097075
7.174550788412174,-0.43015802144579157
7.207920792079207,-0.3019124664578445
7.241290795746241,-0.09134167299428338
7.274660799413274,0.18188604771281305
7.308030803080308,0.4601384777859133
7.341400806747341,0.6678158509569566
7.3747708104143745,0.7424777747479253
7.408140814081408,0.662725329420966
7.4415108177484415,0.4597704118271383
7.474880821415475,0.20709705051164626
7.5082508250825075,-0.007414518970655602
7.541620828749541,-0.11470807790844031
7.5749908324165744,-0.08879158184269781
7.608360836083608,0.04783920955310464
7.641730839750641,0.23849566526151236
7.675100843417675,0.4181943317030315
7.708470847084708,0.5383807501234336
7.741840850751742,0.5795841924214686
7.775210854418775,0.5482798332392892
7.808580858085808,0.46269001004191274
7.841950861752841,0.33745414653214556
7.875320865419875,0.17643813329315988
7.908690869086908,-0.02285714211859195
7.942060872753942,-0.25726858331714236
7.975430876420975,-0.5070684338285074
8.008800880088009,-0.7343593115805037
8.042170883755041,-0.8934794198427362
8.075540887422076,-0.9489818884103934
8.108910891089108,-0.8919833422274356
8.142280894756142,-0.7459478169509653
8.175650898423175,-0.5581586171327094
8.20902090209021,-0.3804886504297012
8.242390905757242,-0.24872007307143887
8.275760909424275,-0.17054656217828482
8.309130913091309,-0.1279128470124038
8.342500916758341,-0.09176981940862397
8.375870920425376,-0.040731978843797215
8.409240924092408,0.02675710468640551
8.442610927759443,0.09316834538262657
8.475980931426475,0.13441340713070354
8.50935093509351,0.13636783272282033
8.542720938760542,0.10567971524371193
8.576090942427575,0.06884013645352721
8.60946094609461,0.06033108357467451
8.642830949761642,0.10658059389360984
8.676200953428676,0.21423385357677813
8.709570957095709,0.36824512514972507
8.742940960762743,0.5395532701124214
8.776310964429776,0.6970587570212375
8.80968096809681,0.8170987956758684
8.843050971763843,0.886204004435165
8.876420975430875,0.8976833350324236
8.90979097909791,0.8464043238866308
8.943160982764942,0.7267526903358922
8.976530986431976,0.5360955208362276
9.009900990099009,0.2820287233193798
9.043270993766043,-0.011257123779704207
9.076640997433076,-0.3023868314796397
9.11001100110011,-0.5403354987029932
9.143381004767143,-0.67846993859798
9.176751008434175,-0.6901001308479199
9.21012101210121,-0.5794210017895349
9.243491015768242,-0.38333212797314725
9.276861019435277,-0.1630448437425867
9.31023102310231,0.012054354863596604
9.343601026769344,0.08352702771402633
9.376971030436376,0.02068301171620984
9.41034103410341,-0.16945826339530592
9.443711037770443,-0.4420310458959266
9.477081041437476,-0.7249785791160227
9.51045104510451,-0.9388251769181102
9.543821048771543,-1.0206921403431015
9.577191052438577,-0.9448952365211646
9.61056105610561,-0.7319096345319451
9.643931059772644,-0.44073274715654165
9.677301063439677,-0.1463875331269893
9.710671067106711,0.08841539561696136
9.744041070773743,0.2348119575354416
9.777411074440776,0.3026917613475085
9.81078107810781,0.3275437202802728
9.844151081774843,0.3472613875540116
9.877521085441877,0.3819533688755156
9.91089108910891,0.4273824729572383
9.944261092775944,0.46423300713571114
9.977631096442977,0.4760274311376649
10.011001100110011,0.4637452880719585
10.044371103777044,0.4477517147051986
10.077741107444076,0.4557854187511413
10.11111111111111,0.5044246025152511
10.144481114778143,0.5853998955030745
10.177851118445178,0.665146635600541
10.21122112211221,0.698164626652497
10.244591125779245,0.6469776875434821
10.277961129446277,0.4983036316851048
10.311331133113312,0.26790198360907613
10.344701136780344,-0.006806218590257523
10.378071140447377,-0.28108294717408044
10.411441144114411,-0.5166020329577392
10.444811147781444,-0.6891267193274432
10.478181151448478,-0.7891727251208858
10.51155115511551,-0.818394390933569
10.544921158782545,-0.7853993942571353
10.578291162449577,-0.7031101408098
10.611661166116612,-0.587397477158209
10.645031169783644,-0.4553821881308065
10.678401173450677,-0.32228760304481724
10.711771177117711,-0.19739471851992776
10.745141180784744,-0.08111757998425077
10.778511184451778,0.034633476062236754
10.81188118811881,0.16196473271603543
10.845251191785845,0.30959909249297807
10.878621195452878,0.47541390726195437
10.911991199119912,0.6421794721386382
10.945361202786945,0.7787676639485032
10.978731206453979,0.847124571559043
11.012101210121012,0.8131285947282624
11.045471213788044,0.6579490139276817
11.078841217455079,0.38628380981658034
11.112211221122111,0.028907864702636017
11.145581224789145,-0.36130736876021435
11.178951228456178,-0.7191369750600557
11.212321232123212,-0.9806438117669658
11.245691235790245,-1.0980547455441119
11.27906123945728,-1.052431280830397
11.312431243124312,-0.8602280722039578
11.345801246791344,-0.5705416639218913
11.379171250458379,-0.2523738276102602
11.412541254125411,0.024936960569762117
11.445911257792446,0.2116048419977535
11.479281261459478,0.2902824212105853
11.512651265126513,0.277252707052794
11.546021268793545,0.21221568419802708
11.57939127246058,0.14169345944528974
11.612761276127612,0.10309460110163125
11.646131279794645,0.11498808556506397
11.67950128346168,0.1754494708297567
11.712871287128712,0.2668209416127557
11.746241290795746,0.36361588637333075
11.779611294462779,0.4407028597446243
11.812981298129813,0.4801285030314423
11.846351301796846,0.4757217546999369
11.87972130546388,0.4346418913381046
11.913091309130913,0.37495642847026833
11.946461312797945,0.3190460774577049
11.97983131646498,0.28436118482854034
12.013201320132012,0.27500781475673236
12.046571323799046,0.2783936981281125
12.079941327466079,0.26961267944520495
12.113311331133113,0.22262398845201442
12.146681334800146,0.12340590024185007
12.18005133846718,-0.021449755179589643
12.213421342134213,-0.18543857995362706
12.246791345801245,-0.3323494346755406
12.28016134946828,-0.4313879210390096
12.313531353135312,-0.4701441930420404
12.346901356802347,-0.459380372301026
12.38027136046938,-0.427552322001448
12.413641364136414,-0.4077901722454085
12.447011367803446,-0.4233953945882296
12.48038137147048,-0.47823283876999545
12.513751375137513,-0.5557414827958911
12.547121378804546,-0.6262154070096055
12.58049138247158,-0.6586317817854961
12.613861386138613,-0.632028379768937
12.647231389805647,-0.5423117411747476
12.68060139347268,-0.40249789604091224
12.713971397139714,-0.2367494780157696
12.747341400806746,-0.07058676100044887
12.78071140447378,0.07900405469485988
12.814081408140813,0.20954038945131628
12.847451411807846,0.3322103678970352
12.88082141547488,0.4639538960317587
12.914191419141913,0.6154470505821688
12.947561422808947,0.7804618228335052
12.98093142647598,0.9322783785889849
13.014301430143014,1.0301654128791626
13.047671433810047,1.0343141659756803
13.081041437477081,0.9231806616819247
13.114411441144114,0.7053440806913444
13.147781444811146,0.41996531867120335
13.18115144847818,0.12496540947546837
13.214521452145213,-0.12233983442904695
13.247891455812248,-0.2840438405972919
13.28126145947928,-0.35224707500989527
13.314631463146315,-0.3476473912377708
13.348001466813347,-0.3075406659086181
13.381371470480381,-0.26888497083529433
13.414741474147414,-0.2537162674201771
13.448111477814447,-0.2628288509792984
13.481481481481481,-0.2799418386982879
13.514851485148514,-0.28398447088230167
13.548221488815548,-0.2633924449132358
13.58159149248258,-0.22504983487643412
13.614961496149615,-0.19266585883977716
13.648331499816647,-0.19447765410177348
13.681701503483682,-0.24606785551743146
13.715071507150714,-0.33763416296363646
13.748441510817747,-0.43377569252694487
13.781811514484781,-0.48770727096481803
13.815181518151814,-0.4636808958555737
13.848551521818848,-0.3558653165159442
13.88192152548588,-0.19267507364124747
13.915291529152915,-0.022873414468485773
13.948661532819948,0.10997259177250607
13.982031536486982,0.1907988327047494
14.015401540154015,0.24051226353855626
14.048771543821047,0.3023302308869841
14.082141547488082,0.41365966257220793
14.115511551155114,0.5789681633333461
14.148881554822148,0.7594294329852356
14.182251558489181,0.8864737897489857
14.215621562156215,0.8933878141868348
14.248991565823248,0.7489834635339583
14.282361569490282,0.47575047139578
14.315731573157315,0.14275791832984325
14.349101576824348,-0.16337042168490626
14.382471580491382,-0.3748683429374049
14.415841584158414,-0.468676167610238
14.449211587825449,-0.46978744951049967
14.482581591492481,-0.43208664509730765
14.515951595159516,-0.40797412709403896
14.549321598826548,-0.4228571082206331
14.582691602493583,-0.46675689565662526
14.616061606160615,-0.5054250132746788
14.649431609827648,-0.5030377485342181
14.682801613494682,-0.4431823552965028
14.716171617161715,-0.3369268851334571
14.749541620828749,-0.21466143343810576
14.782911624495782,-0.10749989212972301
14.816281628162816,-0.02938500149195098
14.849651631829849,0.02996673011012179
14.883021635496883,0.09756927089382128
14.916391639163916,0.1995425194380511
14.94976164283095,0.34325715204431995
14.983131646497982,0.5091837837521319
15.016501650165015,0.6570865830947021
15.04987165383205,0.7434562283301561
15.083241657499082,0.7410642265921732
15.116611661166116,0.6505209182659111
15.149981664833149,0.49825727087512084
15.183351668500183,0.3228077264421563
15.216721672167216,0.15736759421283078
15.25009167583425,0.01793064764390261
15.283461679501283,-0.09763112614047127
15.316831683168315,-0.20079792674143604
15.35020168683535,-0.3004279303042263
15.383571690502382,-0.394937480313152
15.416941694169417,-0.472420875518881
15.45031169783645,-0.517207451694732
15.483681701503484,-0.5179403790776625
15.517051705170516,-0.4726292615040315
15.55042170883755,-0.3892769232930251
15.583791712504583,-0.2837370912963564
15.617161716171616,-0.17710423444170895
15.65053171983865,-0.09319596349951727
15.683901723505683,-0.054676583683092986
15.717271727172717,-0.07634943802692228
15.75064173083975,-0.1565891905852576
15.784011734506784,-0.2710458422099509
15.817381738173816,-0.37394807798321666
15.85075174184085,-0.40994059458940374
15.884121745507883,-0.3341344771440497
15.917491749174916,-0.1327350781349439
15.95086175284195,0.16551751971007175
15.984231756508983,0.49406120345489407
16.017601760176017,0.7694748496841144
16.05097176384305,0.9210230178856514
16.084341767510082,0.9164232979134197
16.117711771177117,0.7725704217217357
16.15108177484415,0.5466424291169983
16.184451778511182,0.31204603788894525
16.217821782178216,0.13036493200209465
16.25119178584525,0.03146182063931008
16.284561789512285,0.008997179860673776
16.317931793179316,0.030855961087927864
16.35130179684635,0.057481913723579484
16.384671800513384,0.05886408717992147
16.41804180418042,0.023334966137584356
16.45141180784745,-0.04347091252740595
16.484781811514484,-0.1261699684286831
16.51815181518152,-0.20810955393376998
16.55152181884855,-0.2764522299506629
16.584891822515583,-0.32303558584981706
16.618261826182618,-0.3433434240925407
16.651631829849652,-0.33659025851564284
16.685001833516683,-0.3078204382340668
16.718371837183717,-0.26991263074787525
16.75174184085075,-0.24207586782704726
16.785111844517782,-0.24318311814320487
16.818481848184817,-0.28209003553972284
16.85185185185185,-0.3501940759157048
16.885221855518886,-0.4214185187787178
16.918591859185916,-0.46114576576337135
16.95196186285295,-0.4404415167239965
16.985331866519985,-0.34847871774124123
17.01870187018702,-0.19673113459893066
17.05207187385405,-0.013052514700293663
17.085441877521085,0.17056044534955747
17.11881188118812,0.3294553343325232
17.15218188485515,0.45115966408965785
17.185551888522184,0.532413272513511
17.21892189218922,0.5724312063196121
17.252291895856253,0.5686314465840054
17.285661899523284,0.5187917013169244
17.319031903190318,0.428322357713024
