Time (s),Filtered Signal
0.0,-0.01679096574941591
0.03337028824833703,0.5892089605016991
0.06674057649667406,1.1016758060432355
0.10011086474501109,1.4627197883098528
0.13348115299334812,1.6684204463694636
0.16685144124168516,1.7617178480450086
0.20022172949002218,1.8035378595496898
0.2335920177383592,1.8365306194551962
0.26696230598669624,1.8593225306856382
0.3003325942350333,1.8241670653199842
0.3337028824833703,1.6598378590280543
0.3670731707317073,1.3097126979550524
0.40044345898004435,0.7676297255156651
0.4338137472283814,0.0945179172717704
0.4671840354767184,-0.5931267059045757
0.5005543237250555,-1.1595732198818127
0.5339246119733925,-1.4965447905129414
0.5672949002217295,-1.5609180706749552
0.6006651884700666,-1.3877722917635047
0.6340354767184035,-1.073812164546135
0.6674057649667406,-0.738953341161393
0.7007760532150776,-0.4827934976699927
0.7341463414634146,-0.3537921600407835
0.7675166297117517,-0.3420928497511503
0.8008869179600887,-0.3957254111533505
0.8342572062084257,-0.44997767438136776
0.8676274944567628,-0.4555495088815925
0.9009977827050998,-0.3939775198342072
0.9343680709534368,-0.2764596752476205
0.9677383592017739,-0.13035585655034684
1.001108647450111,0.017581067769491546
1.0344789356984478,0.1524848804889624
1.067849223946785,0.27284637235609777
1.101219512195122,0.38366803990445947
1.134589800443459,0.4869221029574055
1.167960088691796,0.5755321848229642
1.2013303769401331,0.6343393780933186
1.23470066518847,0.6472329018898787
1.268070953436807,0.6062066229208651
1.3014412416851442,0.5172207014143354
1.3348115299334813,0.3996353613189992
1.3681818181818182,0.2794589073125599
1.4015521064301553,0.1798011434207797
1.4349223946784924,0.11311171453493243
1.4682926829268292,0.07851397469587096
1.5016629711751663,0.06469687103520878
1.5350332594235034,0.05609184036438594
1.5684035476718403,0.03891030739432768
1.6017738359201774,0.004460084395503669
1.6351441241685145,-0.050773711451704104
1.6685144124168514,-0.12685302917607486
1.7018847006651885,-0.22174883162799552
1.7352549889135256,-0.3309155421587361
1.7686252771618625,-0.4453073515124611
1.8019955654101996,-0.5496060410754183
1.8353658536585367,-0.6229160167806449
1.8687361419068735,-0.6432183472992824
1.9021064301552106,-0.594826596893732
1.9354767184035477,-0.47597965892834804
1.9688470066518848,-0.3027942556098498
2.002217294900222,-0.10687604182977009
2.035587583148559,0.07333051756565477
2.0689578713968957,0.20429619017475292
2.102328159645233,0.2674967765461676
2.13569844789357,0.2638759487223653
2.1690687361419068,0.2114150345741178
2.202439024390244,0.13752930385716372
2.235809312638581,0.06972862212316447
2.269179600886918,0.027866697720289983
2.302549889135255,0.019914636750058216
2.335920177383592,0.041601076229593394
2.369290465631929,0.07926010313753538
2.4026607538802662,0.11492215664220079
2.436031042128603,0.132622361411672
2.46940133037694,0.12461186541190676
2.5027716186252773,0.09564021428018885
2.536141906873614,0.06327115247928368
2.569512195121951,0.05294738139860181
2.6028824833702884,0.08838175765923867
2.6362527716186253,0.18018781101424702
2.6696230598669626,0.3173071372126512
2.7029933481152995,0.46567459470033323
2.7363636363636363,0.5763106637514159
2.7697339246119737,0.6012585781198291
2.8031042128603105,0.511971724620273
2.8364745011086474,0.31272414931927023
2.8698447893569847,0.042701806137243455
2.9032150776053216,-0.2353359953416065
2.9365853658536585,-0.4561698101618933
2.969955654101996,-0.5747350530092328
3.0033259423503327,-0.5808861301529015
3.0366962305986696,-0.5001454415667852
3.070066518847007,-0.3803324051994773
3.1034368070953438,-0.2701060740103749
3.1368070953436806,-0.1988969584114781
3.170177383592018,-0.16694682079236556
3.203547671840355,-0.14956001099712357
3.2369179600886917,-0.11319094624687626
3.270288248337029,-0.035505065120678435
3.303658536585366,0.0803957579047863
3.337028824833703,0.2047253713973318
3.37039911308204,0.2936638082733688
3.403769401330377,0.30994494243587495
3.437139689578714,0.2413206493348642
3.470509977827051,0.10774535290763237
3.503880266075388,-0.04629753450663105
3.537250554323725,-0.17054117947701344
3.5706208425720622,-0.22971460791743303
3.603991130820399,-0.21683626470229944
3.637361419068736,-0.15369633080233358
3.6707317073170733,-0.0794679138343958
3.70410199556541,-0.03338594570007706
3.737472283813747,-0.03906444204913243
3.7708425720620844,-0.09627675430900806
3.8042128603104213,-0.18240427332699155
3.8375831485587586,-0.2620600935442607
3.8709534368070955,-0.30080972410204077
3.9043237250554323,-0.27789288171311965
3.9376940133037697,-0.193420351719576
3.9710643015521065,-0.0675115025062855
4.004434589800444,0.06818675217446171
4.037804878048781,0.1831140508197356
4.071175166297118,0.25922425868373283
4.1045454545454545,0.29632259582837966
4.137915742793791,0.3091236102666757
4.171286031042128,0.31767327248848837
4.204656319290466,0.33586653095703745
4.238026607538803,0.3636197913823043
4.27139689578714,0.38645689907182756
4.304767184035477,0.3827462515644988
4.3381374722838135,0.335256017262096
4.371507760532151,0.2416875150155564
4.404878048780488,0.11923954987703221
4.438248337028825,0.0007852372985649195
4.471618625277162,-0.07625644452332589
4.504988913525499,-0.08426756624678651
4.538359201773836,-0.01752096074412027
4.571729490022173,0.10282823647916806
4.60509977827051,0.233314512790315
4.638470066518847,0.3214046324527588
4.671840354767184,0.3232270515587888
4.705210643015521,0.21954807768617
4.738580931263858,0.02388867813162591
4.771951219512196,-0.22074971489103262
4.8053215077605325,-0.455846844921566
4.838691796008869,-0.6270441176627085
4.872062084257206,-0.7020942325642711
4.905432372505543,-0.6801226586040705
4.93880266075388,-0.5886964622150818
4.972172949002218,-0.4702713276370927
5.005543237250555,-0.3640846720973117
5.0389135254988915,-0.29139732863883383
5.072283813747228,-0.2502549781187032
5.105654101995565,-0.22143534175741034
5.139024390243902,-0.18207468071911742
5.17239467849224,-0.12000768602339136
5.205764966740577,-0.041662007900760634
5.239135254988914,0.030496136886223643
5.2725055432372505,0.06986588183237999
5.305875831485587,0.06114022035550751
5.339246119733925,0.011374336061556533
5.372616407982262,-0.04942276133002741
5.405986696230599,-0.07937307559827975
5.439356984478936,-0.042958369975742476
5.472727272727273,0.07186155058561224
5.5060975609756095,0.24577505108872513
5.539467849223947,0.43372119663178343
5.572838137472284,0.582307433913797
5.606208425720621,0.652062529850607
5.639578713968958,0.6350250131922212
5.672949002217295,0.559546659606705
5.706319290465632,0.4791199738256508
5.7396895787139695,0.4487884281527757
5.773059866962306,0.49860608180704913
5.806430155210643,0.6159611389138199
5.83980044345898,0.7457799398681378
5.873170731707317,0.8102614700875846
5.906541019955654,0.7408064826610817
5.939911308203992,0.5084687043473115
5.9732815964523285,0.1390798841335884
6.006651884700665,-0.2941652012285116
6.040022172949002,-0.6974368145503258
6.073392461197339,-0.990153412145916
6.106762749445676,-1.1311094327422853
6.140133037694014,-1.1265998219326594
6.173503325942351,-1.019477372870068
6.2068736141906875,-0.8666626729035516
6.240243902439024,-0.7164015080967957
6.273614190687361,-0.5944710811706703
6.306984478935698,-0.5027148657196531
6.340354767184036,-0.42730335617276227
6.373725055432373,-0.35078768005619815
6.40709534368071,-0.2621346568954562
6.4404656319290465,-0.1614205964687169
6.473835920177383,-0.05884776199153589
6.507206208425721,0.030207369719526644
6.540576496674058,0.09171190927261813
6.573946784922395,0.11890262924476633
6.607317073170732,0.11602533031107479
6.640687361419069,0.09883728624130769
6.674057649667406,0.09138102907825862
6.707427937915743,0.11930360556909042
6.74079822616408,0.20105615631492643
6.774168514412417,0.33946072271737854
6.807538802660754,0.5168522692648503
6.840909090909091,0.6966421471044181
6.874279379157428,0.8323231183566691
6.9076496674057655,0.881972253425455
6.941019955654102,0.823387488013194
6.974390243902439,0.6637253510475335
7.007760532150776,0.4390029865905293
7.041130820399113,0.20282358785161028
7.07450110864745,0.008414260404787526
7.107871396895788,-0.10885761882548427
7.1412416851441245,-0.1415223696179548
7.174611973392461,-0.10901651030704233
7.207982261640798,-0.046933604311525504
7.241352549889135,0.008224293245848124
7.274722838137472,0.03217471894780752
7.30809312638581,0.01889653743844244
7.341463414634147,-0.02173115048662142
7.3748337028824835,-0.07219586047947776
7.40820399113082,-0.11678781837415647
7.441574279379157,-0.14767107285503336
7.474944567627494,-0.16538040600297338
7.508314855875832,-0.1747146649165516
7.541685144124169,-0.1794402098912149
7.575055432372506,-0.17971892548559584
7.6084257206208425,-0.17443137148162535
7.641796008869179,-0.16734199634009714
7.675166297117517,-0.17294791373074442
7.708536585365854,-0.2166926642320671
7.741906873614191,-0.3261995696119691
7.775277161862528,-0.5149847906613569
7.808647450110865,-0.7656316488765066
7.842017738359202,-1.0224013171033737
7.875388026607539,-1.201056305920752
7.908758314855876,-1.2161325927248727
7.942128603104213,-1.016229602930042
7.97549889135255,-0.6114614672524912
8.008869179600888,-0.07851803344230014
8.042239467849225,0.4617037940485603
8.075609756097561,0.8857372421011711
8.108980044345898,1.110600489118535
8.142350332594235,1.1197320896123952
8.175720620842572,0.9618976824658683
8.209090909090909,0.7261151922895415
8.242461197339246,0.5058696559995631
8.275831485587583,0.3684684154155758
8.30920177383592,0.34008909820685496
8.342572062084257,0.40788993741739
8.375942350332595,0.5329289483784018
8.409312638580932,0.6652459775079244
8.442682926829269,0.7553798231229276
8.476053215077606,0.7617482455669168
8.509423503325943,0.6567237316804768
8.54279379157428,0.43363670761391776
8.576164079822616,0.11325094772374573
8.609534368070953,-0.25513629913929703
8.64290465631929,-0.6025641843474276
8.676274944567627,-0.8592194888121795
8.709645232815964,-0.9768542051071
8.743015521064303,-0.9448518746043819
8.77638580931264,-0.7919892861559945
8.809756097560976,-0.572874268801847
8.843126385809313,-0.3458858379281631
8.87649667405765,-0.15348645604345
8.909866962305987,-0.013668457460912407
8.943237250554324,0.07552036013420009
8.97660753880266,0.12374434724530331
9.009977827050998,0.13732584205954312
9.043348115299334,0.11615259324141781
9.076718403547671,0.059272982909803346
9.110088691796008,-0.026124788796341513
9.143458980044347,-0.11986385740290811
9.176829268292684,-0.19271232842034067
9.21019955654102,-0.2178370586664271
9.243569844789358,-0.18346309895930543
9.276940133037694,-0.0994281200923418
9.310310421286031,0.006207812175660529
9.343680709534368,0.0988346821760405
9.377050997782705,0.15146012457862615
9.410421286031042,0.15491777232916093
9.443791574279379,0.12016866809097798
9.477161862527716,0.07251716165869515
9.510532150776053,0.04063808998966657
9.543902439024391,0.04477141417766102
9.577272727272728,0.08836143212640087
9.610643015521065,0.15619616218934532
9.644013303769402,0.2199985034564334
9.677383592017739,0.2497293873867136
9.710753880266076,0.22633757651587644
9.744124168514412,0.15054190027002085
9.77749445676275,0.04345283778461871
9.810864745011086,-0.06167713108119611
9.844235033259423,-0.1330580221425571
9.87760532150776,-0.15307310293819576
9.910975609756099,-0.12423733154846996
9.944345898004435,-0.06597900430611521
9.977716186252772,-0.0044500888103079315
10.01108647450111,0.039153719412590056
10.044456762749446,0.056085520431509404
10.077827050997783,0.050454698372288054
10.11119733924612,0.0336315481065993
10.144567627494457,0.016615647541097244
10.177937915742794,0.004684402412087356
10.21130820399113,-0.0033948486431975696
10.244678492239467,-0.012247346795835366
10.278048780487804,-0.025578854372782005
10.311419068736143,-0.04350199410093521
10.34478935698448,-0.0627672025423254
10.378159645232817,-0.07913371261434965
10.411529933481154,-0.08994527659384938
10.44490022172949,-0.09523949980719262
10.478270509977827,-0.09699076622581332
10.511640798226164,-0.09736722784907306
10.545011086474501,-0.0973346930643395
10.578381374722838,-0.09640124327405805
10.611751662971175,-0.09329417844944633
10.645121951219512,-0.08668843498815072
10.67849223946785,-0.07525014845349645
10.711862527716187,-0.05706205486723142
10.745232815964524,-0.02927956616786538
10.778603104212861,0.011060823314777054
10.811973392461198,0.06495810656775909
10.845343680709535,0.12911323601311528
10.878713968957872,0.1950067777219376
10.912084257206208,0.2505911594016944
10.945454545454545,0.2843828374680793
10.978824833702882,0.2901742294647473
11.012195121951219,0.2698781057444426
11.045565410199556,0.23273784270514644
11.078935698447895,0.1910199155385324
11.112305986696231,0.1543296055444269
11.145676274944568,0.12563489268661543
11.179046563192905,0.10125949885248961
11.212416851441242,0.07484223715759232
11.245787139689579,0.04280388014129138
11.279157427937916,0.007716850870882435
11.312527716186253,-0.02299467548953535
11.34589800443459,-0.042763353498951995
11.379268292682926,-0.05265967972232724
11.412638580931263,-0.06453144088864343
11.4460088691796,-0.09726543342609346
11.479379157427939,-0.16679878439277263
11.512749445676276,-0.27471386180788904
11.546119733924613,-0.40222565304677294
11.57949002217295,-0.5145066242560723
11.612860310421286,-0.5750650677352195
11.646230598669623,-0.5638783000158444
11.67960088691796,-0.4896471668464682
11.712971175166297,-0.3882994898291497
11.746341463414634,-0.3064804150510246
11.77971175166297,-0.27706094928557784
11.813082039911308,-0.29908228664082637
11.846452328159646,-0.3335995773066294
11.879822616407983,-0.3194884779853686
11.91319290465632,-0.20299695519168093
11.946563192904657,0.03291733857467712
11.979933481152994,0.35431716579379546
12.01330376940133,0.685187062229559
12.046674057649668,0.9364622460882025
12.080044345898004,1.0422361111840692
12.113414634146341,0.9866026399396881
12.146784922394678,0.8090800840851149
12.180155210643015,0.5866944856379612
12.213525498891352,0.401371831857532
12.24689578713969,0.3072500062072179
12.280266075388028,0.3115444541706799
12.313636363636364,0.3758383332267452
12.347006651884701,0.4356555464342106
12.380376940133038,0.4288768413355992
12.413747228381375,0.3207205504953997
12.447117516629712,0.11537883522395162
12.480487804878049,-0.14927278237433225
12.513858093126386,-0.4199291089158452
12.547228381374723,-0.6496407772644757
12.58059866962306,-0.8128459651275092
12.613968957871396,-0.9075706399372016
12.647339246119735,-0.9458240235627676
12.680709534368072,-0.9393744226045291
12.714079822616409,-0.8899184964755085
12.747450110864746,-0.7892785984428893
12.780820399113082,-0.6288613472286373
12.81419068736142,-0.41204298128438527
12.847560975609756,-0.1615448056595798
12.880931263858093,0.0831723602902187
12.91430155210643,0.27795222674980313
12.947671840354767,0.3899855746767359
12.981042128603104,0.4105385719690663
13.014412416851442,0.35873892884486325
13.04778270509978,0.2748024037286232
13.081152993348116,0.20539259824995665
13.114523281596453,0.18668916704737937
13.14789356984479,0.23137824444985608
13.181263858093127,0.32425990056694737
13.214634146341464,0.42812971772454417
13.2480044345898,0.4979494669240555
13.281374722838137,0.49817910816750044
13.314745011086474,0.4166691095452302
13.348115299334811,0.26954493599420515
13.381485587583148,0.0949870469618152
13.414855875831487,-0.06154605905884268
13.448226164079824,-0.16436551467872373
13.48159645232816,-0.19962568647866608
13.514966740576497,-0.1775914260922779
13.548337028824834,-0.1249150644759933
13.581707317073171,-0.07129576404818548
13.615077605321508,-0.03708266387154998
13.648447893569845,-0.02722624641371366
13.681818181818182,-0.03331119977251739
13.715188470066519,-0.04132529435802234
13.748558758314855,-0.04046275339992707
13.781929046563192,-0.028597964597104827
13.815299334811531,-0.012499709696391624
13.848669623059868,-0.003757831216625089
13.882039911308205,-0.013156541644929185
13.915410199556542,-0.04617508220668866
13.948780487804878,-0.10092960752217335
13.982150776053215,-0.16837110217481088
14.015521064301552,-0.233906569351554
14.048891352549889,-0.27995282070255995
14.082261640798226,-0.2895656038243162
14.115631929046563,-0.2513006548528322
14.1490022172949,-0.16450754846025578
14.182372505543238,-0.04291400585911293
14.215742793791575,0.08617993392813651
14.249113082039912,0.18857640390132177
14.282483370288249,0.23443185765061464
14.315853658536586,0.2098913700051655
14.349223946784923,0.12374851304671199
14.38259423503326,0.005404569096812544
14.415964523281596,-0.10575699729680314
14.449334811529933,-0.17534409131672848
14.48270509977827,-0.18680425168045126
14.516075388026607,-0.14650770879032257
14.549445676274944,-0.07894414832852503
14.582815964523283,-0.014415154765458035
14.61618625277162,0.025048274472911223
14.649556541019956,0.03516409101298393
14.682926829268293,0.03017625615852766
14.71629711751663,0.03490541690872992
14.749667405764967,0.07198478554229873
14.783037694013304,0.15021958446880307
14.81640798226164,0.25930194201557877
14.849778270509978,0.3730979907479463
14.883148558758315,0.45980834820110034
14.916518847006651,0.4942530257122153
14.949889135254988,0.4667345511402474
14.983259423503327,0.38476976101614563
15.016629711751664,0.2675655835161245
15.05,0.13664623115980645
15.083370288248338,0.007709659925432885
15.116740576496674,-0.1122421715235899
15.150110864745011,-0.22161920113410283
15.183481152993348,-0.31754428769923687
15.216851441241685,-0.39061085930736955
15.250221729490022,-0.42535688417208156
15.283592017738359,-0.4074605647058299
15.316962305986696,-0.33433674569615307
15.350332594235034,-0.22282654374800717
15.383702882483371,-0.1080526357717618
15.417073170731708,-0.03162507925945016
15.450443458980045,-0.023391867825124892
15.483813747228382,-0.08552129602077896
15.517184035476719,-0.18789585597001773
15.550554323725056,-0.2788559456854418
15.583924611973393,-0.3075374469464085
15.61729490022173,-0.2476068241587576
15.650665188470066,-0.11081510966782986
15.684035476718403,0.05657365829150157
15.71740576496674,0.19315965076563174
15.750776053215079,0.24870688372122765
15.784146341463416,0.20542803567926982
15.817516629711752,0.08504149651199426
15.85088691796009,-0.06082158776436678
15.884257206208426,-0.17191534622645727
15.917627494456763,-0.2028377386702948
15.9509977827051,-0.13898304829123126
15.984368070953437,0.0007084819068575247
16.017738359201775,0.1738811271205516
16.05110864745011,0.3321339011802006
16.08447893569845,0.4376859764770109
16.117849223946784,0.47292724170410955
16.151219512195123,0.4407039278360545
16.184589800443458,0.35770562802291134
16.217960088691797,0.24572463256029453
16.251330376940132,0.1249984385882114
16.28470066518847,0.011332334122670686
16.31807095343681,-0.08383286661666373
16.351441241685144,-0.15235684843884068
16.384811529933483,-0.18885446459402408
16.418181818181818,-0.19107951176789434
16.451552106430157,-0.16081756180827525
16.48492239467849,-0.10462717564857518
16.51829268292683,-0.03385414027667956
16.551662971175165,0.03655643670095449
16.585033259423504,0.09078084341152591
16.61840354767184,0.11624609465627028
16.651773835920178,0.10818826029073238
16.685144124168513,0.07277349327819442
16.71851441241685,0.026689400032517824
16.75188470066519,-0.007929168525507603
16.785254988913525,-0.012363042564729537
16.818625277161864,0.01913513808731915
16.8519955654102,0.07343597476913018
16.885365853658538,0.12000423744042785
16.918736141906873,0.12084175611940805
16.95210643015521,0.046184905006839756
16.985476718403547,-0.1101202164324304
17.018847006651885,-0.32270323497405606
17.05221729490022,-0.5390558466216315
17.08558758314856,-0.695981486598187
17.118957871396898,-0.7422527821238942
17.152328159645233,-0.6582829682020509
17.18569844789357,-0.46437640929082336
17.219068736141907,-0.2137643859911253
17.252439024390245,0.02693601614712155
