Frequency (Hz),Amplitude
0.0,5.3551713321598164
0.01978021978021978,5.359046473302649
0.03956043956043956,5.370639877562072
0.05934065934065934,5.389856235089126
0.07912087912087912,5.416539145383254
0.0989010989010989,5.450474645339362
0.11868131868131868,5.491395872289249
0.13846153846153844,5.538988619296016
0.15824175824175823,5.592897512567654
0.17802197802197803,5.652732536062001
0.1978021978021978,5.718075643696591
0.21758241758241756,5.788487230626885
0.23736263736263735,5.863512276396512
0.2571428571428572,5.942686018917452
0.2769230769230769,6.025539064402677
0.2967032967032967,6.111601880857487
0.31648351648351647,6.200408659123174
0.3362637362637363,6.291500554546541
0.35604395604395606,6.384428343905197
0.3758241758241758,6.478754546752841
0.3956043956043956,6.574055068806445
0.4153846153846154,6.6699204285291005
0.4351648351648351,6.765956627848158
0.45494505494505494,6.861785725079874
0.4747252747252747,6.957046163541724
0.4945054945054945,7.051392903778713
0.5142857142857143,7.144497401381659
0.5340659340659341,7.2360474664486745
0.5538461538461538,7.325747035111368
0.5736263736263736,7.413315878385233
0.5934065934065934,7.498489268995842
0.6131868131868132,7.58101762281048
0.6329670329670329,7.66066612805634
0.6527472527472528,7.737214372598481
0.6725274725274726,7.810455977132442
0.6923076923076923,7.880198240163063
0.7120879120879121,7.946261799035147
0.7318681318681318,8.008480309998902
0.7516483516483516,8.066700149283086
0.7714285714285715,8.120780136365816
0.7912087912087912,8.170591280038613
0.810989010989011,8.216016547418
0.8307692307692308,8.25695065574293
0.8505494505494506,8.293299886580764
0.8703296703296702,8.32498192192946
0.8901098901098901,8.351925701632238
0.9098901098901099,8.374071301499987
0.9296703296703297,8.39136983155471
0.9494505494505494,8.403783353855983
0.9692307692307692,8.411284819443347
0.989010989010989,8.41385802401647
1.0087912087912088,8.41149758207536
1.0285714285714287,8.404208919352133
1.0483516483516484,8.39200828347899
1.0681318681318681,8.374922772952687
1.087912087912088,8.352990384568395
1.1076923076923075,8.326260079604852
1.1274725274725275,8.294791869142019
1.1472527472527472,8.258656918980055
1.1670329670329669,8.217937674697941
1.1868131868131868,8.172728007436282
1.2065934065934065,8.123133381004243
1.2263736263736265,8.069271040885761
1.2461538461538462,8.011270225644795
1.2659340659340659,7.949272401088412
1.2857142857142858,7.8834315173246745
1.3054945054945055,7.8139142885278225
1.3252747252747252,7.7409004947725695
1.3450549450549452,7.664583304692825
1.3648351648351649,7.585169616923778
1.3846153846153846,7.502880417259721
1.4043956043956045,7.417951147158626
1.4241758241758242,7.3306320775972384
1.443956043956044,7.2411886802728525
1.4637362637362636,7.1499019857038935
1.4835164835164834,7.057068914844947
1.5032967032967033,6.963002567355864
1.523076923076923,6.868032445614648
1.542857142857143,6.772504588933366
1.5626373626373626,6.676781587257602
1.5824175824175823,6.581242437996632
1.6021978021978023,6.486282203717772
1.621978021978022,6.39231142252929
1.6417582417582417,6.299755217491824
1.6615384615384616,6.209052046921617
1.6813186813186813,6.120652034741233
1.7010989010989013,6.035014820035323
1.720879120879121,5.952606868772171
1.7406593406593405,5.873898199430092
1.7604395604395604,5.799358489157004
1.7802197802197801,5.729452549008953
1.7999999999999998,5.664635186219833
1.8197802197802198,5.605345508080026
1.8395604395604395,5.552000764575679
1.8593406593406594,5.504989872985864
1.879120879120879,5.464666813415638
1.8989010989010988,5.431344124935536
1.9186813186813187,5.405286762147645
1.9384615384615385,5.386706586259043
1.9582417582417584,5.375757758804711
1.978021978021978,5.372533277712184
1.9978021978021978,5.377062844873131
2.0175824175824175,5.389312185284544
2.0373626373626372,5.409183856448781
2.0571428571428574,5.436519501327459
2.076923076923077,5.471103417629718
2.096703296703297,5.512667248691224
2.1164835164835165,5.560895552719805
2.1362637362637362,5.6154319809472115
2.1560439560439564,5.675885791374646
2.175824175824176,5.741838440784448
2.195604395604396,5.812850029061442
2.215384615384615,5.888465411231992
2.2351648351648348,5.9682198385709615
2.254945054945055,6.051644035920639
2.2747252747252746,6.138268664397504
2.2945054945054943,6.227628154583503
2.314285714285714,6.319263923946294
2.3340659340659338,6.412727013421429
2.353846153846154,6.507580192335052
2.3736263736263736,6.6033995890942
2.3934065934065933,6.699775908466329
2.413186813186813,6.7963152959798885
2.4329670329670328,6.892639907079433
2.452747252747253,6.988388234084141
2.4725274725274726,7.083215238470837
2.4923076923076923,7.176792330095335
2.512087912087912,7.268807229086269
2.5318681318681318,7.35896374056495
2.5516483516483515,7.446981467228709
2.5714285714285716,7.532595480270763
2.5912087912087913,7.615555965124722
2.610989010989011,7.69562785510628
2.6307692307692307,7.772590463143431
2.6505494505494505,7.8462371193907465
2.6703296703296706,7.916374820558043
2.6901098901098903,7.982823895191914
2.70989010989011,8.045417687877187
2.7296703296703297,8.104002264323917
2.7494505494505495,8.158436138528891
2.769230769230769,8.208590022610965
2.7890109890109893,8.254346599481739
2.808791208791209,8.295600318199162
2.8285714285714287,8.33225721163773
2.8483516483516484,8.36423473597461
2.8681318681318677,8.391461631420045
2.887912087912088,8.413877803599249
2.9076923076923076,8.43143422501103
2.9274725274725273,8.444092856036042
2.947252747252747,8.45182658503826
2.9670329670329667,8.454619187191009
2.986813186813187,8.45246530175812
3.0065934065934066,8.445370427669177
3.0263736263736263,8.433350937339034
3.046153846153846,8.416434108795825
3.0659340659340657,8.394658176292294
3.085714285714286,8.368072399681646
3.1054945054945056,8.33673715293566
3.1252747252747253,8.300724032266865
3.145054945054945,8.260115984381619
3.1648351648351647,8.215007455432604
3.184615384615385,8.165504561247802
3.2043956043956046,8.111725279381865
3.2241758241758243,8.053799663450823
3.243956043956044,7.991870080060542
3.2637362637362637,7.926091468404907
3.2835164835164834,7.856631622271116
3.3032967032967036,7.783671493722236
3.3230769230769233,7.707405517101643
3.342857142857143,7.628041951185523
3.3626373626373627,7.545803236259085
3.3824175824175824,7.460926361563431
3.4021978021978025,7.373663236903891
3.4219780219780223,7.2842810601726
3.441758241758242,7.193062670063403
3.4615384615384617,7.100306870291928
3.481318681318681,7.0063287081330685
3.501098901098901,6.911459686022114
3.520879120879121,6.816047880331429
3.5406593406593405,6.720457936271803
3.5604395604395602,6.625070902275819
3.58021978021978,6.530283861383904
3.5999999999999996,6.436509311365257
3.61978021978022,6.344174239995492
3.6395604395604395,6.253718837670262
3.659340659340659,6.165594787124991
3.679120879120879,6.080263070392828
3.6989010989010986,5.998191237346322
3.718681318681319,5.919850089382545
3.7384615384615385,5.845709747123694
3.758241758241758,5.776235093277204
3.7780219780219784,5.711880611424144
3.7978021978021976,5.653084678136129
3.8175824175824173,5.600263408116589
3.8373626373626375,5.5538041974928785
3.8571428571428568,5.514059155201758
3.876923076923077,5.4813386518275005
3.896703296703296,5.455905243922561
3.916483516483517,5.437968244583509
3.936263736263736,5.427679203770733
3.956043956043956,5.425128532453986
3.9758241758241755,5.430343453750142
3.9956043956043956,5.443287395397476
4.015384615384615,5.46386085747625
4.035164835164835,5.491903705364645
4.054945054945055,5.527198759198765
4.0747252747252745,5.569476485431997
4.094505494505494,5.618420549262927
4.114285714285715,5.673673961723784
4.134065934065934,5.734845552121032
4.153846153846154,5.801516512733603
4.173626373626373,5.873246793814833
4.193406593406594,5.949581167737335
4.213186813186813,6.030054826289189
4.232967032967033,6.114198420082425
4.252747252747253,6.201542490263921
4.2725274725274724,6.291621277949576
4.292307692307692,6.38397592491014
4.312087912087913,6.4781570998456415
4.331868131868132,6.57372709859866
4.351648351648352,6.670261474796763
4.371428571428571,6.767350260796818
4.391208791208792,6.864598838567126
4.410989010989011,6.96162851734033
4.43076923076923,7.058076870401243
4.450549450549451,7.1535978779670595
4.4703296703296695,7.247861917327771
4.49010989010989,7.340555635640609
4.50989010989011,7.4313817352838445
4.52967032967033,7.520058696636439
4.549450549450549,7.606320458647573
4.569230769230769,7.689916073624223
4.589010989010989,7.770609349286555
4.608791208791209,7.848178488287017
4.628571428571428,7.922415733012686
4.648351648351649,7.993127021537854
4.6681318681318675,8.060131659010448
4.687912087912088,8.123262007488284
4.707692307692308,8.182363196241536
4.7274725274725276,8.237292853760543
4.747252747252747,8.2879208621168
4.767032967032967,8.334129133884222
4.786813186813187,8.375811411511132
4.806593406593407,8.412873088815576
4.826373626373626,8.445231054138958
4.846153846153847,8.472813554618455
4.8659340659340655,8.495560081014135
4.885714285714286,8.5134212725412
4.905494505494506,8.526358841202388
4.9252747252747255,8.534345515183283
4.945054945054945,8.537365000957537
4.964835164835165,8.53541196384579
4.984615384615385,8.528492026876618
5.004395604395604,8.51662178790637
5.024175824175824,8.499828855064887
5.043956043956045,8.47815190070087
5.0637362637362635,8.451640734102629
5.083516483516483,8.420356393361304
5.103296703296703,8.384371256821963
5.123076923076923,8.343769174626043
5.142857142857143,8.298645620881974
5.162637362637362,8.24910786700033
5.182417582417583,8.195275176686858
5.2021978021978015,8.137279022989098
5.221978021978022,8.075263327625892
5.241758241758242,8.009384722576984
5.2615384615384615,7.93981283355059
5.281318681318681,7.866730584455567
5.301098901098901,7.790334521352662
5.320879120879121,7.710835153510898
5.340659340659341,7.628457308111347
5.36043956043956,7.543440493776904
5.380219780219781,7.456039266413191
5.3999999999999995,7.366523588771146
5.41978021978022,7.275179172631822
5.43956043956044,7.182307789519748
5.4593406593406595,7.088227532330317
5.479120879120879,6.993273006186176
5.498901098901099,6.897795422221079
5.518681318681319,6.8021625628757105
5.538461538461538,6.7067585817885815
5.558241758241758,6.61198359567068
5.578021978021979,6.518253019970275
5.5978021978021975,6.425996595102528
5.617582417582418,6.335657046134735
5.637362637362637,6.247688316844812
5.6571428571428575,6.162553319937772
5.676923076923077,6.08072114996481
5.696703296703297,6.0026637152517415
5.716483516483517,5.928851760940035
5.736263736263735,5.859750277857236
5.756043956043956,5.795813321661018
5.775824175824176,5.73747830310071
5.795604395604395,5.685159851888155
5.815384615384615,5.639243400996273
5.835164835164835,5.600078681476003
5.854945054945055,5.5679733554199045
5.874725274725275,5.543187041337945
5.894505494505494,5.525925997028419
5.914285714285715,5.516338716216373
5.934065934065933,5.514512664975143
5.953846153846154,5.520472333052137
5.973626373626374,5.534178707353674
5.993406593406593,5.555530196203379
6.013186813186813,5.58436495145802
6.032967032967033,5.620464459480791
6.052747252747253,5.663558208808221
6.072527472527473,5.713329197569191
6.092307692307692,5.769420020100201
6.112087912087913,5.831439269688755
6.131868131868131,5.8989680104467705
6.151648351648352,5.971566101725968
6.171428571428572,6.0487781981647055
6.191208791208791,6.130139292335107
6.210989010989011,6.215179710631905
6.230769230769231,6.303429513140195
6.2505494505494505,6.394422282542254
6.270329670329671,6.487698314580121
6.29010989010989,6.582807242995564
6.309890109890111,6.679310145692211
6.329670329670329,6.776781186981885
6.349450549450549,6.8748088542548835
6.36923076923077,6.972996847347859
6.3890109890109885,7.07096467628732
6.408791208791209,7.1683480188363395
6.428571428571428,7.264798884074766
6.4483516483516485,7.35998562264282
6.468131868131868,7.453592818666504
6.487912087912088,7.545321093029624
6.507692307692308,7.634886842725406
6.527472527472527,7.7220219366011085
6.547252747252747,7.80647338393409
6.567032967032967,7.888002988942702
6.5868131868131865,7.96638700151064
6.606593406593407,8.041415772044262
6.626373626373626,8.112893416439425
6.6461538461538465,8.180637495553372
6.665934065934065,8.2444787123082
6.685714285714286,8.304260628547974
6.705494505494506,8.359839402987847
6.725274725274725,8.411083550994318
6.745054945054945,8.45787372648708
6.764835164835165,8.50010252592771
6.7846153846153845,8.537674314134716
6.804395604395605,8.570505071519122
6.824175824175824,8.598522262252908
6.8439560439560445,8.621664722851317
6.863736263736263,8.639882570658527
6.883516483516484,8.65313713176464
6.903296703296704,8.661400887944332
6.923076923076923,8.664657442286565
6.942857142857143,8.662901503276379
6.962637362637362,8.656138887189151
6.9824175824175825,8.644386538761568
7.002197802197802,8.627672570207318
7.021978021978022,8.60603631874742
7.041758241758242,8.579528422919589
7.061538461538461,8.548210918015851
7.081318681318681,8.512157351066609
7.101098901098901,8.47145291583854
7.1208791208791204,8.426194608334903
7.140659340659341,8.376491403273818
7.16043956043956,8.322464451960794
7.1802197802197805,8.264247301856892
7.199999999999999,8.201986137956174
7.21978021978022,8.13584004580998
7.23956043956044,8.065981295648669
7.259340659340659,7.992595646529233
7.279120879120879,7.9158826687497905
7.298901098901099,7.836056081885282
7.318681318681318,7.753344104673263
7.338461538461539,7.667989811571163
7.358241758241758,7.580251489068435
7.3780219780219785,7.4904029827193375
7.397802197802197,7.398734023313902
7.417582417582418,7.305550517581331
7.437362637362638,7.211174785285515
7.457142857142857,7.115945720510995
7.476923076923077,7.020218850362762
7.496703296703297,6.924366259274581
7.516483516483516,6.828776341760616
7.536263736263736,6.733853340962137
7.556043956043957,6.640016625052362
7.575824175824176,6.547699648916797
7.595604395604395,6.45734854512427
7.615384615384615,6.369420286803853
7.635164835164835,6.284380366552804
7.654945054945055,6.202699940936242
7.674725274725275,6.12485240054718
7.694505494505494,6.051309341924468
7.7142857142857135,5.982535940551236
7.734065934065935,5.918985753857964
7.753846153846154,5.861095019076638
7.7736263736263735,5.80927655142703
7.793406593406592,5.763913390863961
7.813186813186814,5.725352386799081
7.832967032967034,5.693897945308089
7.852747252747252,5.669806187442246
7.872527472527472,5.65327977579817
7.892307692307693,5.644463656024225
7.912087912087912,5.643441928956999
7.931868131868132,5.650236018600164
7.951648351648351,5.664804234871669
7.971428571428572,5.687042753975624
7.991208791208791,5.716787960933902
8.010989010989011,5.753820026118645
8.03076923076923,5.797867527555735
8.05054945054945,5.848612888393956
8.07032967032967,5.9056983767832945
8.09010989010989,5.96873241334709
8.10989010989011,6.037295947042093
8.129670329670331,6.110948689448782
8.149450549450549,6.189235035620611
8.169230769230769,6.2716895417540695
8.189010989010988,6.357841871940855
8.20879120879121,6.447221164921375
8.22857142857143,6.539359804967942
8.248351648351647,6.633796607717582
8.268131868131867,6.730079451740381
8.287912087912087,6.827767400286327
8.307692307692308,6.926432365813689
8.327472527472528,7.025660373565143
8.347252747252746,7.12505248066095
8.367032967032966,7.224225404890062
8.386813186813187,7.322811913439681
8.406593406593407,7.4204610168964225
8.426373626373627,7.516838008508032
8.446153846153845,7.611624383300396
8.465934065934066,7.704517666466578
8.485714285714286,7.795231175651013
8.505494505494505,7.883493737435961
8.525274725274725,7.969049374537185
8.545054945054945,8.051656976931852
8.564835164835165,8.131089967348531
8.584615384615384,8.207135969208167
8.604395604395604,8.279596483168195
8.624175824175826,8.348286576839731
8.643956043956043,8.413034590972718
8.663736263736263,8.473681864388885
8.683516483516483,8.530082479147108
8.703296703296704,8.582103026813186
8.723076923076924,8.6296223962442
8.742857142857142,8.672531582959426
8.762637362637362,8.710733519931537
8.782417582417583,8.744142929474954
8.802197802197803,8.772686195815167
8.821978021978023,8.796301257882165
8.84175824175824,8.814937521869766
8.86153846153846,8.828555793133196
8.881318681318682,8.837128227051311
8.901098901098901,8.840638298551697
8.920879120879121,8.839080790081416
8.940659340659339,8.832461797898016
8.96043956043956,8.820798756652582
8.98021978021978,8.804120482332506
9.0,8.782467233725583
9.01978021978022,8.755890792652819
9.03956043956044,8.724454563291939
9.05934065934066,8.688233690971732
9.079120879120879,8.647315200853027
9.098901098901099,8.601798156919193
9.11868131868132,8.551793841667628
9.138461538461538,8.497425956815677
9.158241758241758,8.438830845194952
9.178021978021977,8.376157733794853
9.197802197802199,8.30956899760833
9.217582417582419,8.239240443512328
9.237362637362637,8.165361612853278
9.257142857142856,8.08813610067821
9.276923076923078,8.00778188861787
9.296703296703297,7.92453168725299
9.316483516483517,7.838633282335249
9.336263736263735,7.750349877445411
9.356043956043957,7.65996042350494
9.375824175824176,7.567759922969582
9.395604395604396,7.474059693483189
9.415384615384616,7.379187572231032
9.435164835164835,7.283488038196352
9.454945054945055,7.187322225018193
9.474725274725275,7.091067792245666
9.494505494505495,6.995118617620915
9.514285714285714,6.89988426782387
9.534065934065934,6.805789200207522
9.553846153846154,6.713271643899895
9.573626373626373,6.622782105850861
9.593406593406593,6.534781446704339
9.613186813186815,6.449738473657688
9.632967032967032,6.3681270036934645
9.652747252747252,6.290422361700596
9.672527472527472,6.2170972948860745
9.692307692307693,6.148617308061633
9.712087912087913,6.08543545391619
9.731868131868131,6.0279866475739485
9.75164835164835,5.976681613998264
9.771428571428572,5.931900617522322
9.791208791208792,5.893987161387068
9.810989010989012,5.8632418773329
9.83076923076923,5.839916846450272
9.850549450549451,5.82421059847114
9.87032967032967,5.816264024461898
9.89010989010989,5.8161574063152335
9.90989010989011,5.823908716747367
9.92967032967033,5.83947327936183
9.94945054945055,5.862744805519053
9.96923076923077,5.8935577503399745
9.989010989010989,5.931690861499526
10.008791208791209,5.976871737976161
10.028571428571428,6.028782176244566
10.048351648351648,6.087064060795802
10.068131868131868,6.151325554158631
10.08791208791209,6.22114735648659
10.107692307692307,6.296088832507791
10.127472527472527,6.375693839735663
10.147252747252747,6.459496131840746
10.167032967032966,6.5470242510713685
10.186813186813188,6.637805860562717
10.206593406593406,6.731371499278859
10.226373626373626,6.82725776814585
10.246153846153845,6.925009975413152
10.265934065934067,7.024184282779796
10.285714285714286,7.124349402068306
10.305494505494504,7.22508789614679
10.325274725274724,7.3259971383536735
10.345054945054946,7.4266899827814585
10.364835164835165,7.526795194225836
10.384615384615385,7.6259576820609825
10.404395604395603,7.723838577276087
10.424175824175824,7.820115186781386
10.443956043956044,7.91448085413079
10.463736263736264,8.00664475118236
10.483516483516484,8.0963316210285
10.503296703296703,8.183281488816682
10.523076923076923,8.267249353858269
10.542857142857143,8.34800487366674
10.562637362637362,8.425332048244776
10.582417582417584,8.499028911008093
10.602197802197802,8.568907231149067
10.621978021978022,8.634792230956748
10.641758241758241,8.696522320581295
10.661538461538463,8.753948851918548
10.681318681318682,8.806935892660167
10.7010989010989,8.855360021075313
10.72087912087912,8.899110141733658
10.740659340659342,8.938087322125483
10.760439560439561,8.972204649961544
10.780219780219781,9.001387110828572
10.799999999999999,9.025571485822129
10.819780219780219,9.044706268765276
10.83956043956044,9.05875160264059
10.85934065934066,9.067679234907265
10.87912087912088,9.071472491436475
