Time (s),Filtered Signal
0.0,-0.03930356075856502
0.03337000366703337,-0.547597878665573
0.06674000733406674,-0.8603215880335369
0.1001100110011001,-0.8349344063970668
0.13348001466813347,-0.42145420966631003
0.16685001833516683,0.3201005905116054
0.2002200220022002,1.2331358540659938
0.2335900256692336,2.1084507216380968
0.26696002933626695,2.7468590161217596
0.3003300330033003,3.019292509514205
0.33370003667033366,2.9021882106141996
0.36707004033736707,2.475072491579408
0.4004400440044004,1.8825795328949795
0.4338100476714338,1.2773026528120095
0.4671800513384672,0.7665140228247351
0.5005500550055005,0.3827631445714845
0.5339200586725339,0.08788550249107048
0.5672900623395672,-0.19348074724617062
0.6006600660066006,-0.5264257675546508
0.634030069673634,-0.9257486955694244
0.6674000733406673,-1.3420835610688115
0.7007700770077008,-1.6814570782036964
0.7341400806747341,-1.8494271472482302
0.7675100843417675,-1.7977915018181023
0.8008800880088008,-1.549452811215516
0.8342500916758342,-1.1879871184410804
0.8676200953428675,-0.8174460213047873
0.9009900990099009,-0.51418873414395
0.9343601026769344,-0.29656293803370076
0.9677301063439677,-0.12778093666130305
1.001100110011001,0.05132705775964806
1.0344701136780343,0.27910091004189846
1.0678401173450678,0.5435943553432847
1.1012101210121013,0.7826161418723689
1.1345801246791345,0.9126267701258013
1.167950128346168,0.8707567619551667
1.2013201320132012,0.6482288102011007
1.2346901356802347,0.29898435217948416
1.268060139347268,-0.0795146143549618
1.3014301430143014,-0.38299350226534823
1.3348001466813346,-0.5374544580083598
1.368170150348368,-0.5215980983837369
1.4015401540154016,-0.3678773237659111
1.4349101576824348,-0.14491680764411233
1.4682801613494683,0.06970425518211978
1.5016501650165015,0.21559717678662552
1.535020168683535,0.2658630932932822
1.5683901723505682,0.22892455885811766
1.6017601760176017,0.13658790271186852
1.6351301796846351,0.02437942320064075
1.6685001833516684,-0.0863181625884798
1.7018701870187019,-0.19528808087690847
1.735240190685735,-0.31581603929392305
1.7686101943527686,-0.45649695345083646
1.8019801980198018,-0.603311977268439
1.8353502016868353,-0.7138875498146109
1.8687202053538687,-0.730008870012367
1.902090209020902,-0.6043581139474525
1.9354602126879354,-0.3286363923510926
1.9688302163549687,0.05210432857151996
2.002200220022002,0.44829233710994904
2.0355702236890356,0.7561682539858424
2.0689402273560686,0.8973927708489141
2.102310231023102,0.8508525597282618
2.1356802346901356,0.6625447560266798
2.169050238357169,0.4285194450580415
2.2024202420242025,0.2569830006221229
2.2357902456912355,0.22431272159463153
2.269160249358269,0.342669470221142
2.3025302530253025,0.5529925179155671
2.335900256692336,0.7476134133592496
2.369270260359369,0.8147854707718979
2.4026402640264024,0.6876000612353385
2.436010267693436,0.3763990427500889
2.4693802713604693,-0.03075093054143064
2.502750275027503,-0.4019113122714071
2.536120278694536,-0.6163125100892372
2.5694902823615693,-0.6166485254776082
2.6028602860286028,-0.43452291827742023
2.636230289695636,-0.1765290392116339
2.6696002933626692,0.023198132286873712
2.7029702970297027,0.06206905565068373
2.736340300696736,-0.08749406801854263
2.7697103043637696,-0.36935294993428286
2.803080308030803,-0.6717680885500374
2.836450311697836,-0.8774568595463917
2.8698203153648696,-0.9122176482680167
2.903190319031903,-0.7716846064975389
2.9365603226989365,-0.5171598758755049
2.96993032636597,-0.24504031374822252
3.003300330033003,-0.04435852372216011
3.0366703337000365,0.03965251318588644
3.07004033736707,0.021527574839747165
3.1034103410341034,-0.03477159436497343
3.1367803447011364,-0.04766662079233151
3.17015034836817,0.04245897096918279
3.2035203520352034,0.2430245460737173
3.236890355702237,0.5017381259433735
3.2702603593692703,0.7256775509931122
3.3036303630363033,0.81956224085074
3.3370003667033368,0.7275228301216831
3.3703703703703702,0.46081512453760237
3.4037403740374037,0.09925898276677111
3.4371103777044367,-0.23539112462806924
3.47048038137147,-0.4245467265265908
3.5038503850385037,-0.39895971663886876
3.537220388705537,-0.16755547899105191
3.5705903923725706,0.1831527387944305
3.6039603960396036,0.5197468797464052
3.637330399706637,0.7112722443460601
3.6707004033736705,0.6779919237991888
3.704070407040704,0.42007909700255686
3.7374404107077375,0.014903866845331105
3.7708104143747705,-0.41521273482378507
3.804180418041804,-0.7503809565619896
3.8375504217088374,-0.9152976033576287
3.870920425375871,-0.8992756406160087
3.904290429042904,-0.7482994905807898
3.9376604327099374,-0.5361857797582426
3.971030436376971,-0.33029957201735616
4.004400440044004,-0.16747427222297592
4.037770443711038,-0.04875686371286882
4.071140447378071,0.048221805602951986
4.104510451045105,0.14807985641295962
4.137880454712137,0.2590739014633852
4.171250458379171,0.365817741694943
4.204620462046204,0.4363803735759528
4.237990465713238,0.44039708776252057
4.271360469380271,0.36976495002022186
4.304730473047305,0.25139224028989077
4.338100476714338,0.14357706611522122
4.3714704803813715,0.11417268132144413
4.404840484048405,0.20791709044948892
4.438210487715438,0.4179114637778891
4.471580491382471,0.6772857595667738
4.5049504950495045,0.8792223965435711
4.538320498716538,0.9194694672173768
4.571690502383571,0.7426035173277865
4.605060506050605,0.3694987763852245
4.638430509717638,-0.10806111458557875
4.671800513384672,-0.5631541947113178
4.705170517051705,-0.8822788948795628
4.738540520718738,-1.004076686115598
4.771910524385771,-0.9328257999294479
4.805280528052805,-0.7253876609936118
4.838650531719838,-0.4624591018577606
4.872020535386872,-0.21919771588552597
4.905390539053905,-0.04634821880569405
4.938760542720939,0.0348248342920513
4.972130546387972,0.027257524050422068
5.005500550055006,-0.05110942119383727
5.038870553722038,-0.17489682850766144
5.072240557389072,-0.31487838756566827
5.105610561056105,-0.4388002391905468
5.138980564723139,-0.5128075211240695
5.172350568390172,-0.5066122260018456
5.2057205720572055,-0.40287710971754387
5.239090575724239,-0.20747076484202248
5.272460579391272,0.04550900247289112
5.305830583058306,0.29952762606285926
5.3392005867253385,0.493255705572486
5.372570590392372,0.5842925186094532
5.405940594059405,0.5680463076901096
5.439310597726439,0.48113071133856905
5.472680601393472,0.3853115147996458
5.506050605060506,0.3380263139892405
5.539420608727539,0.3632568834540041
5.572790612394573,0.43743652099426794
5.606160616061606,0.4983010339514605
5.63953061972864,0.4735702885283409
5.672900623395672,0.3166615865165422
5.706270627062706,0.032964760752398514
5.739640630729739,-0.3158444130297841
5.773010634396773,-0.6322962920816523
5.806380638063806,-0.820179100590307
5.83975064173084,-0.8223356629011555
5.873120645397873,-0.6428345688506966
5.9064906490649065,-0.34400852541855614
5.93986065273194,-0.020053078979423926
5.9732306563989725,0.2407942664723998
6.006600660066006,0.38879173898619657
6.0399706637330395,0.42620999373592006
6.073340667400073,0.39711688032428033
6.106710671067106,0.3595539432414332
6.14008067473414,0.3539636272763658
6.173450678401173,0.38296382152596453
6.206820682068207,0.41186023839063174
6.24019068573524,0.38929151411965857
6.273560689402273,0.27767554281586676
6.306930693069306,0.07814474947612227
6.34030069673634,-0.16311695154144018
6.373670700403373,-0.3715123488967766
6.407040704070407,-0.47667236543605573
6.44041070773744,-0.4456503505987783
6.473780711404474,-0.3001927825050774
6.507150715071507,-0.10905923771341337
6.540520718738541,0.04129399396185106
6.573890722405573,0.08365654675832686
6.607260726072607,-0.0026807463115382972
6.64063072973964,-0.18610554522037487
6.6740007334066735,-0.3991401043162508
6.707370737073707,-0.5678282042635673
6.7407407407407405,-0.6400988204025513
6.774110744407774,-0.6014209990957805
6.807480748074807,-0.4730869863134404
6.840850751741841,-0.2965008529002519
6.8742207554088735,-0.11247426677427741
6.907590759075907,0.05427770862759381
6.94096076274294,0.19871266280782374
6.974330766409974,0.3269043884292318
7.007700770077007,0.4416821363215793
7.041070773744041,0.5319552009624763
7.074440777411074,0.5730651469813794
7.107810781078108,0.5389698671842851
7.141180784745141,0.4197438611343046
7.174550788412174,0.23409040122742159
7.207920792079207,0.028673026690078728
7.241290795746241,-0.13701767030529924
7.274660799413274,-0.2137666600618325
7.308030803080308,-0.18290084563480027
7.341400806747341,-0.06426203838916186
7.3747708104143745,0.09160179490529534
7.408140814081408,0.22326623248772975
7.4415108177484415,0.2815666152278566
7.474880821415475,0.24667399293469772
7.5082508250825075,0.1331429948588389
7.541620828749541,-0.01762119506425093
7.5749908324165744,-0.1532219400110545
7.608360836083608,-0.22790808877057978
7.641730839750641,-0.21608687237997912
7.675100843417675,-0.11844137799072267
7.708470847084708,0.03959774328114352
7.741840850751742,0.215214693013866
7.775210854418775,0.3589700949356003
7.808580858085808,0.4268184415682247
7.841950861752841,0.3914274591746912
7.875320865419875,0.25039581731560995
7.908690869086908,0.0285063735459487
7.942060872753942,-0.2279720451295544
7.975430876420975,-0.46411108907495774
8.008800880088009,-0.6319475669289977
8.042170883755041,-0.7028258386526285
8.075540887422076,-0.6720000336017916
8.108910891089108,-0.5552031770038055
8.142280894756142,-0.3807699000372491
8.175650898423175,-0.18190066094627594
8.20902090209021,0.008516997485488892
8.242390905757242,0.16132740460850975
8.275760909424275,0.25506285011122765
8.309130913091309,0.28132721641919933
8.342500916758341,0.24943843484009315
8.375870920425376,0.18618537081234884
8.409240924092408,0.1278016139180254
8.442610927759443,0.10554763655414867
8.475980931426475,0.1310349068088589
8.50935093509351,0.1892952785903808
8.542720938760542,0.24477731980191691
8.576090942427575,0.25891226150523067
8.60946094609461,0.21102541252495471
8.642830949761642,0.11124435680477174
8.676200953428676,-0.0028469786202130996
8.709570957095709,-0.08560669702299693
8.742940960762743,-0.1090995654775646
8.776310964429776,-0.08070010207395287
8.80968096809681,-0.04137916024295893
8.843050971763843,-0.04393268537289466
8.876420975430875,-0.12214223875001226
8.90979097909791,-0.2678927380686887
8.943160982764942,-0.42967755820023634
8.976530986431976,-0.5344433043231815
9.009900990099009,-0.5218846066068284
9.043270993766043,-0.37348052113266567
9.076640997433076,-0.12158847479588987
9.11001100110011,0.16519380293201513
9.143381004767143,0.41186519714223185
9.176751008434175,0.5666696293690614
9.21012101210121,0.6169912550476945
9.243491015768242,0.5863593378550975
9.276861019435277,0.5170002188200973
9.31023102310231,0.44803989212401657
9.343601026769344,0.39938674826369847
9.376971030436376,0.36701131183922514
9.41034103410341,0.3296936657444566
9.443711037770443,0.26272428606832127
9.477081041437476,0.15179418021741126
9.51045104510451,0.0008466373210985562
9.543821048771543,-0.1692428974318966
9.577191052438577,-0.3298156725543934
9.61056105610561,-0.4562882884337767
9.643931059772644,-0.5365843445972606
9.677301063439677,-0.5723896499262806
9.710671067106711,-0.5738447849033649
9.744041070773743,-0.5519086108812843
9.777411074440776,-0.5132841307419334
9.81078107810781,-0.46027128930066746
9.844151081774843,-0.3940927586340143
9.877521085441877,-0.31782939191749865
9.91089108910891,-0.2357967229616838
9.944261092775944,-0.1495262412493421
9.977631096442977,-0.05406343276206996
10.011001100110011,0.06079323242803709
10.044371103777044,0.20264449006686225
10.077741107444076,0.36557968480059
10.11111111111111,0.523526251217284
10.144481114778143,0.6343081509057854
10.177851118445178,0.65515372899703
10.21122112211221,0.5631370861862509
10.244591125779245,0.36986774941939826
10.277961129446277,0.12157057189875027
10.311331133113312,-0.11713365524804574
10.344701136780344,-0.28872433020664623
10.378071140447377,-0.36507503147048087
10.411441144114411,-0.355096994643017
10.444811147781444,-0.2936760086204154
10.478181151448478,-0.21795060990918488
10.51155115511551,-0.14432809849246422
10.544921158782545,-0.05985658187107118
10.578291162449577,0.06602173464742699
10.611661166116612,0.25500024420388734
10.645031169783644,0.4937805671676925
10.678401173450677,0.7248215202877935
10.711771177117711,0.8625102455037948
10.745141180784744,0.8296396266141618
10.778511184451778,0.5970452804934427
10.81188118811881,0.2057068652888723
10.845251191785845,-0.24192838309717318
10.878621195452878,-0.6195945289173008
10.911991199119912,-0.8271252325420464
10.945361202786945,-0.8292165544021687
10.978731206453979,-0.6648988570598763
11.012101210121012,-0.42419971227511827
11.045471213788044,-0.20462389328306096
11.078841217455079,-0.06924821855035608
11.112211221122111,-0.025951331257540185
11.145581224789145,-0.03535738602423916
11.178951228456178,-0.04022122899283222
11.212321232123212,0.0009079582752862072
11.245691235790245,0.09308601194871154
11.27906123945728,0.206009798929225
11.312431243124312,0.2931047997033329
11.345801246791344,0.31642283065175947
11.379171250458379,0.26411197597632446
11.412541254125411,0.15320692104348158
11.445911257792446,0.019045079547629067
11.479281261459478,-0.10120553626120855
11.512651265126513,-0.1822304804535674
11.546021268793545,-0.21604612643486273
11.57939127246058,-0.2089829084316133
11.612761276127612,-0.17406649117050849
11.646131279794645,-0.12412449544271223
11.67950128346168,-0.06938176131970145
11.712871287128712,-0.019880700061649794
11.746241290795746,0.010317737792234933
11.779611294462779,0.0017714841979502782
11.812981298129813,-0.06533136593327715
11.846351301796846,-0.19968224134906848
11.87972130546388,-0.3852256742075078
11.913091309130913,-0.5731272455907103
11.946461312797945,-0.6871085147244312
11.97983131646498,-0.6452979186803129
12.013201320132012,-0.39352407639333153
12.046571323799046,0.0630104984469423
12.079941327466079,0.6455613874066605
12.113311331133113,1.2157905745331852
12.146681334800146,1.6165387515469931
12.18005133846718,1.7252538932585517
12.213421342134213,1.4988474190339895
12.246791345801245,0.991419907343559
12.28016134946828,0.3374577636501077
12.313531353135312,-0.29275322220729183
12.346901356802347,-0.7481193940135815
12.38027136046938,-0.9418259050943335
12.413641364136414,-0.8713852531182036
12.447011367803446,-0.6089837863491361
12.48038137147048,-0.26877387985887485
12.513751375137513,0.03447352150905466
12.547121378804546,0.21954809143626952
12.58049138247158,0.2551280095404827
12.613861386138613,0.1564441582264482
12.647231389805647,-0.031370892659243164
12.68060139347268,-0.2532093303886737
12.713971397139714,-0.45892564873877517
12.747341400806746,-0.6102182823313601
12.78071140447378,-0.6815276165611516
12.814081408140813,-0.6593723786096167
12.847451411807846,-0.5434404704201046
12.88082141547488,-0.34952573283691163
12.914191419141913,-0.11134926892086432
12.947561422808947,0.12263783445100945
12.98093142647598,0.2995381538278442
13.014301430143014,0.37766857407656235
13.047671433810047,0.3420905959098233
13.081041437477081,0.21284800172244647
13.114411441144114,0.040602528220067165
13.147781444811146,-0.110593567578744
13.18115144847818,-0.1875478089916488
13.214521452145213,-0.16925634874321271
13.247891455812248,-0.0756095156677874
13.28126145947928,0.04132150528449586
13.314631463146315,0.12062022278931704
13.348001466813347,0.12079675335175195
13.381371470480381,0.04039600308652157
13.414741474147414,-0.07893758609247281
13.448111477814447,-0.16929498537724305
13.481481481481481,-0.16645771343028828
13.514851485148514,-0.039736103711959105
13.548221488815548,0.19198151332825897
13.58159149248258,0.46554385198328674
13.614961496149615,0.6980006378357622
13.648331499816647,0.8192968905282092
13.681701503483682,0.7988349400524374
13.715071507150714,0.6548043030582149
13.748441510817747,0.44332349404886195
13.781811514484781,0.23344201645986326
13.815181518151814,0.0797058644040538
13.848551521818848,0.003913221984322034
13.88192152548588,-0.007581169599572629
13.915291529152915,0.00788856219337735
13.948661532819948,0.008433903657234502
13.982031536486982,-0.0350094214912204
14.015401540154015,-0.13002781287669837
14.048771543821047,-0.26479108818144526
14.082141547488082,-0.41741462371333965
14.115511551155114,-0.5659646760135126
14.148881554822148,-0.6931416850353631
14.182251558489181,-0.7840821799004396
14.215621562156215,-0.8212080685465564
14.248991565823248,-0.7828783911179051
14.282361569490282,-0.6504358425182319
14.315731573157315,-0.422086703593995
14.349101576824348,-0.1258543405376702
14.382471580491382,0.17806521530522662
14.415841584158414,0.41103252565042675
14.449211587825449,0.5029271087246219
14.482581591492481,0.421554720333286
14.515951595159516,0.19072445320929382
14.549321598826548,-0.11280387101302222
14.582691602493583,-0.3840183283603437
14.616061606160615,-0.5264801160950003
14.649431609827648,-0.48609595177744386
14.682801613494682,-0.2682915535707306
14.716171617161715,0.06702491277149793
14.749541620828749,0.4284450407531657
14.782911624495782,0.7230495022258704
14.816281628162816,0.8819005478115434
14.849651631829849,0.8742538423961258
14.883021635496883,0.7100530383250176
14.916391639163916,0.43431596879321194
14.94976164283095,0.11707804470613328
14.983131646497982,-0.15994708318042863
15.016501650165015,-0.32064842087432033
15.04987165383205,-0.3150503111059754
15.083241657499082,-0.13827614381723535
15.116611661166116,0.16052792594015164
15.149981664833149,0.4870862443225801
15.183351668500183,0.7300301781185395
15.216721672167216,0.7998129628264139
15.25009167583425,0.6629365673427691
15.283461679501283,0.3558086800125472
15.316831683168315,-0.029292998840740596
15.35020168683535,-0.3809510072945998
15.383571690502382,-0.6120843749056302
15.416941694169417,-0.6910685727790946
15.45031169783645,-0.6474138497820442
15.483681701503484,-0.5509321100804708
15.517051705170516,-0.47536463548733865
15.55042170883755,-0.46389589909629675
15.583791712504583,-0.5121437462987969
15.617161716171616,-0.5752838555375825
15.65053171983865,-0.5943212364199117
15.683901723505683,-0.5277343649063138
15.717271727172717,-0.37290794992722615
15.75064173083975,-0.16752479892695624
15.784011734506784,0.028803165888274283
15.817381738173816,0.16306725572308742
15.85075174184085,0.21371177168752964
15.884121745507883,0.2002147639365007
15.917491749174916,0.17302623970255007
15.95086175284195,0.1883344227217847
15.984231756508983,0.2790311776310851
16.017601760176017,0.43547932391408695
16.05097176384305,0.6060747376571054
16.084341767510082,0.7190560931468272
16.117711771177117,0.7167382216380276
16.15108177484415,0.5860814461617478
16.184451778511182,0.36954530035249317
16.217821782178216,0.1486840048070187
16.25119178584525,0.006458346425269235
16.284561789512285,-0.014121584874350808
16.317931793179316,0.06580957073351482
16.35130179684635,0.16733553603614623
16.384671800513384,0.18949060422853883
16.41804180418042,0.058722124029097884
16.45141180784745,-0.23077539032743022
16.484781811514484,-0.6052654335102001
16.51815181518152,-0.9351481923199992
16.55152181884855,-1.0852837585085102
16.584891822515583,-0.9712173757648273
16.618261826182618,-0.5977575995301646
16.651631829849652,-0.0636558037276478
16.685001833516683,0.4700037652570363
16.718371837183717,0.8357767604462878
16.75174184085075,0.919169305842586
16.785111844517782,0.6993739078843869
16.818481848184817,0.25658029264236687
16.85185185185185,-0.256770470773905
16.885221855518886,-0.6702641647389793
16.918591859185916,-0.8552645825274711
16.95196186285295,-0.7678160905189156
16.985331866519985,-0.45871031260235046
17.01870187018702,-0.047665324047549786
17.05207187385405,0.32691908474882847
17.085441877521085,0.5612527119554673
17.11881188118812,0.6203727737371845
17.15218188485515,0.5402070933486162
17.185551888522184,0.3992348801142452
17.21892189218922,0.27518858183751066
17.252291895856253,0.2082421274241355
17.285661899523284,0.1876495163437341
17.319031903190318,0.1663033419390385
