Frequency (Hz),Amplitude
0.0,5.564861643636987
0.019801980198019802,5.56882778523503
0.039603960396039604,5.580693684682427
0.0594059405940594,5.600362515527243
0.07920792079207921,5.627675356476619
0.09900990099009901,5.662414731219948
0.1188118811881188,5.7043092905302135
0.13861386138613863,5.753039395764759
0.15841584158415842,5.80824333520302
0.1782178217821782,5.8695238992288745
0.19801980198019803,5.936455054858582
0.21782178217821782,6.008588490256838
0.2376237623762376,6.085459840404151
0.25742574257425743,6.16659445060924
0.27722772277227725,6.251512580354957
0.297029702970297,6.339733992345703
0.31683168316831684,6.430781908139397
0.33663366336633666,6.52418634113459
0.3564356435643564,6.6194868396612305
0.37623762376237624,6.7162346879318235
0.39603960396039606,6.813994621541092
0.4158415841584158,6.912346118170323
0.43564356435643564,7.010884324312748
0.45544554455445546,7.109220676268097
0.4752475247524752,7.206983269291419
0.495049504950495,7.30381702338148
0.5148514851485149,7.399383688342068
0.5346534653465347,7.493361724867686
0.5544554455445545,7.585446092782872
0.5742574257425742,7.675347972379894
0.594059405940594,7.762794440151541
0.613861386138614,7.847528116139666
0.6336633663366337,7.929306796612542
0.6534653465346534,8.007903082814464
0.6732673267326733,8.083104014052159
0.6930693069306931,8.15471071134208
0.7128712871287128,8.222538036183899
0.7326732673267327,8.28641426769539
0.7524752475247525,8.346180800291258
0.7722772277227723,8.401691863269313
0.7920792079207921,8.452814263040704
0.8118811881188118,8.499427148272964
0.8316831683168316,8.541421797875666
0.8514851485148516,8.578701431524049
0.8712871287128713,8.611181042265073
0.891089108910891,8.638787250666232
0.9108910891089109,8.661458179935915
0.9306930693069307,8.67914335145429
0.9504950495049505,8.691803600194605
0.9702970297029703,8.699411009581695
0.99009900990099,8.70194886541859
1.00990099009901,8.69941162860901
1.0297029702970297,8.691804926510686
1.0495049504950495,8.679145562864843
1.0693069306930694,8.661461546360464
1.0891089108910892,8.638792138003225
1.108910891089109,8.611187917564783
1.1287128712871286,8.578710869485155
1.1485148514851484,8.541434488685235
1.1683168316831685,8.499443906811685
1.188118811881188,8.452836039477166
1.2079207920792079,8.401719755068477
1.227722772277228,8.346216065661329
1.2475247524752475,8.286458340495466
1.2673267326732673,8.222592542310617
1.2871287128712872,8.154777486606278
1.3069306930693068,8.083185123546748
1.3267326732673268,8.008000841759667
1.3465346534653466,7.929423792645924
1.3663366336633662,7.847667232991938
1.3861386138613863,7.762958882616307
1.405940594059406,7.675541292443254
1.4257425742574257,7.585672216726252
1.4455445544554455,7.493624981092123
1.4653465346534653,7.399688835583899
1.4851485148514851,7.3041692788947215
1.504950495049505,7.2073883364611575
1.5247524752475248,7.109684770990703
1.5445544554455446,7.0114141993321
1.5643564356435644,6.912949084397438
1.5841584158415842,6.8146785652095
1.6039603960396038,6.717008082260214
1.6237623762376237,6.620358749516095
1.6435643564356437,6.525166419024903
1.6633663366336633,6.431880379747954
1.683168316831683,6.340961629733732
1.7029702970297032,6.252880660994438
1.7227722772277227,6.168114700531978
1.7425742574257426,6.087144360041495
1.7623762376237624,6.010449662006496
1.782178217821782,5.938505432076166
1.801980198019802,5.8717760772056256
1.8217821782178218,5.810709805739756
1.8415841584158414,5.755732388136587
1.8613861386138615,5.7072406028771425
1.881188118811881,5.665595557582914
1.900990099009901,5.631116115689827
1.920792079207921,5.604072688835513
1.9405940594059405,5.5846816691448105
1.9603960396039604,5.573100769616702
1.98019801980198,5.569425512551144
2.0,5.573687055824752
2.01980198019802,5.585851478253817
2.0396039603960396,5.605820564448241
2.0594059405940595,5.633434044559599
2.0792079207920793,5.668473163931125
2.099009900990099,5.710665389895358
2.118811881188119,5.759690013887107
2.1386138613861387,5.815184379915778
2.1584158415841586,5.876750465540929
2.1782178217821784,5.943961556425815
2.1980198019801978,6.016368785998943
2.217821782178218,6.093507352450358
2.237623762376238,6.1749022708695405
2.257425742574257,6.260073564073872
2.2772277227722775,6.348540837928794
2.297029702970297,6.439827223309519
2.3168316831683167,6.533462696058872
2.336633663366337,6.6289868080976655
2.3564356435643563,6.725950877695719
2.376237623762376,6.823919695713407
2.3960396039603964,6.922472808490567
2.4158415841584158,7.02120543814712
2.4356435643564356,7.119729098442968
2.455445544554456,7.217671959952952
2.4752475247524752,7.314679012900147
2.495049504950495,7.4104120701368315
2.514851485148515,7.504549646886961
2.5346534653465347,7.596786748252097
2.5544554455445545,7.6868345903124045
2.5742574257425743,7.774420276020081
2.594059405940594,7.859286443021291
2.6138613861386135,7.941190897048666
2.633663366336634,8.019906241568892
2.6534653465346536,8.095219511902222
2.673267326732673,8.166931819999679
2.6930693069306932,8.234858014413152
2.712871287128713,8.298826358670015
2.7326732673267324,8.358678230217416
2.7524752475247527,8.414267841286334
2.7722772277227725,8.465461982403072
2.792079207920792,8.512139788810524
2.811881188118812,8.554192529725526
2.8316831683168315,8.591523420125746
2.8514851485148514,8.624047454610128
2.8712871287128716,8.651691262794648
2.891089108910891,8.674392985673588
2.910891089108911,8.692102172388145
2.9306930693069306,8.704779696885605
2.9504950495049505,8.712397694019197
2.9702970297029703,8.714939514723607
2.99009900990099,8.712399699998059
3.00990099009901,8.704783973536092
3.0297029702970297,8.692109252951656
3.0495049504950495,8.674403679664533
3.0693069306930694,8.651706667618882
3.089108910891089,8.624068971114442
3.108910891089109,8.591552772126946
3.128712871287129,8.554231787577242
3.148514851485148,8.512191397073885
3.1683168316831685,8.465528791693334
3.1881188118811883,8.41435314437005
3.2079207920792077,8.35878580243362
3.227722772277228,8.298960502742636
3.2475247524752473,8.235023609708998
3.267326732673267,8.167134376265828
3.2871287128712874,8.095465227485622
3.3069306930693068,8.020202066077811
3.3267326732673266,7.941544598356843
3.346534653465347,7.859706678438609
3.366336633663366,7.774916667353515
3.386138613861386,7.687417802414595
3.4059405940594063,7.597468570496791
3.4257425742574257,7.505343076815631
3.4455445544554455,7.4113313982843465
3.4653465346534653,7.31573990752437
3.485148514851485,7.2188915500592055
3.504950495049505,7.121126053107928
3.5247524752475248,7.022800039707573
3.5445544554455446,6.924287016675224
3.564356435643564,6.825977199271271
3.5841584158415842,6.728277129530496
3.603960396039604,6.631609039382529
3.6237623762376234,6.536409904320923
3.6435643564356437,6.443130129093054
3.6633663366336635,6.35223180444112
3.683168316831683,6.264186474270513
3.702970297029703,6.179472356840907
3.722772277227723,6.09857097282598
3.7425742574257423,6.021963148474269
3.762376237623762,5.950124384500806
3.7821782178217824,5.883519611153242
3.801980198019802,5.822597386797215
3.8217821782178216,5.7677836400285045
3.841584158415842,5.719475101228457
3.8613861386138613,5.678032614890146
3.881188118811881,5.643774564163607
3.9009900990099013,5.616970668518974
3.9207920792079207,5.597836428965891
3.9405940594059405,5.586528488708658
3.96039603960396,5.583141148251522
3.98019801980198,5.587704223294514
4.0,5.600182364778181
4.01980198019802,5.620475879381059
4.03960396039604,5.648423003777364
4.0594059405940595,5.683803505787099
4.079207920792079,5.726343418184414
4.099009900990099,5.7757206623589035
4.118811881188119,5.831571292441438
4.138613861386139,5.89349608611099
4.158415841584159,5.961067223643787
4.178217821782178,6.033834827513614
4.198019801980198,6.1113331757113265
4.217821782178218,6.1930864475762135
4.237623762376238,6.27861390662363
4.257425742574258,6.367434466991701
4.2772277227722775,6.459070626327505
4.297029702970297,6.55305177697769
4.316831683168317,6.6489169289954955
4.336633663366336,6.746216893193618
4.356435643564357,6.844515981162782
4.376237623762377,6.943393282959178
4.3960396039603955,7.042443583190641
4.415841584158416,7.141277973575542
4.435643564356436,7.239524215634168
4.455445544554455,7.336826901750212
4.475247524752476,7.432847456985096
4.4950495049504955,7.527264018158336
4.514851485148514,7.619771221103898
4.534653465346535,7.71007992185309
4.554455445544555,7.797916872871805
4.574257425742574,7.8830243714296655
4.594059405940594,7.965159893694812
4.613861386138614,8.044095725199876
4.633663366336633,8.119618595864969
4.653465346534653,8.191529325739209
4.673267326732674,8.259642485977643
4.693069306930693,8.323786078251493
4.712871287128713,8.38380123474688
4.732673267326733,8.439541940095728
4.752475247524752,8.490874775961938
4.772277227722772,8.537678688543357
4.792079207920793,8.57984477891486
4.811881188118812,8.61727611590661
4.8316831683168315,8.64988757106351
4.851485148514852,8.677605675149032
4.871287128712871,8.700368495627457
4.891089108910891,8.718125534568909
4.910891089108912,8.73083764646451
4.930693069306931,8.738476975505597
4.9504950495049505,8.741026911966008
4.97029702970297,8.738482067423933
4.99009900990099,8.730848268666355
5.00990099009901,8.718142570230334
5.02970297029703,8.700393285648358
5.0495049504950495,8.677640037575394
5.069306930693069,8.649933827081343
5.089108910891089,8.617337122488177
5.108910891089109,8.579923968214487
5.128712871287129,8.537780114153348
5.148514851485149,8.491003166148744
5.1683168316831685,8.439702758141312
5.188118811881188,8.384000746517758
5.207920792079208,8.324031427107709
5.227722772277227,8.259941775112841
5.247524752475248,8.191891708008056
5.267326732673268,8.120054371103002
5.2871287128712865,8.044616444968534
5.306930693069307,7.965778473286541
5.326732673267327,7.883755208839125
5.346534653465346,7.798775974272769
5.366336633663367,7.711085032909357
5.3861386138613865,7.6209419631789315
5.405940594059405,7.528622028163325
5.425742574257426,7.434416529210732
5.445544554455446,7.338633129555274
5.465346534653465,7.241596130307619
5.485148514851486,7.143646677044219
5.504950495049505,7.045142870512473
5.524752475247524,6.946459749729653
5.544554455445545,6.847989110087942
5.564356435643565,6.750139113175577
5.584158415841584,6.653333639184919
5.603960396039604,6.5580113274393765
5.623762376237624,6.464624246331704
5.643564356435643,6.373636131601323
5.663366336633663,6.285520132336353
5.683168316831684,6.200756008455279
5.702970297029703,6.119826732861309
5.7227722772277225,6.043214467070272
5.742574257425743,5.971395901751988
5.762376237623762,5.904836983682351
5.782178217821782,5.843987087722267
5.801980198019803,5.7892727352600035
5.821782178217822,5.741091006523901
5.841584158415841,5.699802839516025
5.861386138613861,5.665726448218961
5.881188118811881,5.639131121804092
5.900990099009901,5.620231679601514
5.920792079207921,5.609183849436343
5.9405940594059405,5.606080807456699
5.96039603960396,5.610951066351308
5.98019801980198,5.62375782945585
6.0,5.644399846973021
6.01980198019802,5.67271372553621
6.03960396039604,5.708477562385163
6.0594059405940595,5.75141570843927
6.079207920792079,5.8012044164678835
6.099009900990099,5.8574781044896245
6.118811881188119,5.919835960612828
6.138613861386139,5.987848631261051
6.158415841584159,6.061064765745787
6.178217821782178,6.139017231157245
6.198019801980198,6.221228857209339
6.217821782178218,6.307217616324002
6.237623762376237,6.396501186277688
6.257425742574258,6.4886008788016944
6.2772277227722775,6.583044946434136
6.297029702970296,6.679371301439416
6.316831683168317,6.777129695216296
6.336633663366337,6.875883415215933
6.356435643564356,6.975210560107013
6.376237623762377,7.074704953904351
6.396039603960396,7.173976757091684
6.415841584158415,7.272652828338125
6.435643564356436,7.370376884979393
6.455445544554456,7.466809504580078
6.475247524752475,7.561628004027741
6.495049504950495,7.654526227014114
6.514851485148515,7.745214265606294
6.534653465346534,7.833418136996848
6.554455445544554,7.918879432478717
6.574257425742575,8.001354952213854
6.594059405940594,8.080616336422306
6.6138613861386135,8.15644970116369
6.633663366336634,8.228655284862775
6.653465346534653,8.297047110089315
6.673267326732673,8.361452663786416
6.693069306930694,8.421712598100303
6.712871287128713,8.477680453155228
6.732673267326732,8.529222402497044
6.752475247524753,8.576217021467937
6.772277227722772,8.618555078439877
6.792079207920792,8.656139348603917
6.811881188118813,8.688884449864213
6.8316831683168315,8.716716700304076
6.851485148514851,8.739573996661282
6.871287128712871,8.757405713261406
6.891089108910891,8.77017262090024
6.910891089108911,8.777846825233866
6.930693069306931,8.780411724319247
6.9504950495049505,8.777861985046403
6.97029702970297,8.770203538309577
6.99009900990099,8.757453592876
7.00990099009901,8.73964066802334
7.02970297029703,8.71680464512801
7.0495049504950495,8.688996838491095
7.069306930693069,8.656280085784658
7.089108910891089,8.618728858583353
7.108910891089109,8.576429393508528
7.128712871287128,8.529479844550078
7.148514851485149,8.477990457134831
7.1683168316831685,8.422083764471536
7.188118811881187,8.361894806608968
7.207920792079208,8.297571372480695
7.227722772277228,8.229274264960411
7.247524752475247,8.15717758859418
7.267326732673268,8.081469059184665
7.287128712871287,8.002350333748034
7.306930693069306,7.920037358510084
7.326732673267327,7.834760731515974
7.346534653465347,7.746766075048431
7.366336633663366,7.656314411335254
7.3861386138613865,7.56368253292103
7.405940594059406,7.469163356526537
7.425742574257425,7.373066246168574
7.445544554455446,7.275717287718611
7.465346534653466,7.177459492913141
7.485148514851485,7.0786529060920165
7.504950495049505,6.979674581678103
7.524752475247524,6.880918394728316
7.544554455445544,6.782794640975984
7.564356435643565,6.6857293769510555
7.584158415841584,6.590163445452242
7.603960396039604,6.496551127457285
7.623762376237624,6.405358359277361
7.643564356435643,6.317060454339994
7.663366336633663,6.232139273516701
7.683168316831684,6.151079797551024
7.702970297029703,6.074366070986317
7.7227722772277225,6.002476509889244
7.742574257425743,5.935878595979984
7.762376237623762,5.87502301712887
7.782178217821782,5.820337357165889
7.801980198019803,5.772219483986534
7.821782178217822,5.731030830214301
7.841584158415841,5.697089800361175
7.861386138613862,5.670665567127067
7.881188118811881,5.651972532000809
7.900990099009901,5.6411657175753165
7.92079207920792,5.638337328899464
7.9405940594059405,5.643514669413516
7.96039603960396,5.656659527205386
7.980198019801979,5.677669065829732
8.0,5.706378168929289
8.01980198019802,5.742563108130075
8.03960396039604,5.78594633704937
8.05940594059406,5.836202166613459
8.07920792079208,5.8929630512820035
8.099009900990099,5.95582621228546
8.118811881188119,6.024360340060836
8.138613861386139,6.098112149330524
8.158415841584159,6.176612601412309
8.178217821782178,6.25938265405397
8.198019801980198,6.3459384447034575
8.217821782178218,6.435795855085414
8.237623762376238,6.528474440922319
8.257425742574258,6.623500739438238
8.277227722772277,6.720410988703472
8.297029702970297,6.818753307399174
8.316831683168317,6.918089392117184
8.336633663366337,7.017995792976996
8.356435643564357,7.1180648282895405
8.376237623762377,7.217905196291617
8.396039603960396,7.31714233753372
8.415841584158416,7.415418596071114
8.435643564356436,7.512393221754798
8.455445544554456,7.607742250055423
8.475247524752476,7.701158290262406
8.495049504950495,7.792350247752263
8.514851485148515,7.881043001410143
8.534653465346535,7.966977053248836
8.554455445544555,8.049908163795818
8.574257425742575,8.129606983878173
8.594059405940595,8.205858690982382
8.613861386138613,8.278462636346282
8.633663366336634,8.347232007300057
8.653465346534654,8.411993508056502
8.673267326732672,8.472587061110588
8.693069306930694,8.528865530597777
8.712871287128714,8.580694468341145
8.732673267326732,8.627951882855381
8.752475247524753,8.670528031240599
8.772277227722773,8.708325233668372
8.792079207920791,8.741257710013766
8.811881188118813,8.76925143810521
8.831683168316832,8.792244033034196
8.85148514851485,8.81018464697773
8.871287128712872,8.823033889029114
8.891089108910892,8.830763764599771
8.91089108910891,8.833357634039393
8.930693069306932,8.830810190219447
8.950495049504951,8.823127454931992
8.97029702970297,8.810326794066043
8.990099009900991,8.792436951637145
9.00990099009901,8.769498102855401
9.029702970297029,8.741561926522499
9.04950495049505,8.70869169714306
9.06930693069307,8.670962397217242
9.089108910891088,8.628460850242476
9.10891089108911,8.581285874989137
9.12871287128713,8.52954846161578
9.148514851485148,8.473371970149291
9.16831683168317,8.412892351757185
9.188118811881187,8.348258393073147
9.207920792079207,8.27963198358137
9.227722772277229,8.207188405701315
9.247524752475247,8.131116646715444
9.267326732673267,8.05161973101775
9.287128712871288,7.96891507029619
9.306930693069306,7.88323482815466
9.326732673267326,7.794826294285811
9.346534653465348,7.703952261571964
9.366336633663366,7.6108913973645915
9.386138613861386,7.515938597617195
9.405940594059407,7.419405309469
9.425742574257425,7.321619804254933
9.445544554455445,7.222927378722586
9.465346534653467,7.1236904574728435
9.485148514851485,7.024288564352702
9.504950495049505,6.925118124827494
9.524752475247526,6.826592055440275
9.544554455445544,6.729139090640107
9.564356435643564,6.633202791974287
9.584158415841586,6.539240180506021
9.603960396039604,6.447719931124111
9.623762376237623,6.359120068113924
9.643564356435645,6.273925106054158
9.663366336633663,6.1926225899474705
9.683168316831683,6.115699004573812
9.702970297029704,6.043635046208777
9.722772277227723,5.976900280421998
9.742574257425742,5.9159472472465495
9.762376237623764,5.861205118163771
9.782178217821782,5.81307305545298
9.801980198019802,5.771913469673837
9.821782178217823,5.738045410525742
9.841584158415841,5.7117383546777205
9.861386138613861,5.693206666211994
9.881188118811881,5.6826049970260115
9.900990099009901,5.680024863887811
9.92079207920792,5.685492586563188
9.94059405940594,5.698968701248031
9.96039603960396,5.7203488818368395
9.98019801980198,5.749466316535941
10.0,5.786095407713433
10.01980198019802,5.8299565965273334
10.03960396039604,5.880722066589336
10.05940594059406,5.9380220556944945
10.07920792079208,6.001451501496562
10.099009900990099,6.070576763358493
10.118811881188119,6.144942194055777
10.138613861386139,6.2240763762585765
10.158415841584159,6.307497884461266
10.178217821782178,6.3947204786307505
10.198019801980198,6.485257677760388
10.217821782178218,6.578626697425032
10.237623762376238,6.67435176417326
10.257425742574258,6.7719668409606415
10.277227722772277,6.871017812307408
10.297029702970297,6.971064186369955
10.316831683168317,7.071680374762974
10.336633663366337,7.172456610905803
10.356435643564357,7.272999564955026
10.376237623762377,7.372932708943238
10.396039603960396,7.471896480311251
10.415841584158416,7.56954828616866
10.435643564356436,7.6655623847557495
10.455445544554454,7.759629674988385
10.475247524752476,7.851457419819785
10.495049504950495,7.940768924541168
10.514851485148514,8.027303187101912
10.534653465346535,8.110814534053736
10.554455445544555,8.191072252779795
10.574257425742573,8.267860228213786
10.594059405940595,8.340976590231588
10.613861386138614,8.410233376254132
10.633663366336632,8.475456212281477
10.653465346534654,8.536484014534441
10.673267326732674,8.593168713067886
10.693069306930692,8.645374998098038
10.712871287128714,8.69298008932216
10.732673267326733,8.735873528172892
10.752475247524751,8.773956992717025
10.772277227722773,8.807144134759415
10.792079207920793,8.835360438629444
10.81188118811881,8.858543101097453
10.831683168316832,8.876640931878393
10.851485148514852,8.88961427422297
10.87128712871287,8.897434945162624
10.891089108910892,8.900086195059703
10.910891089108912,8.897562686211607
