Frequency (Hz),Amplitude
0.0,4.328936037161748
0.01993355481727575,4.326982051604845
0.0398671096345515,4.321122533935418
0.059800664451827246,4.311364803650319
0.079734219269103,4.297721068309042
0.09966777408637874,4.280208436440582
0.11960132890365449,4.258848936241551
0.13953488372093023,4.233669540716017
0.159468438538206,4.204702200125114
0.17940199335548174,4.171983882858364
0.19933554817275748,4.135556626115852
0.21926910299003324,4.095467598110769
0.23920265780730898,4.051769173876301
0.25913621262458475,4.004519027202788
0.27906976744186046,3.953780241757499
0.29900332225913623,3.899621445070302
0.318936877076412,3.8421169698295317
0.3388704318936877,3.781347047855
0.3588039867109635,3.7173980432386933
0.37873754152823924,3.6503627325176304
0.39867109634551495,3.5803406414290477
0.4186046511627907,3.5074384498728572
0.4385382059800665,3.431770479266781
0.4584717607973422,3.3534592796449996
0.47840531561461797,3.2726363377713854
0.49833887043189373,3.1894429323945443
0.5182724252491695,3.104031168785102
0.5382059800664452,3.016565232126117
0.5581395348837209,2.927222908471391
0.5780730897009968,2.83619743316047
0.5980066445182725,2.7436997400793692
0.6179401993355482,2.649961201176769
0.637873754152824,2.555236964116066
0.6578073089700996,2.45981001623439
0.6777408637873754,2.3639961233715394
0.6976744186046512,2.2681498089097047
0.717607973421927,2.172671544301323
0.7375415282392027,2.0780163042970194
0.7574750830564785,1.9847035752749744
0.7774086378737541,1.893328756197574
0.7973421926910299,1.8045756012617
0.8172757475083057,1.7192288402622242
0.8372093023255814,1.638185279553428
0.8571428571428572,1.5624604532947917
0.877076411960133,1.4931862876112645
0.8970099667774087,1.431593562815509
0.9169435215946844,1.378972026961591
0.9368770764119602,1.3366022918651677
0.9568106312292359,1.305658873346475
0.9767441860465116,1.28709359794796
0.9966777408637875,1.281520638189405
1.0166112956810631,1.2891322674016235
1.036544850498339,1.3096708810136375
1.0564784053156147,1.3424664742037822
1.0764119601328903,1.3865273300305183
1.0963455149501662,1.4406569565729186
1.1162790697674418,1.5035687795173769
1.1362126245847177,1.5739790604622026
1.1561461794019936,1.650670544065681
1.176079734219269,1.7325285581581769
1.196013289036545,1.8185558360227168
1.2159468438538206,1.9078731626773782
1.2358803986710964,1.9997118262152538
1.255813953488372,2.0934021525344937
1.275747508305648,2.188360841555188
1.2956810631229239,2.284078652766473
1.3156146179401993,2.3801092093007608
1.3355481727574752,2.47605921621342
1.3554817275747508,2.571580124048944
1.3754152823920267,2.6663611356062358
1.3953488372093024,2.7601233979391835
1.4152823920265782,2.852615208287194
1.435215946843854,2.9436080708127776
1.4551495016611296,3.032893458661666
1.4750830564784054,3.120280156383786
1.495016611295681,3.205592077823519
1.514950166112957,3.2886664726948496
1.5348837209302328,3.3693524506812764
1.5548172757475083,3.447509765024848
1.5747508305647842,3.52300780840985
1.5946843853820598,3.5957247828071903
1.6146179401993357,3.6655470121404763
1.6345514950166113,3.732368372455022
1.6544850498338872,3.796089818970793
1.6744186046511629,3.8566189931943353
1.6943521594684385,3.913869896328967
1.7142857142857144,3.967762617701693
1.73421926910299,4.018223108935089
1.754152823920266,4.065182996225938
1.7740863787375416,4.108579424424404
1.7940199335548175,4.148354927697902
1.8139534883720931,4.18445732245906
1.8338870431893688,4.216839618976902
1.8538205980066447,4.2454599487035765
1.8737541528239203,4.270281504861398
1.893687707641196,4.2912724942657094
1.9136212624584719,4.30840609872429
1.9335548172757475,4.321660444667364
1.9534883720930232,4.331018579933581
1.9734219269102993,4.336468456876889
1.993355481727575,4.338002921173701
2.0132890365448506,4.335619705905857
2.0332225913621262,4.329321430679634
2.0531561461794023,4.319115605717923
2.073089700996678,4.305014641038472
2.0930232558139537,4.287035861010272
2.1129568106312293,4.265201524767228
2.132890365448505,4.239538853159723
2.1528239202657806,4.210080063146422
2.1727574750830567,4.176862410776795
2.1926910299003324,4.139928244198682
2.212624584717608,4.09932506845329
2.2325581395348837,4.055105624204544
2.25249169435216,4.00732798300425
2.2724252491694354,3.956055662236602
2.292358803986711,3.9013577635360965
2.312292358803987,3.8433091392589063
2.332225913621263,3.781990592541045
2.352159468438538,3.717489117639391
2.3720930232558137,3.649898188674612
2.39202657807309,3.579318106642698
2.4119601328903655,3.505856416714927
2.431893687707641,3.429628410505812
2.4518272425249172,3.3507577312802725
2.471760797342193,3.269377104150909
2.4916943521594686,3.1856292183752144
2.511627906976744,3.099667795131869
2.5315614617940203,3.0116588819079446
2.551495016611296,2.921782424175559
2.5714285714285716,2.8302341767064787
2.5913621262458477,2.7372280309739576
2.611295681063123,2.642998851812934
2.6312292358803986,2.5478059357569087
2.6511627906976742,2.4519372245311915
2.6710963455149503,2.3557144281608573
2.691029900332226,2.2594992289732874
2.7109634551495017,2.163700742537415
2.7308970099667778,2.0687843899268628
2.7508305647840534,1.9752822628578104
2.770764119601329,1.883804898721152
2.7906976744186047,1.7950540641842876
2.810631229235881,1.7098355872792947
2.8305647840531565,1.6290703768239267
2.850498338870432,1.5538004475679024
2.870431893687708,1.4851850784877052
2.8903654485049834,1.4244805343480482
2.910299003322259,1.3729960038076032
2.9302325581395348,1.3320201458279162
2.950166112956811,1.3027186614619384
2.9700996677740865,1.2860140205540023
2.990033222591362,1.2824707586953177
3.0099667774086383,1.2922165633105982
3.029900332225914,1.3149236679848735
3.0498338870431896,1.3498567225121154
3.0697674418604657,1.3959715087421494
3.089700996677741,1.452035624590581
3.1096345514950166,1.5167428014503836
3.129568106312292,1.588802822786299
3.1495016611295683,1.6670012472945972
3.169435215946844,1.7502318529317407
3.1893687707641196,1.8375086190590078
3.2093023255813957,1.9279644336070865
3.2292358803986714,2.0208423623266776
3.249169435215947,2.115483550375097
3.2691029900332227,2.211314284857981
3.289036544850499,2.307833622612058
3.3089700996677744,2.404602254700729
3.32890365448505,2.5012328416538465
3.3488372093023258,2.5973818141018423
3.3687707641196014,2.6927425166361822
3.388704318936877,2.787039526876621
3.4086378737541527,2.8800239742349905
3.428571428571429,2.971469694282805
3.4485049833887045,3.061170073932473
3.46843853820598,3.1489354639191953
3.4883720930232562,3.234591055390861
3.508305647840532,3.317975135506322
3.5282392026578075,3.398937652426944
3.548172757475083,3.4773390330218503
3.5681063122923593,3.553049207251471
3.588039867109635,3.625946801869912
3.60797342192691,3.695918473117255
3.6279069767441863,3.7628583537521783
3.647840531561462,3.8266675943561412
3.6677740863787376,3.8872539825357655
3.6877076411960132,3.944531626632861
3.7076411960132893,3.9984206929641406
3.727574750830565,4.048847187567976
3.7475083056478407,4.095742775024827
3.7674418604651168,4.1390446282140685
3.787375415282392,4.178695303930489
3.807308970099668,4.214642640155768
3.8272425249169437,4.246839671499986
3.8471760797342194,4.2752445599260325
3.867109634551495,4.299820538369205
3.887043189368771,4.320535865284648
3.9069767441860463,4.337363788512207
3.9269102990033224,4.350282517154771
3.9468438538205985,4.359275200432279
3.9667774086378738,4.364329912708846
3.98671096345515,4.3654396441018966
4.0066445182724255,4.362602296276193
4.026578073089701,4.355820683208788
4.046511627906977,4.345102536887602
4.0664451827242525,4.330460518082124
4.086378737541528,4.311912232504909
4.106312292358805,4.289480252871732
4.1262458471760795,4.2631921475726
4.146179401993356,4.233080516891359
4.166112956810632,4.199183037965369
4.186046511627907,4.1615425199672025
4.205980066445183,4.1202069713274385
4.225913621262459,4.0752296812130675
4.245847176079734,4.026669317944842
4.26578073089701,3.974590047596604
4.2857142857142865,3.9190616766928916
4.305647840531561,3.8601598237349846
4.325581395348838,3.7979661252752783
4.345514950166113,3.732568483467852
4.365448504983389,3.6640613635041026
4.385382059800665,3.5925461511639987
4.40531561461794,3.5181315829614035
4.425249169435216,3.4409342641428626
4.445182724252492,3.3610792932468887
4.465116279069767,3.2787010162114787
4.485049833887043,3.193943938334795
4.50498338870432,3.106963828996389
4.524916943521594,3.017929062226648
4.544850498338871,2.9270222463061644
4.5647840531561465,2.8344422079418523
4.584717607973422,2.7404064115388036
4.604651162790698,2.645153911881117
4.624584717607974,2.5489489590571064
4.644518272425249,2.452085396960557
4.664451827242526,2.3548920191259213
4.6843853820598005,2.2577390635925116
4.704318936877076,2.1610460333255315
4.724252491694353,2.065291004729791
4.7441860465116275,1.971021506771973
4.764119601328904,1.878866872576547
4.78405315614618,1.789551615665792
4.803986710963455,1.7039087692162656
4.823920265780731,1.6228911383853335
4.8438538205980075,1.5475769743355123
4.863787375415282,1.4791647544182267
4.883720930232559,1.4189499808727704
4.9036544850498345,1.3682762596108102
4.92358803986711,1.328455173680891
4.943521594684386,1.3006564783144918
4.963455149501661,1.2857820223460321
4.983388704318937,1.2843496091679207
5.003322259136213,1.2964187858379776
5.023255813953488,1.3215823105020235
5.043189368770764,1.3590261499369038
5.063122923588041,1.4076383467284808
5.083056478405315,1.466135339862435
5.102990033222592,1.5331772172566989
5.122923588039868,1.6074553166806096
5.142857142857143,1.6877482092168667
5.162790697674419,1.7729503571200989
5.182724252491695,1.8620809711365056
5.20265780730897,1.9542804489120986
5.222591362126246,2.0488001496917003
5.242524916943522,2.144989395319401
5.262458471760797,2.2422820438385673
5.282392026578074,2.3401838930245713
5.3023255813953485,2.4382614799761044
5.322259136212625,2.5361324407265218
5.342192691029901,2.63345738044868
5.362126245847176,2.729933105684948
5.382059800664452,2.8252870355757644
5.4019933554817285,2.9192726086169296
5.421926910299003,3.011665517096366
5.44186046511628,3.102260623073665
5.4617940199335555,3.1908694323571383
5.48172757475083,3.277318023915251
5.501661129568107,3.3614453505384847
5.5215946843853825,3.443101842128825
5.541528239202658,3.5221482558966715
5.561461794019934,3.5984547283043935
5.5813953488372094,3.6718999921668902
5.601328903654485,3.742370729243655
5.621262458471762,3.8097610342364816
5.641196013289036,3.873971970598597
5.661129568106313,3.9349112021789905
5.681063122923589,3.992492687642679
5.700996677740864,4.046636426964668
5.72093023255814,4.097268251204278
5.740863787375416,4.144319648317242
5.760797342192691,4.187727619027206
5.780730897009967,4.227434557812518
5.800664451827243,4.26338815491439
5.820598006644518,4.295541315974626
5.840531561461795,4.323852096494021
5.8604651162790695,4.3482836487901055
5.880398671096346,4.368804179543397
5.900332225913622,4.385386916370217
5.920265780730897,4.398010082160149
5.940199335548173,4.4066568761773235
5.960132890365449,4.411315461155937
5.980066445182724,4.411978955828602
6.0,4.408645432518599
6.0199335548172765,4.4013179196084
6.039867109634551,4.390004408873371
6.059800664451828,4.374717867845774
6.0797342192691035,4.355476257555482
6.099667774086379,4.332302556185194
6.119601328903655,4.305224789385638
6.139534883720931,4.274276068226064
6.159468438538206,4.239494636015142
6.179401993355482,4.2009239255255
6.1993355481727574,4.158612628502002
6.219269102990033,4.112614779742142
6.23920265780731,4.062989858521422
6.259136212624584,4.009802910716907
6.279069767441861,3.95312469568083
6.299003322259137,3.893031862763288
6.318936877076412,3.8296071634141873
6.338870431893688,3.7629397060565224
6.3588039867109645,3.6931252624727766
6.378737541528239,3.6202666363564524
6.398671096345516,3.5444741070429857
6.418604651162791,3.465865964363522
6.438538205980066,3.384569154205232
6.458471760797343,3.300720058892933
6.4784053156146175,3.214465442151297
6.498338870431894,3.1259635954359046
6.51827242524917,3.03538573115893
6.538205980066445,2.9429176791542173
6.558139534883721,2.848761956031915
6.578073089700998,2.7531402932529794
6.598006644518272,2.6562967290794393
6.617940199335549,2.5585013919762027
6.6378737541528245,2.4600551277998193
6.6578073089701,2.361295148061136
6.677740863787376,2.2626018969434636
6.6976744186046515,2.1644073412110276
6.717607973421927,2.067204862343619
6.737541528239203,1.9715608439604728
6.7574750830564785,1.8781278499149743
6.777408637873754,1.7876589022820717
6.797342192691031,1.7010216863093943
6.8172757475083055,1.619210406605723
6.837209302325582,1.5433514093809824
6.857142857142858,1.474696660694952
6.877076411960133,1.4145972524608657
6.897009966777409,1.36444855784065
6.9169435215946855,1.3256015308968232
6.93687707641196,1.2992429538558283
6.956810631229236,1.2862609352313583
6.9767441860465125,1.2871256201117374
6.996677740863787,1.301819657962732
7.016611295681064,1.3298414863247938
7.036544850498339,1.3702802417744693
7.056478405315615,1.421937565183844
7.076411960132891,1.4834615942212006
7.096345514950166,1.5534642184107965
7.116279069767442,1.630606638051262
7.136212624584719,1.7136514001771719
7.156146179401993,1.801486846263447
7.17607973421927,1.8931323760372314
7.196013289036546,1.9877321908699
7.21594684385382,2.0845432224724627
7.235880398671097,2.18292095985504
7.2558139534883725,2.2823053289766113
7.275747508305648,2.3822077221362137
7.295681063122924,2.4821996249817913
7.3156146179402,2.5819029241404374
7.335548172757475,2.6809817934104365
7.355481727574752,2.779135977097882
7.3754152823920265,2.876095267730282
7.395348837209303,2.971614983301232
7.415282392026579,3.0654722700020476
7.435215946843854,3.157463081229436
7.45514950166113,3.2473997080730044
7.475083056478406,3.3351087584923507
7.495016611295681,3.4204295013141284
7.514950166112956,3.50321250699709
7.5348837209302335,3.58331853010949
7.554817275747508,3.6606175890262804
7.574750830564784,3.7349882068826137
7.5946843853820605,3.806316784681629
7.614617940199336,3.874497082964833
7.634551495016611,3.9394297928779882
7.6544850498338874,4.001022181020749
7.674418604651163,4.059187795330214
7.694352159468439,4.113846221557414
7.714285714285715,4.164922881763337
7.73421926910299,4.2123488677770355
7.754152823920266,4.256060803792983
7.774086378737542,4.2960007332946555
7.794019933554818,4.3321160263207545
7.813953488372093,4.364359303775472
7.83388704318937,4.392688376053085
7.853820598006645,4.417066193722816
7.8737541528239205,4.437460808420691
7.893687707641197,4.453845342436284
7.913621262458472,4.466197965775584
7.9335548172757475,4.474501879737408
7.953488372093024,4.478745306267785
7.9734219269103,4.478921482562209
7.9933554817275745,4.4750286605756076
8.013289036544851,4.467070111280408
8.033222591362128,4.455054133688916
8.053156146179402,4.438994068833167
8.073089700996679,4.418908319077902
8.093023255813954,4.394820373336319
8.11295681063123,4.3667588389695595
8.132890365448505,4.334757481385455
8.152823920265782,4.298855272618895
8.172757475083056,4.25909645048248
8.192691029900331,4.2155305902346125
8.21262458471761,4.168212691134233
8.232558139534884,4.117203280754699
8.252491694352159,4.062568540532382
8.272425249169435,4.004380456754777
8.292358803986712,3.942717002077461
8.312292358803987,3.877662353740455
8.332225913621263,3.809307155979041
8.352159468438538,3.737748835756152
8.372093023255815,3.6630919829598825
8.392026578073091,3.5854488087104173
8.411960132890366,3.5049396985308947
8.43189368770764,3.421693881014429
8.451827242524917,3.3358502374624948
8.471760797342194,3.2475582840262716
8.491694352159469,3.1569793654547835
8.511627906976745,3.064288109009467
8.53156146179402,2.9696741988723905
8.551495016611296,2.8733445459292106
8.571428571428573,2.7755259456232846
8.591362126245848,2.6764683380204533
8.611295681063122,2.576448809341147
8.6312292358804,2.4757765023130536
8.651162790697676,2.374798631580364
8.67109634551495,2.273907825024436
8.691029900332227,2.1735510219812206
8.710963455149502,2.074240135781689
8.730897009966778,1.9765645967607235
8.750830564784053,1.8812056758791629
8.77076411960133,1.788952059303841
8.790697674418604,1.7007153749786679
8.81063122923588,1.6175431161700924
8.830564784053157,1.5406245621510786
8.850498338870432,1.4712829744489437
8.870431893687707,1.410945184388915
8.890365448504983,1.3610792160200567
8.91029900332226,1.3230942668140482
8.930232558139535,1.2982074648696553
8.950166112956811,1.2872976192246472
8.970099667774086,1.2907810770559134
8.990033222591363,1.3085477589680048
9.00996677740864,1.3399794979095057
9.029900332225914,1.3840440784653216
9.049833887043189,1.4394335979331874
9.069767441860467,1.5047082820687077
9.089700996677742,1.5784164374618352
9.109634551495017,1.6591776980388022
9.129568106312293,1.7457304077225688
9.14950166112957,1.8369510744583748
9.169435215946844,1.9318553528260318
9.189368770764121,2.029588553455649
9.209302325581396,2.1294113294693635
9.22923588039867,2.2306840491443922
9.249169435215949,2.3328517882586333
9.269102990033224,2.435430854208908
9.289036544850498,2.5379971526819287
9.308970099667773,2.6401763852924014
9.328903654485051,2.741635913931205
9.348837209302326,2.8420780709660542
9.368770764119601,2.941234688291181
9.388704318936878,3.0388626359591546
9.408637873754152,3.1347401881014285
9.428571428571429,3.228664062470455
9.448504983388705,3.320447006628908
9.46843853820598,3.4099158271482692
9.488372093023255,3.4969097778478795
9.508305647840533,3.581279239319213
9.528239202657808,3.6628846351641164
9.548172757475083,3.741595541005358
9.56810631229236,3.817289950857667
9.588039867109636,3.8898536722738632
9.60797342192691,3.9591798271413676
9.627906976744187,4.02516843937349
9.647840531561462,4.087726094241358
9.667774086378738,4.146765656904027
9.687707641196015,4.20220603995814
9.70764119601329,4.253972011656934
9.727574750830565,4.301994037930351
9.747508305647841,4.346208152543637
9.767441860465118,4.386555850717067
9.787375415282392,4.422984002338244
9.807308970099669,4.455444781565968
9.827242524916944,4.483895610179159
9.84717607973422,4.508299112487608
9.867109634551497,4.528623080012489
9.887043189368772,4.544840444477121
9.906976744186046,4.556929257935347
9.926910299003321,4.564872679115529
9.9468438538206,4.568658965281016
9.966777408637874,4.568281469110123
9.986710963455149,4.563738640286631
10.006644518272426,4.555034031670737
10.026578073089702,4.542176310096215
10.046511627906977,4.52517927201665
10.066445182724253,4.504061864408229
10.086378737541528,4.478848211532795
10.106312292358805,4.449567648380521
10.126245847176081,4.416254761851726
10.146179401993356,4.378949441011431
10.16611295681063,4.337696938066716
10.186046511627907,4.29254794208775
10.205980066445184,4.243558667932158
10.225913621262459,4.1907909633562985
10.245847176079735,4.134312437927736
10.26578073089701,4.07419661811647
10.285714285714286,4.010523133872788
10.305647840531563,3.9433779431380533
10.325581395348838,3.8728536021353497
10.345514950166113,3.799049591016666
10.36544850498339,3.722072706588294
10.385382059800666,3.642037536505351
10.40531561461794,3.559067032658528
10.425249169435217,3.473293205647218
10.445182724252492,3.3848579674661083
10.465116279069768,3.2939141561065775
10.485049833887045,3.2006267840385116
10.50498338870432,3.1051745629179517
10.524916943521594,3.0077517698686167
10.544850498338871,2.908570536887998
10.564784053156147,2.8078636649345365
10.584717607973422,2.705888088584916
10.604651162790697,2.6029291460253385
10.624584717607974,2.4993058420141296
10.64451827242525,2.3953773261754976
10.664451827242525,2.2915508402575955
10.684385382059801,2.1882914046751667
10.704318936877076,2.0861334952745665
10.724252491694353,1.9856948668751286
10.74418604651163,1.8876924442340322
10.764119601328904,1.792959717666227
10.784053156146179,1.702464197116905
10.803986710963457,1.6173220125045493
10.823920265780732,1.5388045681988638
