Time (s),Filtered Signal
0.0,-0.00833504965019068
0.03337028824833703,-0.5938221296167829
0.06674057649667406,-1.0138705434225974
0.10011086474501109,-1.159663853330098
0.13348115299334812,-1.0129842760276255
0.16685144124168516,-0.6453381079943242
0.20022172949002218,-0.18568356074121897
0.2335920177383592,0.22722215153318628
0.26696230598669624,0.48791701182204433
0.3003325942350333,0.548440912439335
0.3337028824833703,0.4200952062649155
0.3670731707317073,0.15867070859396395
0.40044345898004435,-0.15711693350303413
0.4338137472283814,-0.44610835524322856
0.4671840354767184,-0.6405365102950782
0.5005543237250555,-0.6968915802951579
0.5339246119733925,-0.6021642699919832
0.5672949002217295,-0.37483349377892566
0.6006651884700666,-0.05934765698358428
0.6340354767184035,0.28590589906554603
0.6674057649667406,0.6041994663931358
0.7007760532150776,0.8539149016370629
0.7341463414634146,1.0139882827329785
0.7675166297117517,1.0791505623197573
0.8008869179600887,1.0487363667506642
0.8342572062084257,0.9174036424797303
0.8676274944567628,0.6756996741109862
0.9009977827050998,0.32239158735325657
0.9343680709534368,-0.11784713473708927
0.9677383592017739,-0.5831340882839948
1.001108647450111,-0.9797965585867323
1.0344789356984478,-1.2070388563803123
1.067849223946785,-1.1932405452512862
1.101219512195122,-0.9290358882703084
1.134589800443459,-0.48164472561931077
1.167960088691796,0.018652497533156773
1.2013303769401331,0.4179690584587158
1.23470066518847,0.5910901589400767
1.268070953436807,0.48692930185917394
1.3014412416851442,0.1488234461129015
1.3348115299334813,-0.2994430236713866
1.3681818181818182,-0.6973482029442518
1.4015521064301553,-0.9043591188506652
1.4349223946784924,-0.8478343284021194
1.4682926829268292,-0.544550043911555
1.5016629711751663,-0.08971439844590776
1.5350332594235034,0.37977064325407633
1.5684035476718403,0.7324477495477613
1.6017738359201774,0.8830567781415534
1.6351441241685145,0.8148518911849322
1.6685144124168514,0.5789737803022794
1.7018847006651885,0.27340096368103173
1.7352549889135256,0.008904044944656327
1.7686252771618625,-0.1278277414168422
1.8019955654101996,-0.10283003584994477
1.8353658536585367,0.054344005811220245
1.8687361419068735,0.26261155166102673
1.9021064301552106,0.42125594011448136
1.9354767184035477,0.45039675778182314
1.9688470066518848,0.3237325984440558
2.002217294900222,0.0792066588101345
2.035587583148559,-0.1977228991284932
2.0689578713968957,-0.41122039405398425
2.102328159645233,-0.4960466211356761
2.13569844789357,-0.44388216322337787
2.1690687361419068,-0.3033852338870402
2.202439024390244,-0.15466671654187092
2.235809312638581,-0.07058439394654559
2.269179600886918,-0.08293118314730319
2.302549889135255,-0.16887943758078355
2.335920177383592,-0.2634930755117443
2.369290465631929,-0.29215406706983316
2.4026607538802662,-0.20769991334000587
2.436031042128603,-0.014987367794591736
2.46940133037694,0.22852944030196584
2.5027716186252773,0.4364917063654289
2.536141906873614,0.5307488081588879
2.569512195121951,0.47512427459078044
2.6028824833702884,0.29096618481555847
2.6362527716186253,0.04811279500368736
2.6696230598669626,-0.1641659565012471
2.7029933481152995,-0.2732610469954434
2.7363636363636363,-0.25090525994540147
2.7697339246119737,-0.12126661926273571
2.8031042128603105,0.05279271251610686
2.8364745011086474,0.19796572086894565
2.8698447893569847,0.26004080432002424
2.9032150776053216,0.2219744879659616
2.9365853658536585,0.10413410874648074
2.969955654101996,-0.0507219795222093
3.0033259423503327,-0.19833119715185063
3.0366962305986696,-0.3089174611575839
3.070066518847007,-0.3718706099328097
3.1034368070953438,-0.3898484066331335
3.1368070953436806,-0.3686818350374778
3.170177383592018,-0.31052572193370787
3.203547671840355,-0.21413626624657342
3.2369179600886917,-0.08081037043092562
3.270288248337029,0.07899394068389455
3.303658536585366,0.24313860287582234
3.337028824833703,0.38117214221212986
3.37039911308204,0.4621217738817027
3.403769401330377,0.4636982018719203
3.437139689578714,0.3800519914989489
3.470509977827051,0.2258627155866738
3.503880266075388,0.03495812211425509
3.537250554323725,-0.1475552786812498
3.5706208425720622,-0.27855841538257026
3.603991130820399,-0.33136924231172343
3.637361419068736,-0.30507455206019907
3.6707317073170733,-0.2236727412897268
3.70410199556541,-0.12476850671638878
3.737472283813747,-0.043321193167753715
3.7708425720620844,0.00125291859257655
3.8042128603104213,0.00864963729924673
3.8375831485587586,-0.00809943776209845
3.8709534368070955,-0.0323525918391729
3.9043237250554323,-0.05095408267057871
3.9376940133037697,-0.05555341777011907
3.9710643015521065,-0.04000196176292306
4.004434589800444,0.0016563906599367224
4.037804878048781,0.07347188597397851
4.071175166297118,0.1728959330706794
4.1045454545454545,0.2869202243852095
4.137915742793791,0.3928106910419217
4.171286031042128,0.46429163200512286
4.204656319290466,0.4805619217258806
4.238026607538803,0.43387306277777987
4.27139689578714,0.3323718910942391
4.304767184035477,0.1974689290831823
4.3381374722838135,0.05733568008505539
4.371507760532151,-0.06090222661897943
4.404878048780488,-0.13803344248780186
4.438248337028825,-0.1672209381881881
4.471618625277162,-0.1551940221007472
4.504988913525499,-0.11983846807764129
4.538359201773836,-0.08465223088599656
4.571729490022173,-0.07158188028072744
4.60509977827051,-0.09450037965106758
4.638470066518847,-0.1554649668540975
4.671840354767184,-0.2448418200286081
4.705210643015521,-0.3448802309607385
4.738580931263858,-0.4350591236638611
4.771951219512196,-0.4970957284951648
4.8053215077605325,-0.5181200448592065
4.838691796008869,-0.49183008670076434
4.872062084257206,-0.41857651818030367
4.905432372505543,-0.30541995752750867
4.93880266075388,-0.1661790723387005
4.972172949002218,-0.02028923211355819
5.005543237250555,0.1107986799993009
5.0389135254988915,0.20945885830965535
5.072283813747228,0.2675991053098138
5.105654101995565,0.28881194864999776
5.139024390243902,0.284844170935832
5.17239467849224,0.2675642878011069
5.205764966740577,0.24093690894355516
5.239135254988914,0.1984596568742255
5.2725055432372505,0.12890346797681532
5.305875831485587,0.02809667212146266
5.339246119733925,-0.09013616899740819
5.372616407982262,-0.19178670570381712
5.405986696230599,-0.23326078091212626
5.439356984478936,-0.1816875417072903
5.472727272727273,-0.03536877792238292
5.5060975609756095,0.16719024355734852
5.539467849223947,0.35701154893590253
5.572838137472284,0.4616124512221786
5.606208425720621,0.4383178425423765
5.639578713968958,0.29798314372843715
5.672949002217295,0.10569116697157559
5.706319290465632,-0.04513734988917807
5.7396895787139695,-0.07550931884737547
5.773059866962306,0.039363452943026615
5.806430155210643,0.25412616641770736
5.83980044345898,0.47180843052465316
5.873170731707317,0.5900353481684367
5.906541019955654,0.5524253835815008
5.939911308203992,0.3778878926538438
5.9732815964523285,0.1507229992666575
6.006651884700665,-0.024766588064305255
6.040022172949002,-0.08127462582242159
6.073392461197339,-0.02568230950618228
6.106762749445676,0.06466912479469342
6.140133037694014,0.0849900982109617
6.173503325942351,-0.03830000224809278
6.2068736141906875,-0.30536685637393834
6.240243902439024,-0.6396897166129629
6.273614190687361,-0.9246600452204173
6.306984478935698,-1.0599868638137815
6.340354767184036,-1.0085856152475445
6.373725055432373,-0.811032237135129
6.40709534368071,-0.5621752511297247
6.4404656319290465,-0.3634224070268342
6.473835920177383,-0.2751262339039811
6.507206208425721,-0.2917488577831311
6.540576496674058,-0.3499781388911845
6.573946784922395,-0.3635974667657517
6.607317073170732,-0.2668313207023646
6.640687361419069,-0.045445304126447976
6.674057649667406,0.25768159317021033
6.707427937915743,0.562903783407461
6.74079822616408,0.7886393609537479
6.774168514412417,0.8838514465515752
6.807538802660754,0.8442400283636947
6.840909090909091,0.7071842504442524
6.874279379157428,0.5306616445677075
6.9076496674057655,0.36778912379555406
6.941019955654102,0.24869831360252787
6.974390243902439,0.17605335924979232
7.007760532150776,0.13311652811502453
7.041130820399113,0.09777770117605758
7.07450110864745,0.05466938084001999
7.107871396895788,0.00020198485049636425
7.1412416851441245,-0.05999383204239756
7.174611973392461,-0.11773246323084822
7.207982261640798,-0.1680527373340661
7.241352549889135,-0.2105055242933402
7.274722838137472,-0.24561860777874617
7.30809312638581,-0.26950711860781884
7.341463414634147,-0.27107610698097045
7.3748337028824835,-0.234993260105965
7.40820399113082,-0.15014326427348315
7.441574279379157,-0.01948366443698829
7.474944567627494,0.13462924889279387
7.508314855875832,0.27412752057599177
7.541685144124169,0.3581140637955613
7.575055432372506,0.36010193871126783
7.6084257206208425,0.2817079944315554
7.641796008869179,0.15556235240921082
7.675166297117517,0.034535273172795734
7.708536585365854,-0.029430094659729043
7.741906873614191,-0.00833689231288003
7.775277161862528,0.08730498010769429
7.808647450110865,0.20978488545124366
7.842017738359202,0.29209616038772224
7.875388026607539,0.27558146258645555
7.908758314855876,0.13558881032579112
7.942128603104213,-0.10618052610804155
7.97549889135255,-0.38824415017437225
8.008869179600888,-0.6321108732829505
8.042239467849225,-0.7715481006793227
8.075609756097561,-0.7761985353616235
8.108980044345898,-0.6603724342157686
8.142350332594235,-0.4745112963829184
8.175720620842572,-0.28395170820377336
8.209090909090909,-0.14415633233719097
8.242461197339246,-0.0820087046289488
8.275831485587583,-0.08949500739088531
8.30920177383592,-0.13086841757222561
8.342572062084257,-0.15935649159684678
8.375942350332595,-0.13639108957694868
8.409312638580932,-0.046106573144776515
8.442682926829269,0.09973556126206613
8.476053215077606,0.2673396858843983
8.509423503325943,0.41410820317134406
8.54279379157428,0.504163312466086
8.576164079822616,0.5203333754616682
8.609534368070953,0.46835585982363814
8.64290465631929,0.37221419583757975
8.676274944567627,0.2632075652995164
8.709645232815964,0.1679801128295093
8.743015521064303,0.10090833299017828
8.77638580931264,0.06368007123747571
8.809756097560976,0.05087357400274078
8.843126385809313,0.05711257674864388
8.87649667405765,0.0808348062681155
8.909866962305987,0.12222776030362267
8.943237250554324,0.17700020752186063
8.97660753880266,0.2308898023370754
9.009977827050998,0.26006058874515914
9.043348115299334,0.2393656572202583
9.076718403547671,0.1554334871918697
9.110088691796008,0.01757669608940505
9.143458980044347,-0.1407557539970164
9.176829268292684,-0.27308541481089105
9.21019955654102,-0.3398444688121396
9.243569844789358,-0.3276537328303806
9.276940133037694,-0.2574001027487671
9.310310421286031,-0.1755568901339052
9.343680709534368,-0.1319222881889523
9.377050997782705,-0.154602792849348
9.410421286031042,-0.23510412251355806
9.443791574279379,-0.331416833592331
9.477161862527716,-0.3876722276584948
9.510532150776053,-0.3604614765498612
9.543902439024391,-0.2388565664493653
9.577272727272728,-0.04894496208057776
9.610643015521065,0.15814280386217533
9.644013303769402,0.3277825338053622
9.677383592017739,0.42233859227154136
9.710753880266076,0.4317925733459006
9.744124168514412,0.371503881585651
9.77749445676275,0.2704367709792861
9.810864745011086,0.15700277447140099
9.844235033259423,0.04949765143642225
9.87760532150776,-0.04540932938298888
9.910975609756099,-0.12740954455735135
9.944345898004435,-0.1952461776950565
9.977716186252772,-0.24262608563076327
10.01108647450111,-0.26013376487281775
10.044456762749446,-0.24190868029815105
10.077827050997783,-0.19256741383189754
10.11119733924612,-0.12921607704585863
10.144567627494457,-0.07591242216821331
10.177937915742794,-0.05237856066528165
10.21130820399113,-0.06272850518571896
10.244678492239467,-0.09106028966673305
10.278048780487804,-0.10789313100036245
10.311419068736143,-0.08566309351428524
10.34478935698448,-0.015776144039728594
10.378159645232817,0.08251915812193414
10.411529933481154,0.16802742688182973
10.44490022172949,0.19733979831654638
10.478270509977827,0.14935241803130414
10.511640798226164,0.04144119300928356
10.545011086474501,-0.07296689475600455
10.578381374722838,-0.1266364636680463
10.611751662971175,-0.07099936162222334
10.645121951219512,0.0972971387223309
10.67849223946785,0.33015496560333646
10.711862527716187,0.5466708481979772
10.745232815964524,0.6683572721316088
10.778603104212861,0.6537394733602356
10.811973392461198,0.515245357992127
10.845343680709535,0.310452139713583
10.878713968957872,0.11291747841229603
10.912084257206208,-0.02210000933969201
10.945454545454545,-0.07991277579301392
10.978824833702882,-0.0865634095394697
11.012195121951219,-0.0885550579942048
11.045565410199556,-0.12414837695758572
11.078935698447895,-0.20189254143043428
11.112305986696231,-0.2975087582308124
11.145676274944568,-0.3700473064972102
11.179046563192905,-0.387734747843763
11.212416851441242,-0.3486072144335368
11.245787139689579,-0.28380282568216464
11.279157427937916,-0.2409753376844523
11.312527716186253,-0.25662828359685846
11.34589800443459,-0.3329610889732752
11.379268292682926,-0.43302364397407134
11.412638580931263,-0.49822557778046866
11.4460088691796,-0.4796994949808084
11.479379157427939,-0.3666298166494607
11.512749445676276,-0.1953587768908742
11.546119733924613,-0.03292802052450667
11.57949002217295,0.0573724780542972
11.612860310421286,0.050527176313152775
11.646230598669623,-0.024342715835282268
11.67960088691796,-0.09599446125928442
11.712971175166297,-0.08543008649235137
11.746341463414634,0.054697909269802454
11.77971175166297,0.3152997174154479
11.813082039911308,0.6323070423637238
11.846452328159646,0.9125488016533434
11.879822616407983,1.0708654871333148
11.91319290465632,1.061539841376928
11.946563192904657,0.8916812256940927
11.979933481152994,0.6134986585122122
12.01330376940133,0.3013974529988392
12.046674057649668,0.02481461111090599
12.080044345898004,-0.1724944495804933
12.113414634146341,-0.28028150030108556
12.146784922394678,-0.3162832224653741
12.180155210643015,-0.31202208796305725
12.213525498891352,-0.2970805911979682
12.24689578713969,-0.2882863291981444
12.280266075388028,-0.28708347081925334
12.313636363636364,-0.2843536312857494
12.347006651884701,-0.26887553294843064
12.380376940133038,-0.23472961407741835
12.413747228381375,-0.18440650811856782
12.447117516629712,-0.1271332650851282
12.480487804878049,-0.07437382848669248
12.513858093126386,-0.035363303513850794
12.547228381374723,-0.01473808083800137
12.58059866962306,-0.012659483018132458
12.613968957871396,-0.02643527888321459
12.647339246119735,-0.052220883767569226
12.680709534368072,-0.08588713675762108
12.714079822616409,-0.12300785708678366
12.747450110864746,-0.15853553743436852
12.780820399113082,-0.1868112505100325
12.81419068736142,-0.2021986219554709
12.847560975609756,-0.200153436203478
12.880931263858093,-0.17823708931385893
12.91430155210643,-0.13659859646950664
12.947671840354767,-0.07774257489792945
12.981042128603104,-0.0057922591686979065
13.014412416851442,0.07425617686078345
13.04778270509978,0.1567646836066007
13.081152993348116,0.23496673827745657
13.114523281596453,0.3001801337421453
13.14789356984479,0.34175101497402055
13.181263858093127,0.3488402208359804
13.214634146341464,0.31431453699944245
13.2480044345898,0.2394506060298136
13.281374722838137,0.1368308692693423
13.314745011086474,0.02883975122464983
13.348115299334811,-0.05896318729895264
13.381485587583148,-0.10736103231379689
13.414855875831487,-0.1113911181838174
13.448226164079824,-0.08228247834863776
13.48159645232816,-0.04188709571114191
13.514966740576497,-0.012095451835608551
13.548337028824834,-0.004525874813404932
13.581707317073171,-0.015678696637930183
13.615077605321508,-0.029858874377675225
13.648447893569845,-0.028188851684581573
13.681818181818182,0.0008861056227054959
13.715188470066519,0.05467923316225663
13.748558758314855,0.11609547779530627
13.781929046563192,0.1602603630231798
13.815299334811531,0.1651205416077963
13.848669623059868,0.12157735166747337
13.882039911308205,0.03875146535801287
13.915410199556542,-0.058330109336135305
13.948780487804878,-0.13834462351733373
13.982150776053215,-0.17695132154797466
14.015521064301552,-0.16787036893216903
14.048891352549889,-0.12617503611090172
14.082261640798226,-0.0813857453733044
14.115631929046563,-0.06285116662983038
14.1490022172949,-0.0841342125736582
14.182372505543238,-0.13430188684976652
14.215742793791575,-0.18116449035299861
14.249113082039912,-0.1857900026897472
14.282483370288249,-0.12187366114995088
14.315853658536586,0.009229798966916601
14.349223946784923,0.17529367186479794
14.38259423503326,0.3239019765166398
14.415964523281596,0.4026344146197449
14.449334811529933,0.37995208328985736
14.48270509977827,0.2577051749595719
14.516075388026607,0.07008813214783068
14.549445676274944,-0.1299985712448558
14.582815964523283,-0.2908126930224424
14.61618625277162,-0.37927697485675854
14.649556541019956,-0.38930593290032306
14.682926829268293,-0.3387205270506798
14.71629711751663,-0.25759382381042173
14.749667405764967,-0.17410684636678758
14.783037694013304,-0.10414764367676015
14.81640798226164,-0.048279159107477036
14.849778270509978,0.004059698627894659
14.883148558758315,0.06622059403775957
14.916518847006651,0.14596948506968502
14.949889135254988,0.24028911065589714
14.983259423503327,0.33485057365524085
15.016629711751664,0.40798815441910075
15.05,0.43776883663254984
15.083370288248338,0.4098741366807783
15.116740576496674,0.323579118792719
15.150110864745011,0.1934336717001803
15.183481152993348,0.045539680106446434
15.216851441241685,-0.0906639949442804
15.250221729490022,-0.19217722916507465
15.283592017738359,-0.2497689342793506
15.316962305986696,-0.2694689370175605
15.350332594235034,-0.2672234752197831
15.383702882483371,-0.2590490880873182
15.417073170731708,-0.2516543902834017
15.450443458980045,-0.23876224256420786
15.483813747228382,-0.20564090572445184
15.517184035476719,-0.13979408542462993
15.550554323725056,-0.041899341978814925
15.583924611973393,0.06963369280155123
15.61729490022173,0.16396221132198313
15.650665188470066,0.2110210390407257
15.684035476718403,0.19605196007509565
15.71740576496674,0.12768702981869776
15.750776053215079,0.034925953046493444
15.784146341463416,-0.04584990098132763
15.817516629711752,-0.08732209373857389
15.85088691796009,-0.08271988878347239
15.884257206208426,-0.046611114203316414
15.917627494456763,-0.005071038327375881
15.9509977827051,0.019070091479237012
15.984368070953437,0.01788981972659264
16.017738359201775,0.0010649664694733444
16.05110864745011,-0.011149923198336287
16.08447893569845,-0.00022540408450507632
16.117849223946784,0.0399338293960306
16.151219512195123,0.09937520361636926
16.184589800443458,0.15692630882452926
16.217960088691797,0.19031373229330417
16.251330376940132,0.1860038469397692
16.28470066518847,0.14396197453985632
16.31807095343681,0.07576932516651379
16.351441241685144,-0.0017499815394500103
16.384811529933483,-0.07319193035798581
16.418181818181818,-0.1279870848028926
16.451552106430157,-0.15975650079871434
16.48492239467849,-0.16369479783052315
16.51829268292683,-0.13521124029725773
16.551662971175165,-0.07177496942594262
16.585033259423504,0.022835542243907367
16.61840354767184,0.1349677444312745
16.651773835920178,0.24154454441565623
16.685144124168513,0.3157827840936752
16.71851441241685,0.33624948621535167
16.75188470066519,0.2949867331946532
16.785254988913525,0.20049104974272933
16.818625277161864,0.07392432906119943
16.8519955654102,-0.059396393963055544
16.885365853658538,-0.17866494876929387
16.918736141906873,-0.27206942160277403
16.95210643015521,-0.33560912602387016
16.985476718403547,-0.3684359961259719
17.018847006651885,-0.3690306390873993
17.05221729490022,-0.3356587154273024
17.08558758314856,-0.2711854475693832
17.118957871396898,-0.18863135390498117
17.152328159645233,-0.11237900896328672
17.18569844789357,-0.07195100888008943
17.219068736141907,-0.08981490109093977
