Frequency (Hz),Amplitude
0.0,1.1738431397072633
0.04,1.1732715181274276
0.08,1.1715572233646845
0.12,1.1687019649352395
0.16,1.1647085906557406
0.19999999999999998,1.1595810845895758
0.24,1.153324564195605
0.27999999999999997,1.1459452767042764
0.32,1.137450594754211
0.36,1.1278490113321291
0.39999999999999997,1.1171501340695429
0.44,1.1053646789626725
0.48,1.0925044635969592
0.52,1.0785823999759248
0.5599999999999999,1.0636124870762558
0.6,1.0476098032784116
0.64,1.0305904988559613
0.6799999999999999,1.0125717887496808
0.72,0.9935719459062908
0.76,0.9736102955308488
0.7999999999999999,0.9527072106904985
0.84,0.930884109822656
0.88,0.9081634568518469
0.9199999999999999,0.8845687648191186
0.96,0.8601246041945356
1.0,0.8348566174026639
1.04,0.808791541580084
1.0799999999999998,0.7819572422579114
1.1199999999999999,0.7543827616007938
1.1600000000000001,0.7260983861581998
1.2,0.6971357409770856
1.24,0.667527919671592
1.28,0.6373096640920238
1.3199999999999998,0.6065176132986484
1.3599999999999999,0.5751906507982054
1.4,0.543370393402897
1.44,0.5111018879787258
1.48,0.47843461965605405
1.52,0.4454239974181579
1.5599999999999998,0.4121335901445706
1.5999999999999999,0.3786385761277069
1.64,0.34503121711947377
1.68,0.31142982861883384
1.72,0.27799401843055155
1.76,0.24495161308385355
1.7999999999999998,0.21264820966326053
1.8399999999999999,0.18164167690086666
1.88,0.15288473932737226
1.92,0.12805606546448928
1.9599999999999997,0.10998256297505941
2.0,0.10239799287181649
2.0399999999999996,0.10758052297429324
2.08,0.12392710508652137
2.12,0.14773279925021587
2.1599999999999997,0.17592834829274473
2.2,0.20664217121365744
2.2399999999999998,0.23881155677771312
2.28,0.2718197280754379
2.3200000000000003,0.3052889895214054
2.36,0.3389732798444094
2.4,0.3727021224258421
2.44,0.40635039947448165
2.48,0.4398213811352218
2.5199999999999996,0.4730368095546067
2.56,0.5059308883846588
2.6,0.5384465178399997
2.6399999999999997,0.5705328670494406
2.68,0.6021437686330393
2.7199999999999998,0.6332366335808157
2.76,0.6637717040096089
2.8,0.6937115304959202
2.84,0.7230206018262849
2.88,0.7516650801483971
2.92,0.7796126102429087
2.96,0.8068321817047945
2.9999999999999996,0.8332940293969502
3.04,0.8589695619110118
3.08,0.8838313107284366
3.1199999999999997,0.9078528948082573
3.16,0.931008996745986
3.1999999999999997,0.9532753476509555
3.2399999999999998,0.9746287186073274
3.28,0.9950469171043439
3.32,1.0145087872026186
3.36,1.0329942124856266
3.4,1.0504841210566713
3.44,1.0669604920010762
3.4799999999999995,1.0824063628548342
3.52,1.0968058377143541
3.5599999999999996,1.1101440956943833
3.5999999999999996,1.1224073994978168
3.64,1.1335831039058237
3.6799999999999997,1.143659664032294
3.7199999999999998,1.1526266432151795
3.76,1.1604747204405148
3.7999999999999994,1.1671956972139201
3.84,1.1727825038101842
3.88,1.1772292048448458
3.9199999999999995,1.1805310041230235
3.96,1.1826842487307085
4.0,1.1836864323424758
4.04,1.183536197727667
4.079999999999999,1.1822333384445292
4.12,1.1797787997190585
4.16,1.1761746785124374
4.199999999999999,1.1714242227882279
4.24,1.165531829998231
4.28,1.158503044814125
4.319999999999999,1.1503445561412613
4.36,1.141064193461369
4.4,1.1306709225628842
4.4399999999999995,1.1191748407317879
4.4799999999999995,1.1065871714925006
4.5200000000000005,1.0929202590086462
4.56,1.078187562278158
4.6,1.0624036492874225
4.640000000000001,1.0455841913269994
4.68,1.027745957718625
4.72,1.0089068112630124
4.76,0.9890857047942475
4.8,0.9683026793244195
4.84,0.9465788643893658
4.88,0.9239364813722468
4.92,0.9003988508010421
4.96,0.8759904049074869
5.0,0.8507367071271761
5.039999999999999,0.8246644807528868
5.08,0.7978016496838766
5.12,0.7701773952283923
5.159999999999999,0.74182223434231
5.2,0.7127681267167248
5.24,0.6830486210582507
5.279999999999999,0.6526990552018258
5.319999999999999,0.6217568310959642
5.36,0.5902617954041409
5.3999999999999995,0.5582567714609027
5.4399999999999995,0.5257883119757597
5.48,0.492907780038585
5.52,0.459672929059352
5.56,0.4261502593297321
5.6,0.3924186158176659
5.64,0.35857482821248243
5.68,0.3247428190117685
5.72,0.291088802281133
5.76,0.2578475501330487
5.8,0.2253693936193811
5.84,0.1942067077461118
5.879999999999999,0.16527359219480195
5.92,0.14012013594569037
5.96,0.12126610432540216
5.999999999999999,0.11204646348961558
6.04,0.11486180834319042
6.08,0.12893328761613707
6.119999999999999,0.15111918030837235
6.16,0.17836170891011996
6.2,0.20861605321121662
6.239999999999999,0.2406631331497756
6.279999999999999,0.27377918883750835
6.32,0.3075175838582252
6.359999999999999,0.3415877051167536
6.3999999999999995,0.37578958547888464
6.44,0.4099779728182797
6.4799999999999995,0.44404193533586
6.52,0.47789286903425304
6.56,0.5114572009802971
6.6,0.5446718081828603
6.64,0.5774810593132066
6.68,0.6098348562283833
6.72,0.6416873088552285
6.76,0.6729958215777891
6.8,0.7037204531759419
6.84,0.7338234624108277
6.88,0.7632689819744461
6.92,0.7920227827007844
6.959999999999999,0.8200521022114295
7.0,0.84732552018315
7.04,0.8738128677540801
7.08,0.8994851621894082
7.119999999999999,0.9243145604036664
7.16,0.9482743266626864
7.199999999999999,0.9713388110080317
7.239999999999999,0.9934834358194188
7.28,1.0146846885625833
7.32,1.0349201192327897
7.359999999999999,1.0541683413466152
7.3999999999999995,1.0724090355903573
7.4399999999999995,1.0896229554266263
7.4799999999999995,1.1057919341074702
7.52,1.1208988926553773
7.5600000000000005,1.1349278484608454
7.599999999999999,1.1478639242135826
7.64,1.1596933569381997
7.68,1.1704035069481404
7.719999999999999,1.179982866565786
7.76,1.1884210684847545
7.800000000000001,1.195708893672999
7.839999999999999,1.201838278734401
7.88,1.2068023226624296
7.92,1.2105952929330603
7.959999999999999,1.2132126308960762
8.0,1.214650956434418
8.040000000000001,1.2149080718709395
8.08,1.2139829651110692
8.12,1.2118758120185678
8.159999999999998,1.2085879780304638
8.2,1.2041220190262005
8.24,1.1984816814756247
8.28,1.1916719019008761
8.32,1.1836988056988162
8.36,1.174569705383885
8.399999999999999,1.1642930983266249
8.44,1.152878664081107
8.48,1.1403372614162182
8.52,1.1266809251916443
8.56,1.1119228632513987
8.6,1.096077453546822
8.639999999999999,1.0791602417498272
8.68,1.0611879396781871
8.72,1.0421784249319834
8.76,1.022150742238522
8.8,1.001125107129372
8.84,0.9791229127363414
8.879999999999999,0.9561667407062894
8.92,0.9322803775149098
8.959999999999999,0.9074888378315816
9.0,0.8818183970857116
9.040000000000001,0.8552966360592491
9.079999999999998,0.8279525012514706
9.12,0.7998163860358322
9.16,0.7709202394091538
9.2,0.7412977116542055
9.24,0.7109843498528777
9.280000000000001,0.6800178614491257
9.32,0.648438471835302
9.36,0.6162894136119023
9.399999999999999,0.5836176030182044
9.44,0.5504745868315427
9.48,0.5169178872201678
9.52,0.48301294380047466
9.559999999999999,0.44883597139498216
9.6,0.41447825488871676
9.639999999999999,0.3800527562041727
9.68,0.3457045388748694
9.72,0.31162766041133183
9.76,0.27809327514172827
9.8,0.24549743222690693
9.84,0.21444309713376505
9.879999999999999,0.18587721087548548
9.92,0.16129272042855827
9.959999999999999,0.1429071336723745
10.0,0.13342338375860632
10.04,0.13480333913977477
10.079999999999998,0.14676420498127804
10.12,0.16703382691486432
10.16,0.19296898748476274
10.2,0.22253453082187358
10.24,0.25438975825217064
10.280000000000001,0.2876860138443715
10.319999999999999,0.3218792075098696
10.36,0.35660812357330035
10.4,0.3916223845108378
10.44,0.4267404496465268
10.48,0.46182480211391047
10.52,0.49676694106068936
10.559999999999999,0.5314780603325879
10.6,0.5658831044886594
10.639999999999999,0.5999168833860283
10.68,0.6335214742114655
10.72,0.6666444486639567
10.76,0.6992376412265552
10.799999999999999,0.7312562798270512
10.84,0.7626583639541884
10.879999999999999,0.7934042147685825
10.92,0.8234561467053815
10.96,0.8527782261636159
11.0,0.881336093454498
11.04,0.9090968312521986
11.08,0.9360288675946359
11.12,0.9621019047947692
11.16,0.9872868679398661
11.2,1.0115558682978323
11.24,1.0348821781272592
11.28,1.0572402142421946
11.319999999999999,1.078605528309318
11.36,1.0989548023194828
11.4,1.11826584802313
11.44,1.1365176093812992
11.48,1.1536901672839834
11.52,1.169764745941148
11.559999999999999,1.1847237204707404
11.6,1.198550625301202
11.64,1.211230163079159
11.68,1.222748213831388
11.72,1.2330918441769219
11.759999999999998,1.2422493164230162
11.799999999999999,1.2502100974098769
11.84,1.2569648669947573
11.879999999999999,1.2625055260877942
11.92,1.266825204170575
11.96,1.2699182662446622
11.999999999999998,1.2717803191719204
12.04,1.2724082173817681
12.08,1.2718000679332728
12.12,1.2699552349321825
12.16,1.2668743433156042
12.200000000000001,1.262559282029833
12.239999999999998,1.2570132066407782
12.28,1.2502405414315854
12.32,1.2422469810592327
12.36,1.2330394918614418
12.4,1.2226263129282895
12.44,1.211016957079903
12.479999999999999,1.1982222119243386
12.52,1.1842541412089982
12.559999999999999,1.1691260867272968
12.6,1.152852671101697
12.64,1.1354498018382306
12.68,1.1169346771403055
12.719999999999999,1.0973257940865762
12.76,1.076642959926452
12.799999999999999,1.054907307437413
12.84,1.0321413155342638
12.88,1.008368836640536
12.92,0.9836151327517992
12.959999999999999,0.9579069226755477
12.999999999999998,0.9312724436723643
13.04,0.9037415317195034
13.08,0.8753457259722129
13.12,0.8461184048579794
13.16,0.8160949638203469
13.2,0.7853130483537264
13.239999999999998,0.7538128611217267
13.28,0.7216375693662963
13.32,0.6888338496334069
13.36,0.6554526228522185
13.4,0.6215500568587615
13.44,0.5871889501603753
13.479999999999999,0.5524406676536753
13.52,0.5173878887019127
13.559999999999999,0.4821285715469944
13.6,0.4467817710560859
13.64,0.4114963288271523
13.68,0.3764640821342226
13.719999999999999,0.34194025303847897
13.76,0.3082752328966975
13.799999999999999,0.27596399261281385
13.84,0.24572053645002834
13.88,0.2185794928478238
13.919999999999998,0.1959977399981014
13.959999999999999,0.17984480010394113
14.0,0.1720539019504754
14.04,0.17382682976047403
14.08,0.1849221196474386
14.120000000000001,0.20382100764397584
14.16,0.22856546360714383
14.2,0.2574227178132181
14.239999999999998,0.2890942435923442
14.28,0.32266989005995733
14.32,0.3575211155068868
14.36,0.3932087134411567
14.399999999999999,0.4294180714412151
14.44,0.4659168064655249
14.479999999999999,0.5025275735344235
14.52,0.5391105716569325
14.56,0.5755521516924479
14.6,0.6117572767221289
14.64,0.6476444440792092
14.68,0.6831422054068568
14.719999999999999,0.7181867421540219
14.76,0.7527201504088188
14.799999999999999,0.7866892106226171
14.84,0.8200444942032957
14.879999999999999,0.852739707733785
14.919999999999998,0.8847312072096909
14.959999999999999,0.9159776355388348
15.0,0.9464396504978454
15.04,0.9760797198161983
15.079999999999998,1.0048619665837464
15.120000000000001,1.0327520527318608
15.159999999999998,1.0597170915567184
15.199999999999998,1.0857255825547825
15.24,1.1107473635049339
15.28,1.134753575948178
15.319999999999999,1.1577166411139364
15.36,1.1796102440112994
15.399999999999999,1.200409323907118
15.439999999999998,1.220090069794762
15.48,1.238629919749743
15.52,1.2560075632938896
15.559999999999999,1.2722029460650566
15.600000000000001,1.2871972762270256
15.639999999999999,1.3009730321627382
15.679999999999998,1.3135139710808466
15.72,1.324805138235178
15.76,1.3348328765134447
15.799999999999999,1.3435848361981297
15.84,1.3510499847412392
15.879999999999999,1.3572186164275395
15.919999999999998,1.3620823618290874
15.96,1.3656341969788406
16.0,1.3678684522135764
16.04,1.3687808206572198
16.080000000000002,1.3683683663356998
16.12,1.3666295319341635
16.16,1.36356414622761
16.200000000000003,1.3591734312373414
16.24,1.3534600091886027
16.279999999999998,1.3464279093705878
16.319999999999997,1.3380825750290524
16.36,1.3284308704555998
16.4,1.3174810884772996
16.439999999999998,1.3052429585975647
16.48,1.2917276560958664
16.52,1.276947812462937
16.56,1.2609175276324476
16.6,1.243652384574403
16.64,1.2251694669450186
16.68,1.2054873806499755
16.72,1.1846262803822816
16.759999999999998,1.1626079024550984
16.799999999999997,1.139455605581083
16.84,1.1151944216753655
16.88,1.089851119310967
16.919999999999998,1.0634542831748455
16.96,1.0360344138187603
17.0,1.0076240532525447
17.04,0.9782579436018886
17.080000000000002,0.9479732283087636
17.12,0.9168097084195332
17.16,0.8848101707130311
17.2,0.8520208102479726
17.24,0.8184917780586024
17.279999999999998,0.7842778962393928
17.32,0.7494395990849408
17.36,0.7140441826192436
17.4,0.6781674792740868
17.44,0.6418961249667345
17.48,0.6053306603510927
17.52,0.5685898183287361
17.56,0.5318165126467401
17.6,0.49518627899063633
17.64,0.4589192514232166
17.68,0.4232971826432283
17.72,0.3886874470284099
17.759999999999998,0.35557603963921935
17.799999999999997,0.3246102319258292
17.84,0.2966461648417927
17.88,0.27278245951960944
17.919999999999998,0.25433404304533874
17.96,0.2426741122377228
18.0,0.23890378190184203
18.04,0.24346093022127216
18.080000000000002,0.2559379591129184
18.12,0.2752656118583224
18.159999999999997,0.30010198056815357
18.2,0.32915905820612706
18.24,0.36135866201921646
18.279999999999998,0.3958586890383259
18.32,0.4320206794052234
18.36,0.469363552931572
18.4,0.5075220467931661
18.44,0.5462145086111475
18.48,0.5852194361884979
18.52,0.6243588214391459
18.560000000000002,0.6634864178111224
18.6,0.7024794640547534
18.64,0.7412328090451512
18.679999999999996,0.779654704169007
18.72,0.8176637600081877
18.759999999999998,0.8551867227031147
18.799999999999997,0.8921568330807136
18.84,0.9285126044880467
18.88,0.9641969046903951
18.919999999999998,0.9991562609222704
18.96,1.033340330391189
19.0,1.0667014946564626
19.04,1.0991945476137492
19.080000000000002,1.1307764548275863
19.119999999999997,1.1614061676862877
19.159999999999997,1.19104447999512
19.2,1.2196539176442789
19.24,1.2471986542117715
19.279999999999998,1.2736444470126194
19.32,1.298958589342542
19.36,1.3231098755985398
19.4,1.3460685766698484
19.44,1.367806423538342
19.48,1.3882965974493822
19.52,1.4075137253425596
19.560000000000002,1.4254338794898112
19.6,1.4420345804923396
19.639999999999997,1.457294802950488
19.68,1.4711949832515991
19.72,1.4837170290272534
19.759999999999998,1.4948443299185297
19.8,1.5045617693606435
19.84,1.5128557371596207
19.88,1.5197141426864293
19.919999999999998,1.525126428560283
19.96,1.5290835847346063
20.0,1.5315781629377454
20.04,1.5326042914574998
20.08,1.5321576902949008
20.119999999999997,1.530235686749961
20.159999999999997,1.5268372315411605
20.2,1.5219629156027503
20.24,1.515614987750971
20.279999999999998,1.5077973734634333
20.32,1.4985156950772816
20.36,1.4877772937835985
20.4,1.4755912538805258
20.44,1.4619684298493778
20.48,1.4469214769409218
20.52,1.4304648861083804
20.560000000000002,1.4126150243068363
20.599999999999998,1.393390181404175
20.639999999999997,1.3728106252284749
20.68,1.350898666625387
20.72,1.3276787368363736
20.759999999999998,1.3031774800600373
20.8,1.2774238647579303
20.84,1.2504493181577465
20.88,1.2222878895498832
20.92,1.1929764494474744
20.96,1.1625549335917778
21.0,1.1310666432778897
21.04,1.0985586167454444
21.08,1.0650820906897087
21.119999999999997,1.0306930766604698
21.159999999999997,0.9954530847188635
21.2,0.9594300368786121
21.24,0.9226994264580151
21.279999999999998,0.8853457976885377
21.32,0.8474646442728608
21.36,0.8091648578894127
21.4,0.7705718998771914
21.44,0.7318319230495222
21.48,0.6931171354057054
21.52,0.6546327677056635
21.56,0.6166260639440069
21.599999999999998,0.5793977114445423
21.639999999999997,0.5433159636220085
21.68,0.5088331802051033
21.72,0.47650325801135957
21.759999999999998,0.4469959337798897
21.8,0.4210997838386826
21.84,0.3997004930200134
21.88,0.3837180176586544
21.92,0.37399320583547435
21.96,0.3711386783283931
22.0,0.3754033775302947
22.04,0.3866147336913026
22.08,0.40422960286102405
22.119999999999997,0.42746503353506216
22.16,0.4554457526760242
22.2,0.4873183440178001
22.24,0.5223161178306592
22.28,0.5597831244591517
22.32,0.5991731630463784
22.36,0.6400370478214702
22.4,0.6820063272124738
22.44,0.724777558452794
22.48,0.7680987537214071
22.519999999999996,0.8117583462625125
22.56,0.8555764775687505
22.599999999999998,0.8993982268821883
22.639999999999997,0.9430883899336153
22.68,0.9865274624923019
22.72,1.0296085487692128
22.759999999999998,1.072234975696779
22.8,1.1143184452591155
22.84,1.1557775975693738
22.88,1.1965368885441503
22.92,1.2365257095937785
22.96,1.2756776944364658
23.0,1.313930171379402
23.04,1.3512237293130924
23.08,1.3875018730905553
23.119999999999997,1.4227107495493276
23.16,1.456798929655389
23.2,1.4897172354529797
23.24,1.5214186029502357
23.28,1.5518579739478127
23.32,1.5809922112658565
23.36,1.6087800329486972
23.400000000000002,1.6351819619034562
23.44,1.6601602881168696
23.479999999999997,1.6836790411374327
23.519999999999996,1.7057039709405666
23.56,1.7262025356380644
23.599999999999998,1.7451438947685614
23.639999999999997,1.7624989071280528
23.68,1.7782401322798416
23.72,1.7923418350305866
23.759999999999998,1.8047799922802172
23.8,1.8155323017537208
23.84,1.8245781922067639
23.88,1.83189883476768
23.92,1.837477155139054
23.96,1.8412978464343674
23.999999999999996,1.8433473824715947
24.04,1.8436140313873872
24.08,1.8420878694740597
24.119999999999997,1.838760795178393
24.16,1.8336265432374157
24.2,1.8266806989628976
24.24,1.817920712724917
24.28,1.8073459147264008
24.32,1.7949575302070822
24.36,1.7807586952683638
24.400000000000002,1.7647544735726193
24.439999999999998,1.746951874244158
24.479999999999997,1.7273598713882488
24.52,1.7059894257535795
24.56,1.6828535091985926
24.599999999999998,1.6579671327907968
24.64,1.6313473795814248
24.68,1.6030134433687588
24.72,1.5729866751118888
24.759999999999998,1.541290639107203
24.8,1.5079511816284494
24.84,1.4729965155056401
24.88,1.4364573251468957
24.92,1.3983668978860697
24.959999999999997,1.3587612894047114
24.999999999999996,1.3176795335271414
25.04,1.2751639102101038
25.08,1.2312602904696508
25.119999999999997,1.1860185839445578
25.16,1.139493324753532
25.2,1.091744445749003
25.24,1.0428383125211913
25.28,0.9928491202357055
25.32,0.9418608045035672
25.36,0.8899696916336116
25.4,0.8372882297923033
25.439999999999998,0.7839503276292055
25.479999999999997,0.7301191262503789
25.52,0.6759985210521479
25.56,0.6218505605211315
25.599999999999998,0.568022184130078
25.64,0.5149869013435447
25.68,0.46341016125527384
25.72,0.4142506461588528
25.76,0.36890900148759814
25.8,0.32941345516317827
25.84,0.2985444625939235
25.880000000000003,0.27960670582519365
25.919999999999998,0.2754576808980626
25.959999999999997,0.2870542034548746
25.999999999999996,0.3128874180986765
26.04,0.34998452793097906
26.08,0.39529236056282246
26.119999999999997,0.4463737835532994
26.16,0.5014835994980178
26.2,0.5594159158144405
26.24,0.6193358839680989
26.28,0.6806534144070365
26.32,0.7429388273055192
26.36,0.8058685802143949
26.4,0.8691905319900026
26.439999999999998,0.9327015119022156
26.479999999999997,0.9962326148169807
26.52,1.0596393922289336
26.56,1.1227951919594144
26.599999999999998,1.1855865577986464
26.64,1.24791000094477
26.68,1.309669701115374
26.72,1.3707758484052648
26.76,1.4311434338662872
26.8,1.4906913590840059
26.84,1.5493417757335057
26.88,1.6070195931183269
26.919999999999998,1.663652109907935
26.959999999999997,1.7191687387409167
27.0,1.7735008009923745
27.04,1.826581375064831
27.08,1.8783451858704319
27.119999999999997,1.9287285262704457
27.16,1.9776692034907075
27.2,2.025106505186433
27.24,2.070981181057686
27.28,2.115235436836312
27.32,2.1578129381603572
27.36,2.1986588223820154
27.4,2.237719716763035
27.439999999999998,2.274943761828079
27.479999999999997,2.3102806388944503
27.52,2.3436816009927366
27.56,2.375099506549617
27.599999999999998,2.404488855330837
27.64,2.431805826246249
27.68,2.4570083167053296
27.72,2.480055983285106
27.76,2.5009102835362294
27.8,2.5195345188097593
27.839999999999996,2.5358938780395106
27.88,2.5499554824644006
