Time (s),Filtered Signal
0.0,-0.021283606116714114
0.033370165745856356,-0.285673345008132
0.06674033149171271,-0.46607059368232673
0.10011049723756907,-0.504385341179165
0.13348066298342542,-0.38467240921298274
0.16685082872928178,-0.1360800249572993
0.20022099447513814,0.17830639296923304
0.2335911602209945,0.4820647225440844
0.26696132596685085,0.7080133250881075
0.30033149171270723,0.8155117068349272
0.33370165745856356,0.7979771150904369
0.3670718232044199,0.6798890655703131
0.4004419889502763,0.5057774695964831
0.43381215469613266,0.3254579218472546
0.467182320441989,0.18003914979806754
0.5005524861878453,0.09238967977467999
0.5339226519337017,0.06421177782030588
0.5672928176795581,0.07988479697660551
0.6006629834254145,0.11512802247147612
0.6340331491712707,0.14690510152365518
0.6674033149171271,0.16062168332977636
0.7007734806629835,0.15199118105035236
0.7341436464088398,0.12356855851875706
0.7675138121546962,0.0786505724990002
0.8008839779005525,0.016552191648680277
0.8342541436464089,-0.06763285127746202
0.8676243093922653,-0.178412909955318
0.9009944751381216,-0.31313314481169024
0.934364640883978,-0.4574213157614121
0.9677348066298344,-0.586330942254248
1.0011049723756906,-0.6716281032433389
1.0344751381215471,-0.6921256804075212
1.0678453038674034,-0.6420029886463872
1.1012154696132597,-0.5329190941222046
1.1345856353591162,-0.3890412459400286
1.1679558011049724,-0.23793886449206586
1.201325966850829,-0.10228873160971295
1.2346961325966852,0.0037700817833155012
1.2680662983425415,0.07326253448375612
1.301436464088398,0.10307497485913977
1.3348066298342542,0.09281451212609804
1.3681767955801105,0.04767485923713165
1.401546961325967,-0.0168107337998376
1.4349171270718233,-0.07302526795079332
1.4682872928176796,-0.0867126070781688
1.501657458563536,-0.02956655313726554
1.5350276243093923,0.1063145521593261
1.5683977900552488,0.3001115070917885
1.601767955801105,0.5061071879599615
1.6351381215469614,0.6696116265666382
1.6685082872928179,0.74822625380139
1.7018784530386741,0.7282622806637373
1.7352486187845306,0.6281871407929672
1.768618784530387,0.4875322149532259
1.8019889502762432,0.3471710928383048
1.8353591160220997,0.2311498657815762
1.868729281767956,0.13901334835957987
1.9020994475138122,0.05162259624391203
1.9354696132596687,-0.05379823611475522
1.968839779005525,-0.18819488632203113
2.0022099447513813,-0.34309893804033914
2.0355801104972375,-0.49426349702172395
2.0689502762430942,-0.6134868272710853
2.1023204419889505,-0.6814665625426947
2.135690607734807,-0.694742414888961
2.169060773480663,-0.6637984139712885
2.2024309392265193,-0.6045771916363656
2.235801104972376,-0.529014954974495
2.2691712707182323,-0.4400969425355824
2.3025414364640886,-0.33379712927426464
2.335911602209945,-0.2061156285307406
2.369281767955801,-0.0605980386526285
2.402651933701658,0.0883788303732514
2.436022099447514,0.21878978901647878
2.4693922651933704,0.30926637110773203
2.5027624309392267,0.3484268352689446
2.536132596685083,0.3405713626347987
2.5695027624309392,0.3048641561416238
2.602872928176796,0.2682357473651412
2.636243093922652,0.2551044801282599
2.6696132596685085,0.2783111260172459
2.7029834254143648,0.3349194568697427
2.736353591160221,0.40828304207243643
2.7697237569060777,0.4751628190351565
2.803093922651934,0.5148433398594365
2.8364640883977903,0.5167463553369819
2.8698342541436466,0.4838966376781114
2.903204419889503,0.4312046336808423
2.936574585635359,0.3792482824474921
2.969944751381216,0.345606345978352
3.003314917127072,0.33661385090725515
3.0366850828729284,0.3425926762430212
3.0700552486187846,0.33901727694860434
3.103425414364641,0.29449953845156357
3.1367955801104976,0.18391454658216075
3.170165745856354,0.0020568306960443094
3.20353591160221,-0.22870119085043192
3.2369060773480665,-0.46252521710768746
3.2702762430939227,-0.6475200964187361
3.3036464088397794,-0.7511531048724143
3.3370165745856357,-0.7821931747821711
3.370386740331492,-0.7958614239477471
3.4037569060773483,-0.8741497159705478
3.4371270718232045,-1.0847851611034631
3.4704972375690613,-1.4352574884804488
3.5038674033149175,-1.8455551539467077
3.537237569060774,-2.159087924302983
3.57060773480663,-2.1953196141406033
3.6039779005524863,-1.8263463698778797
3.6373480662983426,-1.0439668172839753
3.6707182320441993,0.01657002459651637
3.7040883977900556,1.1125388061895627
3.737458563535912,1.9780742328881806
3.770828729281768,2.4214950987300545
3.8041988950276244,2.3929676900141126
3.837569060773481,1.9935609041541074
3.8709392265193374,1.4242848835775648
3.9043093922651937,0.9007589584791142
3.93767955801105,0.5723847819060663
3.9710497237569062,0.4790053427584121
4.0044198895027625,0.5577591807074027
4.037790055248619,0.6894422246768508
4.071160220994475,0.758446125188407
4.104530386740332,0.6989973523072007
4.1379005524861885,0.5112797527345447
4.171270718232044,0.24704091649252985
4.204640883977901,-0.022626638284509958
4.238011049723757,-0.2396568723282041
4.271381215469614,-0.3775357009432105
4.30475138121547,-0.44102073421618754
4.338121546961326,-0.45164328895684813
4.371491712707183,-0.4294975005139813
4.404861878453039,-0.38206360917188803
4.438232044198895,-0.3058198791116921
4.471602209944752,-0.19874107691152243
4.504972375690608,-0.07520964999457068
4.538342541436465,0.027193803426974722
4.5717127071823205,0.055686602763653455
4.605082872928177,-0.036405224661969666
4.638453038674034,-0.26464037481025543
4.67182320441989,-0.5978340895667451
4.7051933701657465,-0.9613017130170659
4.738563535911602,-1.2594825903603402
4.771933701657459,-1.4088584966901068
4.805303867403316,-1.3670010305674216
4.8386740331491715,-1.145510971677953
4.872044198895028,-0.8022255928724329
4.905414364640884,-0.41731842768550864
4.938784530386741,-0.06438078400924695
4.972154696132597,0.2114111745894934
5.005524861878453,0.400322262703171
5.03889502762431,0.5198782075818768
5.072265193370166,0.597759490377239
5.105635359116023,0.6550682708259983
5.1390055248618784,0.6975842635710875
5.172375690607735,0.7175685290682873
5.205745856353592,0.7031035411521904
5.239116022099448,0.6486723104485472
5.272486187845304,0.5610038901360718
5.30585635359116,0.4575078622711936
5.339226519337017,0.3588476993567381
5.372596685082874,0.2801109313359652
5.4059668508287295,0.2253003824625238
5.439337016574586,0.1876561120095201
5.472707182320442,0.15503215213934424
5.506077348066299,0.1170192069989971
5.5394475138121555,0.06998583092613923
5.572817679558011,0.01779263553578866
5.606187845303868,-0.031437399098654055
5.639558011049724,-0.06999780343055818
5.672928176795581,-0.09381943905614346
5.706298342541437,-0.10273347107523739
5.739668508287293,-0.09849104006417007
5.77303867403315,-0.08275865680321301
5.806408839779006,-0.05707494526853182
5.839779005524862,-0.024958516802085537
5.873149171270718,0.0057046297890038025
5.906519337016575,0.022643847062884602
5.939889502762432,0.012980700952481931
5.9732596685082875,-0.030352027575324743
6.006629834254144,-0.10297314633811806
6.04,-0.1879869871786341
6.073370165745857,-0.2612369987199992
6.1067403314917135,-0.30116720879051295
6.140110497237569,-0.298649823869014
6.173480662983426,-0.2615358744115469
6.206850828729282,-0.21100149949243976
6.240220994475139,-0.17096053851230578
6.273591160220995,-0.15569695620528168
6.306961325966851,-0.16221374110592174
6.340331491712708,-0.17162064836080054
6.373701657458564,-0.1591686557229251
6.40707182320442,-0.10782574051976328
6.440441988950277,-0.01826552395368278
6.473812154696133,0.08998753418343942
6.50718232044199,0.18679450101214165
6.5405524861878455,0.24466447919003126
6.573922651933702,0.250296531687598
6.607292817679559,0.20891368613072014
6.640662983425415,0.13990202180165764
6.674033149171271,0.06671835891442487
6.707403314917127,0.006604574449008577
6.740773480662984,-0.034815826264432546
6.774143646408841,-0.06200634373279924
6.8075138121546965,-0.08284840928919288
6.840883977900553,-0.10126058002882418
6.874254143646409,-0.11360641900985693
6.907624309392266,-0.11094169046195917
6.9409944751381225,-0.08556298187689264
6.974364640883978,-0.03763569424966499
7.007734806629835,0.022506179953440997
7.041104972375691,0.07829021159027902
7.074475138121548,0.11518240174491932
7.107845303867403,0.12861390044259946
7.14121546961326,0.12676712154500883
7.174585635359117,0.1262136906098196
7.207955801104973,0.1424831454365463
7.241325966850829,0.1806493721773731
7.274696132596685,0.2311746027602235
7.308066298342542,0.2734295737652114
7.341436464088399,0.2851241176429505
7.3748066298342545,0.25273095688843716
7.408176795580111,0.1776348234293905
7.441546961325967,0.07527968150622961
7.474917127071824,-0.03159882640526507
7.5082872928176805,-0.12175977066161511
7.541657458563536,-0.18204377827703333
7.575027624309393,-0.20951121024863975
7.608397790055249,-0.20957726886831116
7.641767955801106,-0.192275436409688
7.675138121546962,-0.16872697671488998
7.708508287292818,-0.1486846527399699
7.741878453038675,-0.13888566962662122
7.775248618784531,-0.14174328961780636
7.808618784530387,-0.15451410814516564
7.841988950276244,-0.16967027798513748
7.8753591160221,-0.17704004613633978
7.908729281767957,-0.16734825270928028
7.9420994475138125,-0.13579678534216005
7.975469613259669,-0.08407057968151997
8.008839779005525,-0.01987193827663955
8.042209944751383,0.04570034944548733
8.075580110497238,0.10166899153462254
8.108950276243094,0.14015736546463728
8.14232044198895,0.15792255603211058
8.175690607734808,0.15631995106727997
8.209060773480664,0.14014959380118983
8.24243093922652,0.11599256695644171
8.275801104972377,0.09049418361407806
8.309171270718233,0.06884219948519125
8.342541436464089,0.0536170173824771
8.375911602209946,0.04426835316061311
8.409281767955802,0.03753334675453483
8.442651933701658,0.028938952341786832
8.476022099447514,0.015053927865036336
8.509392265193371,-0.0044192068400663725
8.542762430939227,-0.025870256071367167
8.576132596685083,-0.04305891459718705
8.60950276243094,-0.05013908219861401
8.642872928176796,-0.04501106553367148
8.676243093922652,-0.031111027340229237
8.709613259668508,-0.016336580913676287
8.742983425414366,-0.009257538347649785
8.776353591160222,-0.014320935627060626
8.809723756906077,-0.02854777004386862
8.843093922651935,-0.04172288876580218
8.87646408839779,-0.04044849675226206
8.909834254143647,-0.014429368404361128
8.943204419889504,0.03798268231296147
8.97657458563536,0.10783817507085429
9.009944751381216,0.1784119228776553
9.043314917127072,0.23152836030100632
9.07668508287293,0.2542358829483589
9.110055248618785,0.24249604490118043
9.143425414364641,0.2002750527323266
9.176795580110499,0.135083794697284
9.210165745856354,0.053030532404802495
9.24353591160221,-0.04339022700910387
9.276906077348068,-0.15335133886820346
9.310276243093924,-0.2728657266637553
9.34364640883978,-0.39035936376521346
9.377016574585635,-0.48604677660580453
9.410386740331493,-0.5366166562453734
9.443756906077349,-0.5238068304090173
9.477127071823205,-0.44304659597076784
9.510497237569062,-0.30778520078393723
9.543867403314918,-0.1467907645707133
9.577237569060774,0.005154452270600633
9.610607734806631,0.11961417440631837
9.643977900552487,0.1847517918869822
9.677348066298343,0.20897967924393215
9.710718232044199,0.21617794062935247
9.744088397790057,0.23421214456994133
9.777458563535912,0.2814509116654266
9.810828729281768,0.3571141915213352
9.844198895027626,0.4399663583592231
9.877569060773482,0.4964324736287955
9.910939226519337,0.49496537386340334
9.944309392265193,0.4203444725684968
9.97767955801105,0.28125218954077
10.011049723756907,0.1074495846571141
10.044419889502763,-0.06210648449775319
10.07779005524862,-0.19438473373299908
10.111160220994476,-0.2733833026837631
10.144530386740332,-0.3024006849493298
10.17790055248619,-0.29753396763444284
10.211270718232045,-0.27692938996148636
10.244640883977901,-0.2519006626160999
10.278011049723757,-0.22412966149068733
10.311381215469615,-0.1892132824931674
10.34475138121547,-0.1432692921975532
10.378121546961326,-0.08809384467842708
10.411491712707184,-0.03184673289394549
10.44486187845304,0.014764058209406433
10.478232044198895,0.04418695515126918
10.511602209944753,0.056131346106171855
10.544972375690609,0.05771924477165812
10.578342541436465,0.05963702458394383
10.61171270718232,0.07039456061697677
10.645082872928178,0.09172882518518213
10.678453038674034,0.11752565005714322
10.71182320441989,0.13678993361488356
10.745193370165747,0.13912149281617403
10.778563535911603,0.11989044293015783
10.811933701657459,0.08248807229974016
10.845303867403315,0.03656701795096922
10.878674033149172,-0.006710762895235871
10.912044198895028,-0.03983289565969627
10.945414364640884,-0.061744156493302074
10.978784530386742,-0.0768995804449874
11.012154696132598,-0.09132571686115248
11.045524861878453,-0.10819741042035645
11.078895027624311,-0.1257009641461027
11.112265193370167,-0.13851496343208816
11.145635359116023,-0.1419278109459383
11.179005524861878,-0.1358597111597116
11.212375690607736,-0.1260096715734059
11.245745856353592,-0.12108826365013432
11.279116022099448,-0.12755244775573682
11.312486187845305,-0.14488793694598887
11.345856353591161,-0.1642802828458466
11.379226519337017,-0.17163491687624047
11.412596685082875,-0.15351813981519283
11.44596685082873,-0.10309678363879807
11.479337016574586,-0.023320744231005743
11.512707182320442,0.07385470372674707
11.5460773480663,0.1715105838241412
11.579447513812156,0.25318809916524476
11.612817679558011,0.3077399126459657
11.646187845303869,0.3323058412522559
11.679558011049725,0.33280487491129596
11.71292817679558,0.3217461209024734
11.746298342541436,0.31353110011888635
11.779668508287294,0.3181690047098339
11.81303867403315,0.3354387308949224
11.846408839779006,0.35231622505954446
11.879779005524863,0.3459973722895485
11.91314917127072,0.2926942218488168
11.946519337016575,0.17930733788671377
11.979889502762433,0.012765875483339656
12.013259668508288,-0.17807175794941804
12.046629834254144,-0.3501170653577219
12.08,-0.4610021494168569
12.113370165745858,-0.48521859974197895
12.146740331491714,-0.4244786650424858
12.18011049723757,-0.30772610220030794
12.213480662983427,-0.18066640127973935
12.246850828729283,-0.08902695068757167
12.280220994475139,-0.062130399382975536
12.313591160220996,-0.10298781529016647
12.346961325966852,-0.18840023723497298
12.380331491712708,-0.2786902820322793
12.413701657458564,-0.33311329599677897
12.447071823204421,-0.3249774336838534
12.480441988950277,-0.2507625112581608
12.513812154696133,-0.1299982462441271
12.54718232044199,0.0036028333329045205
12.580552486187846,0.11579750451584506
12.613922651933702,0.18456554206771453
12.64729281767956,0.2069977471643021
12.680662983425416,0.1980754918515221
12.714033149171271,0.18251730314083348
12.747403314917127,0.18348052963863912
12.780773480662985,0.21274725426672525
12.81414364640884,0.26600739572606397
12.847513812154697,0.32463481463709426
12.880883977900554,0.36290253520160815
12.91425414364641,0.3577549719994311
12.947624309392266,0.29755336223714446
12.980994475138122,0.186743723999943
13.01436464088398,0.0449165351110426
13.047734806629835,-0.09929221432182656
13.081104972375691,-0.2172340716881954
13.114475138121549,-0.2890234925837029
13.147845303867404,-0.3090348092018536
13.18121546961326,-0.286343754671499
13.214585635359118,-0.2401964157821423
13.247955801104974,-0.19236497713586498
13.28132596685083,-0.1592662002542043
13.314696132596685,-0.1466172506930422
13.348066298342543,-0.14831074374702335
13.381436464088399,-0.14962970812982432
13.414806629834255,-0.13351021983734696
13.448176795580112,-0.08769682419817815
13.481546961325968,-0.010414089350559458
13.514917127071824,0.0874792938741573
13.548287292817681,0.1850236218040024
13.581657458563537,0.2581574963909571
13.615027624309393,0.2891993419740589
13.648397790055249,0.27524043156290484
13.681767955801106,0.23136383019959708
13.715138121546962,0.18594858001672415
13.748508287292818,0.16854753446877588
13.781878453038676,0.19479589680709583
13.815248618784532,0.2554685741362446
13.848618784530387,0.3162180864644092
13.881988950276245,0.3301641698351747
13.9153591160221,0.25902752769562404
13.948729281767957,0.09325123556813095
13.982099447513813,-0.1391926485197096
14.01546961325967,-0.38077062650093063
14.048839779005526,-0.5663103512490191
14.082209944751382,-0.6487973816202441
14.11558011049724,-0.6168805410517731
14.148950276243095,-0.496257790303178
14.182320441988951,-0.3353784606732607
14.215690607734807,-0.1834417286059954
14.249060773480664,-0.07156334504416131
14.28243093922652,-0.005181910794206168
14.315801104972376,0.03063910198316544
14.349171270718234,0.05772635546780796
14.38254143646409,0.09104424582028155
14.415911602209945,0.1315195205936948
14.449281767955803,0.16805563510031693
14.482651933701659,0.18640011934393075
14.516022099447515,0.17929976020750193
14.54939226519337,0.15221883112999043
14.582762430939228,0.1216062905185633
14.616132596685084,0.10676043296754015
14.64950276243094,0.11967466049790774
14.682872928176797,0.1582126764184557
14.716243093922653,0.20615353735314526
14.749613259668509,0.24009607274454353
14.782983425414367,0.23981124785794597
14.816353591160222,0.1971044019798799
14.849723756906078,0.11923957385491928
14.883093922651934,0.025771406034854883
14.916464088397792,-0.05934434783178967
14.949834254143648,-0.11671715603167446
14.983204419889503,-0.13800791912151159
15.016574585635361,-0.12789688847526925
15.049944751381217,-0.1014487568419812
15.083314917127073,-0.07829945704222827
15.116685082872928,-0.07579298099818425
15.150055248618786,-0.10319376408513284
15.183425414364642,-0.15863043346976874
15.216795580110498,-0.2296340312450348
15.250165745856355,-0.2970928105224478
15.283535911602211,-0.3413432448129627
15.316906077348067,-0.3483306081382481
15.350276243093925,-0.3137034791377833
15.38364640883978,-0.24348590468655007
15.417016574585636,-0.1513024268551743
15.450386740331492,-0.05342132089874447
15.48375690607735,0.036431157795967666
15.517127071823205,0.110682469728054
15.550497237569061,0.1689621199642627
15.583867403314919,0.21663693738503637
15.617237569060775,0.2616908303880379
15.65060773480663,0.31111449967205307
15.683977900552488,0.3678037487675452
15.717348066298344,0.42859063449262114
15.7507182320442,0.4837636146444641
15.784088397790056,0.5183772604191321
15.817458563535913,0.5155860570290614
15.85082872928177,0.46178322212765954
15.884198895027625,0.35236190931321676
15.917569060773483,0.1958856225554901
15.950939226519338,0.014220288316755904
15.984309392265194,-0.16260168212673012
16.01767955801105,-0.3055759824337292
16.051049723756908,-0.3963600377016337
16.084419889502765,-0.43292724317202347
16.11779005524862,-0.42843500852530253
16.151160220994477,-0.4038291746550052
16.18453038674033,-0.37789078367107476
16.21790055248619,-0.3596150818554116
16.251270718232046,-0.34634672624568996
16.2846408839779,-0.3279057351119582
16.318011049723758,-0.2938882528540353
16.351381215469615,-0.2400531145839313
16.38475138121547,-0.17070213502051904
16.418121546961327,-0.09641589783896554
16.451491712707185,-0.028913930291466616
16.48486187845304,0.02408097605852034
16.518232044198896,0.06160377099516579
16.551602209944754,0.0889780173321149
16.584972375690608,0.11479746588836429
16.618342541436466,0.1469067573478571
16.651712707182323,0.1890037036915682
16.685082872928177,0.23900651964689443
16.718453038674035,0.28958083817345137
16.751823204419892,0.3304260207228906
16.785193370165747,0.35132395482371903
16.818563535911604,0.34482118863678224
16.851933701657458,0.3078288499170287
16.885303867403316,0.24210878364528537
16.918674033149173,0.15406991874720982
16.952044198895027,0.0542070684162011
16.985414364640885,-0.043958168636248865
17.018784530386743,-0.1258866140030459
17.052154696132597,-0.17913777331913255
17.085524861878454,-0.1969262775893303
17.118895027624312,-0.18070129687741274
17.152265193370166,-0.14031666275995333
17.185635359116024,-0.09125871397579831
17.21900552486188,-0.0497499524094749
17.252375690607735,-0.027580745629286738
