Frequency (Hz),Amplitude
0.0,5.866052145947714
0.019801980198019802,5.864800544789444
0.039603960396039604,5.8610490275182805
0.0594059405940594,5.854807454701443
0.07920792079207921,5.846092267107063
0.09900990099009901,5.834926495326916
0.1188118811881188,5.821339773020607
0.13861386138613863,5.805368353541848
0.15841584158415842,5.787055129622822
0.1782178217821782,5.766449655694582
0.19801980198019803,5.743608172308022
0.21782178217821782,5.718593631986746
0.2376237623762376,5.69147572568781
0.25742574257425743,5.662330908863907
0.27722772277227725,5.631242425908533
0.297029702970297,5.598300331519438
0.31683168316831684,5.563601507231999
0.33663366336633666,5.527249671049529
0.3564356435643564,5.4893553777287325
0.37623762376237624,5.450036006864362
0.39603960396039606,5.409415735455589
0.4158415841584158,5.367625491129786
0.43564356435643564,5.324802881649663
0.45544554455445546,5.281092095744609
0.4752475247524752,5.236643769696014
0.495049504950495,5.191614813485825
0.5148514851485149,5.146168189709173
0.5346534653465347,5.100472637883669
0.5544554455445545,5.054702336297633
0.5742574257425742,5.009036493172587
0.594059405940594,4.96365885872536
0.613861386138614,4.918757149767261
0.6336633663366337,4.874522378840103
0.6534653465346534,4.831148080638867
0.6732673267326733,4.7888294296816305
0.6930693069306931,4.7477622449312955
0.7128712871287128,4.708141879406474
0.7326732673267327,4.670161995775925
0.7524752475247525,4.6340132325137375
0.7722772277227723,4.599881769359408
0.7920792079207921,4.5679478054819525
0.8118811881188118,4.538383968733039
0.8316831683168316,4.511353679470279
0.8514851485148516,4.487009497356345
0.8712871287128713,4.465491483961922
0.891089108910891,4.446925617563131
0.9108910891089109,4.4314222988678615
0.9306930693069307,4.419074987211265
0.9504950495049505,4.409959005780495
0.9702970297029703,4.404130551529063
0.99009900990099,4.401625940626939
1.00990099009901,4.402461113724159
1.0297029702970297,4.406631417297536
1.0495049504950495,4.414111668350366
1.0693069306930694,4.424856500284284
1.0891089108910892,4.438800978448517
1.108910891089109,4.455861465266617
1.1287128712871286,4.4759367074478895
1.1485148514851484,4.498909112001377
1.1683168316831685,4.524646173827364
1.188118811881188,4.553002015654755
1.2079207920792079,4.583819000958369
1.227722772277228,4.616929382039633
1.2475247524752475,4.652156948400925
1.2673267326732673,4.689318644545069
1.2871287128712872,4.728226131026858
1.3069306930693068,4.768687267622255
1.3267326732673268,4.810507502555736
1.3465346534653466,4.85349115658033
1.3663366336633662,4.897442595148956
1.3861386138613863,4.942167285819833
1.405940594059406,4.98747274133424
1.4257425742574257,5.033169351470936
1.4455445544554455,5.079071108836445
1.4653465346534653,5.12499623524043
1.4851485148514851,5.170767716294993
1.504950495049505,5.216213752438569
1.5247524752475248,5.261168134796409
1.5445544554455446,5.305470554222193
1.5643564356435644,5.348966851587369
1.5841584158415842,5.39150921695567
1.6039603960396038,5.432956344749411
1.6237623762376237,5.473173551424783
1.6435643564356437,5.512032861556223
1.6633663366336633,5.549413067612807
1.683168316831683,5.585199768109154
1.7029702970297032,5.61928538824437
1.7227722772277227,5.651569186612043
1.7425742574257426,5.681957251078955
1.7623762376237624,5.710362486490589
1.782178217821782,5.736704596468787
1.801980198019802,5.7609100612190005
1.8217821782178218,5.782912112959469
1.8415841584158414,5.802650710318776
1.8613861386138615,5.820072512818339
1.881188118811881,5.8351308563585
1.900990099009901,5.8477857304575
1.920792079207921,5.858003757847906
1.9405940594059405,5.865758176911243
1.9603960396039604,5.8710288273257945
1.98019801980198,5.873802139210717
2.0,5.874071125969769
2.01980198019802,5.87183538096566
2.0396039603960396,5.867101078090267
2.0594059405940595,5.859880976232049
2.0792079207920793,5.850194427578855
2.099009900990099,5.838067389628132
2.118811881188119,5.823532440705426
2.1386138613861387,5.80662879871174
2.1584158415841586,5.78740234273025
2.1782178217821784,5.765905637017282
2.1980198019801978,5.742197956780113
2.217821782178218,5.716345315000558
2.237623762376238,5.688420489395537
2.257425742574257,5.658503048409672
2.2772277227722775,5.626679374906966
2.297029702970297,5.5930426859651385
2.3168316831683167,5.5576930468732275
2.336633663366337,5.520737377088097
2.3564356435643563,5.482289445515242
2.376237623762376,5.442469852042856
2.3960396039603964,5.401405991775241
2.4158415841584158,5.359231997884224
2.4356435643564356,5.31608865843009
2.455445544554456,5.272123301905256
2.4752475247524752,5.227489645637002
2.495049504950495,5.182347600568293
2.514851485148515,5.136863025343492
2.5346534653465347,5.091207422090441
2.5544554455445545,5.0455575658531675
2.5742574257425743,5.000095059340063
2.594059405940594,4.955005804569417
2.6138613861386135,4.910479383184366
2.633663366336634,4.8667083377453455
2.6534653465346536,4.823887347265915
2.673267326732673,4.7822122917108185
2.6930693069306932,4.741879202188105
2.712871287128713,4.703083096188034
2.7326732673267324,4.666016700470261
2.7524752475247527,4.630869068060593
2.7722772277227725,4.597824100222633
2.792079207920792,4.567058989095069
2.811881188118812,4.538742601744758
2.8316831683168315,4.513033831430606
2.8514851485148514,4.490079946596875
2.8712871287128716,4.47001497217266
2.891089108910891,4.452958140785387
2.910891089108911,4.439012453156071
2.9306930693069306,4.428263386943716
2.9504950495049505,4.420777791447092
2.9702970297029703,4.416603001782446
2.99009900990099,4.415766200511849
3.00990099009901,4.418274047431235
3.0297029702970297,4.424112589717826
3.0495049504950495,4.433247455379348
3.0693069306930694,4.445624323508513
3.089108910891089,4.461169655811254
3.108910891089109,4.479791665791542
3.128712871287129,4.501381495293535
3.148514851485148,4.52581456314805
3.1683168316831685,4.552952047617632
3.1881188118811883,4.582642463200042
3.2079207920792077,4.6147232930099
3.227722772277228,4.649022640175693
3.2475247524752473,4.685360865149032
3.267326732673267,4.723552180170917
3.2871287128712874,4.763406177017486
3.3069306930693068,4.804729269223564
3.3267326732673266,4.847326034970962
3.346534653465347,4.891000451504311
3.366336633663366,4.935557016138935
3.386138613861386,4.980801752551481
3.4059405940594063,5.026543104049228
3.4257425742574257,5.072592717896063
3.4455445544554455,5.11876612656426
3.4653465346534653,5.164883333036506
3.485148514851485,5.210769308070801
3.504950495049505,5.256254407737721
3.5247524752475248,5.3011747196183565
3.5445544554455446,5.3453723458845905
3.564356435643564,5.38869563113321
3.5841584158415842,5.430999342367779
3.603960396039604,5.472144807963363
3.6237623762376234,5.512000021846151
3.6435643564356437,5.550439718502739
3.6633663366336635,5.587345423824053
3.683168316831683,5.622605486203104
3.702970297029703,5.656115091754731
3.722772277227723,5.687776267015947
3.7425742574257423,5.717497872021459
3.762376237623762,5.745195586231299
3.7821782178217824,5.7707918894154995
3.801980198019802,5.794216039272968
3.8217821782178216,5.815404047274509
3.841584158415842,5.834298653971043
3.8613861386138613,5.850849304792745
3.881188118811881,5.865012127180237
3.9009900990099013,5.876749909730823
3.9207920792079207,5.8860320839075495
3.9405940594059405,5.892834708743323
3.96039603960396,5.897140458872937
3.98019801980198,5.898938616138923
4.0,5.898225064941138
4.01980198019802,5.89500229143003
4.03960396039604,5.889279386578504
4.0594059405940595,5.881072053103456
4.079207920792079,5.870402616143142
4.099009900990099,5.857300037527552
4.118811881188119,5.841799933403589
4.138613861386139,5.823944594891189
4.158415841584159,5.803783011349024
4.178217821782178,5.781370895714725
4.198019801980198,5.756770711251604
4.217821782178218,5.730051698879074
4.237623762376238,5.701289904081811
4.257425742574258,5.670568202182237
4.2772277227722775,5.637976320515125
4.297029702970297,5.603610855761408
4.316831683168317,5.567575284375221
4.336633663366336,5.529979963671803
4.356435643564357,5.490942120731872
4.376237623762377,5.450585825820103
4.3960396039603955,5.409041946510882
4.415841584158416,5.366448078169352
4.435643564356436,5.322948445853526
4.455445544554455,5.278693772096305
4.475247524752476,5.2338411044095166
4.4950495049504955,5.188553595746128
4.514851485148514,5.143000230590967
4.534653465346535,5.097355488860811
4.554455445544555,5.051798939425244
4.574257425742574,5.006514754866267
4.594059405940594,4.9616911391375345
4.613861386138614,4.9175196601339
4.633663366336633,4.87419447991302
4.653465346534653,4.831911476496734
4.673267326732674,4.790867252892285
4.693069306930693,4.751258031267414
4.712871287128713,4.713278433126252
4.732673267326733,4.677120149865918
4.752475247524752,4.642970512210126
4.772277227722772,4.61101097162017
4.792079207920793,4.581415511726369
4.811881188118812,4.554349012886616
4.8316831683168315,4.529965597887909
4.851485148514852,4.508406991237821
4.871287128712871,4.489800928091401
4.891089108910891,4.474259651270693
4.910891089108912,4.461878535738355
4.930693069306931,4.452734879035105
4.9504950495049505,4.446886893441223
4.97029702970297,4.444372930970721
4.99009900990099,4.445210965902326
5.00990099009901,4.449398351693011
5.02970297029703,4.456911860242548
5.0495049504950495,4.46770800211142
5.069306930693069,4.481723617016832
5.089108910891089,4.49887671531283
5.108910891089109,4.51906754370392
5.128712871287129,4.542179842545344
5.148514851485149,4.56808225799965
5.1683168316831685,4.596629870151008
5.188118811881188,4.627665797875447
5.207920792079208,4.661022842650609
5.227722772277227,4.696525136287249
5.247524752475248,4.733989761442793
5.267326732673268,4.773228318377548
5.2871287128712865,4.814048416389394
5.306930693069307,4.8562550734037595
5.326732673267327,4.899652012042853
5.346534653465346,4.944042844957684
5.366336633663367,4.9892321461432685
5.3861386138613865,5.035026408298183
5.405940594059405,5.081234889007365
5.425742574257426,5.127670350637274
5.445544554455446,5.1741497003770665
5.465346534653465,5.220494537900539
5.485148514851486,5.266531618732599
5.504950495049505,5.312093241655894
5.524752475247524,5.357017568461083
5.544554455445545,5.40114888409461
5.564356435643565,5.444337804851352
5.584158415841584,5.48644144174632
5.603960396039604,5.527323525622245
5.623762376237624,5.566854499941994
5.643564356435643,5.604911586602221
5.663366336633663,5.641378829507319
5.683168316831684,5.676147120073699
5.702970297029703,5.70911420830319
5.7227722772277225,5.740184702576425
5.742574257425743,5.769270060874439
5.762376237623762,5.7962885757403075
5.782178217821782,5.82116535494074
5.801980198019803,5.8438322994786285
5.821782178217822,5.8642280803371545
5.841584158415841,5.882298115102667
5.861386138613861,5.897994545411628
5.881188118811881,5.911276215994051
5.900990099009901,5.9221086559377945
5.920792079207921,5.930464062671091
5.9405940594059405,5.936321289052217
5.96039603960396,5.939665833860628
5.98019801980198,5.9404898359015315
6.0,5.938792071861711
6.01980198019802,5.934577957986103
6.03960396039604,5.927859555579375
6.0594059405940595,5.918655580271592
6.079207920792079,5.906991414919337
6.099009900990099,5.892899125941046
6.118811881188119,5.876417482804052
6.138613861386139,5.857591980289066
6.158415841584159,5.836474863051522
6.178217821782178,5.813125151875875
6.198019801980198,5.787608670874891
6.217821782178218,5.759998074717234
6.237623762376237,5.730372874770872
6.257425742574258,5.698819462821435
6.2772277227722775,5.6654311307621175
6.297029702970296,5.630308084349286
6.316831683168317,5.59355744877472
6.336633663366337,5.555293263417236
6.356435643564356,5.515636462703028
6.376237623762377,5.474714839524321
6.396039603960396,5.4326629871440035
6.415841584158415,5.389622214951267
6.435643564356436,5.345740432842393
6.455445544554456,5.301171998390644
6.475247524752475,5.256077520360404
6.495049504950495,5.21062361153696
6.514851485148515,5.164982583316727
6.534653465346534,5.119332074073429
6.554455445544554,5.073854603033362
6.574257425742575,5.028737041313846
6.594059405940594,4.984169991970259
6.6138613861386135,4.940347071428282
6.633663366336634,4.897464085625063
6.653465346534653,4.855718095616651
6.673267326732673,4.815306369393655
6.693069306930694,4.776425219228649
6.712871287128713,4.739268727078734
6.732673267326732,4.704027364366995
6.752475247524753,4.670886516804181
6.772277227722772,4.640024929667439
6.792079207920792,4.611613093943343
6.811881188118813,4.585811598727222
6.8316831683168315,4.562769479950513
6.851485148514851,4.5426225995464025
6.871287128712871,4.5254920922074655
6.891089108910891,4.511482918599582
6.910891089108911,4.500682563986822
6.930693069306931,4.493159919493162
6.9504950495049505,4.488964379601437
6.97029702970297,4.488125184033208
6.99009900990099,4.4906510250836815
7.00990099009901,4.496529933164873
7.02970297029703,4.505729444216087
7.0495049504950495,4.518197043324318
7.069306930693069,4.533860869932177
7.089108910891089,4.552630661935699
7.108910891089109,4.5743989092430235
7.128712871287128,4.599042182307816
7.148514851485149,4.626422597950873
7.1683168316831685,4.656389383471409
7.188118811881187,4.688780500518356
7.207920792079208,4.72342429221883
7.227722772277228,4.760141120345041
7.247524752475247,4.7987449634983275
7.267326732673268,4.839044952047771
7.287128712871287,4.880846820553097
7.306930693069306,4.923954263340888
7.326732673267327,4.968170183561853
7.346534653465347,5.013297830268583
7.366336633663366,5.059141821710746
7.3861386138613865,5.105509056097206
7.405940594059406,5.1522095135132835
7.425742574257425,5.199056954534565
7.445544554455446,5.2458695223962115
7.465346534653466,5.29247025642524
7.485148514851485,5.338687524894938
7.504950495049505,5.384355385588819
7.524752475247524,5.429313882236918
7.544554455445544,5.473409284672111
7.564356435643565,5.516494280105016
7.584158415841584,5.558428122379018
7.603960396039604,5.599076745480502
7.623762376237624,5.6383128469733474
7.643564356435643,5.676015946424582
7.663366336633663,5.712072423306261
7.683168316831684,5.746375538308983
7.702970297029703,5.77882544149227
7.7227722772277225,5.809329170230853
7.742574257425743,5.837800639494677
7.762376237623762,5.864160626624766
7.782178217821782,5.888336752434256
7.801980198019803,5.910263460172339
7.821782178217822,5.929881993634791
7.841584158415841,5.947140375484849
7.861386138613862,5.96199338665854
7.881188118811881,5.974402547566403
7.900990099009901,5.9843361016636125
7.92079207920792,5.991769001841303
7.9405940594059405,5.996682899988204
7.96039603960396,5.999066139981894
7.980198019801979,5.998913754288853
8.0,5.99622746427996
8.01980198019802,5.991015684299786
8.03960396039604,5.9832935294613625
8.05940594059406,5.9730828270706535
8.07920792079208,5.960412131513449
8.099009900990099,5.945316742359097
8.118811881188119,5.927838725348395
8.138613861386139,5.908026935832427
8.158415841584159,5.885937044113774
8.178217821782178,5.861631562006823
8.198019801980198,5.8351798697769235
8.217821782178218,5.806658242435409
8.237623762376238,5.776149874155096
8.257425742574258,5.743744899325344
8.277227722772277,5.709540408483584
8.297029702970297,5.673640457038089
8.316831683168317,5.636156064332132
8.336633663366337,5.597205200190376
8.356435643564357,5.556912755634281
8.376237623762377,5.515410493955049
8.396039603960396,5.472836977794154
8.415841584158416,5.42933746730911
8.435643564356436,5.385063783906368
8.455445544554456,5.340174133420016
8.475247524752476,5.294832882024472
8.495049504950495,5.249210277621123
8.514851485148515,5.203482108967323
8.534653465346535,5.157829294466599
8.554455445544555,5.112437392363143
8.574257425742575,5.0674960241432485
8.594059405940595,5.023198203308032
8.613861386138613,4.979739562418737
8.633663366336634,4.937317472498484
8.653465346534654,4.89613005057191
8.673267326732672,4.856375053388777
8.693069306930694,4.818248658245269
8.712871287128714,4.78194413528687
8.732673267326732,4.747650419712786
8.752475247524753,4.7155505968115055
8.772277227722773,4.685820317593907
8.792079207920791,4.658626167744541
8.811881188118813,4.634124017417868
8.831683168316832,4.612457383749934
8.85148514851485,4.593755841496242
8.871287128712872,4.578133519600525
8.891089108910892,4.565687722435236
8.91089108910891,4.556497713689821
8.930693069306932,4.5506236982765635
8.950495049504951,4.548106033165534
8.97029702970297,4.548964691886038
8.990099009900991,4.5531989998246605
9.00990099009901,4.560787648821638
9.029702970297029,4.571688990425669
9.04950495049505,4.585841598069108
9.06930693069307,4.603165079922793
9.089108910891088,4.623561116778094
9.10891089108911,4.646914693376116
9.12871287128713,4.6730954874203885
9.148514851485148,4.701959378182021
9.16831683168317,4.733350036103459
9.188118811881187,4.767100555969167
9.207920792079207,4.803035098784436
9.227722772277229,4.8409705111680665
9.247524752475247,4.88071789547848
9.267326732673267,4.9220841087175335
9.287128712871288,4.964873173185804
9.306930693069306,5.008887586641361
9.326732673267326,5.05392952414069
9.346534653465348,5.099801927679791
9.366336633663366,5.146309483121137
9.386138613861386,5.193259486658785
9.405940594059407,5.240462605244888
9.425742574257425,5.287733537013904
9.445544554455445,5.334891578852701
9.465346534653467,5.381761108942547
9.485148514851485,5.42817199241556
9.504950495049505,5.473959918293508
9.524752475247526,5.518966675678179
9.544554455445544,5.563040376798128
9.564356435643564,5.6060356340386015
9.584158415841586,5.647813697531267
9.603960396039604,5.688242559293638
9.623762376237623,5.72719702931055
9.643564356435645,5.76455878836315
9.663366336633663,5.80021642184749
9.683168316831683,5.834065438297171
9.702970297029704,5.866008275835981
9.722772277227723,5.895954299342734
9.742574257425742,5.923819790710453
9.762376237623764,5.949527934226128
9.782178217821782,5.97300879878324
9.801980198019802,5.994199318363442
9.821782178217823,6.013043271984879
9.841584158415841,6.029491264107147
9.861386138613861,6.043500706303981
9.881188118811881,6.055035800861876
9.900990099009901,6.064067526830095
9.92079207920792,6.070573628934166
9.94059405940594,6.074538609665455
9.96039603960396,6.075953724772677
9.98019801980198,6.0748169823019875
10.0,6.071133145260607
10.01980198019802,6.064913737908638
10.03960396039604,6.05617705561522
10.05940594059406,6.044948178143411
10.07920792079208,6.031258986151665
10.099009900990099,6.0151481806151095
10.118811881188119,5.996661304774198
10.138613861386139,5.975850768108994
10.158415841584159,5.9527758717104
10.178217821782178,5.927502834272576
10.198019801980198,5.900104817759755
10.217821782178218,5.870661951601912
10.237623762376238,5.839261354044365
10.257425742574258,5.805997149012057
10.277227722772277,5.770970476547526
10.297029702970297,5.734289494539149
10.316831683168317,5.6960693690708375
10.336633663366337,5.656432250295587
10.356435643564357,5.615507230262654
10.376237623762377,5.573430278615138
10.396039603960396,5.530344151525581
10.415841584158416,5.486398268661273
10.435643564356436,5.441748552381293
10.455445544554454,5.396557222781605
10.475247524752476,5.35099254164834
10.495049504950495,5.305228497883289
10.514851485148514,5.259444426570711
10.534653465346535,5.2138245536064
10.554455445544555,5.168557457767181
10.574257425742573,5.123835442321863
10.594059405940595,5.079853808843739
10.613861386138614,5.036810026849246
10.633663366336632,4.994902794325546
10.653465346534654,4.954330986180848
10.673267326732674,4.9152924901973325
10.693069306930692,4.877982933204874
10.712871287128714,4.842594303904453
10.732673267326733,4.809313482990092
10.752475247524751,4.7783206958293185
10.772277227722773,4.749787907789925
10.792079207920793,4.723877187111475
10.81188118811881,4.700739064729858
10.831683168316832,4.680510924351129
10.851485148514852,4.66331545900115
10.87128712871287,4.649259231929398
10.891089108910892,4.638431379846396
10.910891089108912,4.630902494834772
