Frequency (Hz),Amplitude
0.0,5.227900765267807
0.019867549668874173,5.228378199801637
0.039735099337748346,5.229808322210992
0.059602649006622516,5.232184602603496
0.07947019867549669,5.2354962032742485
0.09933774834437085,5.239728046309763
0.11920529801324503,5.244860907107181
0.13907284768211922,5.250871532714246
0.15894039735099338,5.257732783625763
0.17880794701986755,5.265413797433252
0.1986754966887417,5.273880172520474
0.2185430463576159,5.2830941698306875
0.23841059602649006,5.293014930605448
0.2582781456953642,5.3035987079088605
0.27814569536423844,5.314799109705181
0.2980132450331126,5.326567351250968
0.31788079470198677,5.338852514591116
0.33774834437086093,5.351601813009791
0.3576158940397351,5.364760858376869
0.3774834437086093,5.378273929444671
0.3973509933774834,5.392084239283334
0.4172185430463576,5.406134200191841
0.4370860927152318,5.420365684580596
0.45695364238410596,5.434720280486665
0.4768211920529801,5.4491395405499246
0.49668874172185434,5.463565223443927
0.5165562913907285,5.477939526917102
0.5364238410596026,5.492205311753585
0.5562913907284769,5.506306316108315
0.5761589403973509,5.520187359805656
0.5960264900662252,5.533794538312988
0.6158940397350993,5.547075406210935
0.6357615894039735,5.559979150079341
0.6556291390728477,5.572456750801954
0.6754966887417219,5.584461135364865
0.695364238410596,5.595947318283144
0.7152317880794702,5.6068725328379525
0.7350993377483444,5.617196352344055
0.7549668874172186,5.626880801694335
0.7748344370860927,5.635890459446544
0.7947019867549668,5.644192550727232
0.8145695364238411,5.651757031230442
0.8344370860927152,5.658556662584898
0.8543046357615894,5.664567079353983
0.8741721854304636,5.6697668479180425
0.8940397350993378,5.6741375174703315
0.9139072847682119,5.677663663335241
0.9337748344370861,5.680332922792547
0.9536423841059603,5.682136023563718
0.9735099337748344,5.683066805086552
0.9933774834437087,5.683122232673641
1.0132450331125828,5.68230240461769
1.033112582781457,5.680610552273934
1.0529801324503312,5.67805303311667
1.0728476821192052,5.6746393167337015
1.0927152317880795,5.670381963689293
1.1125827814569538,5.665296597154688
1.1324503311258278,5.659401867173496
1.1523178807947019,5.652719407400295
1.1721854304635762,5.645273784122787
1.1920529801324504,5.637092437353189
1.2119205298013245,5.628205613752078
1.2317880794701985,5.618646291129711
1.2516556291390728,5.608450094255468
1.271523178807947,5.597655201696937
1.2913907284768211,5.586302243406751
1.3112582781456954,5.574434188778118
1.3311258278145695,5.562096224900882
1.3509933774834437,5.549335624768431
1.370860927152318,5.536201605214156
1.390728476821192,5.522745174394036
1.410596026490066,5.509018968680958
1.4304635761589404,5.495077078897499
1.4503311258278146,5.480974865886326
1.4701986754966887,5.4667687655034545
1.4900662251655628,5.452516083218357
1.5099337748344372,5.438274778616345
1.5298013245033113,5.424103240223119
1.5496688741721854,5.410060051207434
1.5695364238410596,5.396203746664679
1.5894039735099337,5.382592563339872
1.609271523178808,5.369284182811769
1.6291390728476822,5.3563354693267256
1.6490066225165563,5.343802203639332
1.6688741721854303,5.3317388143830255
1.6887417218543048,5.3201981086533285
1.7086092715231789,5.3092310036353165
1.728476821192053,5.298886261240154
1.7483443708609272,5.28921022782929
1.7682119205298013,5.280246581193155
1.7880794701986755,5.272036087011285
1.8079470198675496,5.2646163670469015
1.8278145695364238,5.258021681319612
1.847682119205298,5.252282726450785
1.8675496688741722,5.24742645228732
1.8874172185430464,5.243475898779027
1.9072847682119205,5.240450054915476
1.9271523178807946,5.238363741319085
1.9470198675496688,5.237227517849172
1.9668874172185429,5.2370476172984395
1.9867549668874174,5.237825905965807
2.0066225165562916,5.239559871574252
2.0264900662251657,5.242242638675634
2.0463576158940397,5.245863011355379
2.066225165562914,5.250405542724095
2.086092715231788,5.255850630370708
2.1059602649006623,5.262174636657136
2.1258278145695364,5.269350032466105
2.1456953642384105,5.277345562776101
2.165562913907285,5.286126432234637
2.185430463576159,5.295654508737236
2.205298013245033,5.305888542895667
2.2251655629139075,5.316784401195595
2.2450331125827816,5.32829531060148
2.2649006622516556,5.340372112361952
2.2847682119205297,5.352963522800602
2.3046357615894038,5.366016398941039
2.324503311258278,5.37947600690757
2.3443708609271523,5.393286291158925
2.364238410596027,5.4073901427483175
2.384105960264901,5.421729664953163
2.403973509933775,5.436246434778125
2.423841059602649,5.4508817590012555
2.443708609271523,5.465576923600751
2.463576158940397,5.480273435566052
2.4834437086092715,5.494913256258467
2.5033112582781456,5.509439025640331
2.52317880794702,5.52379427683694
2.543046357615894,5.537923640628869
2.562913907284768,5.551773039594731
2.5827814569536423,5.565289871733423
2.6026490066225163,5.578423183491472
2.622516556291391,5.591123832204456
2.642384105960265,5.603344638032492
2.662251655629139,5.615040525528229
2.6821192052980134,5.626168655023012
2.7019867549668874,5.6366885440534
2.7218543046357615,5.646562179076421
2.741721854304636,5.655754117739575
2.76158940397351,5.6642315819806734
2.781456953642384,5.671964542234588
2.801324503311258,5.678925793019513
2.821192052980132,5.685091020165263
2.8410596026490067,5.690438859930821
2.8609271523178808,5.694950950239678
2.8807947019867552,5.698611974238329
2.9006622516556293,5.7014096963578
2.9205298013245033,5.703334991030024
2.9403973509933774,5.704381864180948
2.9602649006622515,5.70454746759043
2.9801324503311255,5.703832106176856
3.0,5.7022392382306535
3.0198675496688745,5.699775468587707
3.0397350993377485,5.696450534699655
3.0596026490066226,5.692277285525043
3.0794701986754967,5.687271653132731
3.0993377483443707,5.681452616877666
3.119205298013245,5.67484215997909
3.1390728476821192,5.667465218303641
3.1589403973509933,5.659349621130532
3.1788079470198674,5.650526023653425
3.198675496688742,5.641027830955422
3.218543046357616,5.630891113179194
3.23841059602649,5.620154511605223
3.2582781456953644,5.608859135347594
3.2781456953642385,5.597048448380685
3.2980132450331126,5.584768146620685
3.3178807947019866,5.572066024805649
3.3377483443708607,5.5589918329466155
3.3576158940397347,5.545597122161611
3.3774834437086096,5.531935079754679
3.3973509933774837,5.518060353464473
3.4172185430463577,5.5040288648817075
3.437086092715232,5.4898976121225855
3.456953642384106,5.475724461946658
3.47682119205298,5.461567931621459
3.4966887417218544,5.447486960963808
3.5165562913907285,5.433540675126549
3.5364238410596025,5.419788138849562
3.556291390728477,5.406288103053275
3.576158940397351,5.393098744818699
3.596026490066225,5.380277401968873
3.615894039735099,5.367880303637735
3.6357615894039736,5.355962298381704
3.6556291390728477,5.344576581550991
3.6754966887417218,5.333774423788678
3.695364238410596,5.32360490266076
3.7152317880794703,5.314114639534041
3.7350993377483444,5.305347543908037
3.754966887417219,5.297344567465624
3.774834437086093,5.29014347013201
3.794701986754967,5.283778600419623
3.814569536423841,5.278280692283898
3.834437086092715,5.2736766806219135
3.854304635761589,5.26998953741072
3.8741721854304636,5.267238130306128
3.8940397350993377,5.265437105309
3.9139072847682117,5.264596794856179
3.9337748344370858,5.264723152414117
3.9536423841059607,5.265817714348877
3.9735099337748347,5.2678775895243195
3.993377483443709,5.270895476748202
4.013245033112583,5.274859709850719
4.033112582781457,5.279754329850234
4.052980132450331,5.2855591833444056
4.072847682119205,5.292250045967476
4.0927152317880795,5.299798769484477
4.112582781456953,5.308173450854376
4.132450331125828,5.317338621391847
4.152317880794702,5.3272554539945585
4.172185430463576,5.337881986280489
4.19205298013245,5.349173357399767
4.211920529801325,5.361082056245625
4.231788079470199,5.373558178788744
4.251655629139073,5.386549692294188
4.271523178807947,5.4000027042489265
4.291390728476821,5.41386173392378
4.311258278145695,5.4280699846144795
4.33112582781457,5.442569614745548
4.3509933774834435,5.457302006175041
4.370860927152318,5.472208028201104
4.390728476821192,5.487228295941031
4.410596026490066,5.502303421923164
4.43046357615894,5.517374259900651
4.450331125827815,5.53238214005905
4.470198675496689,5.547269094945123
4.490066225165563,5.561978075590021
4.509933774834438,5.576453157434437
4.529801324503311,5.590639735785654
4.549668874172186,5.6044847106457825
4.569536423841059,5.61793666084671
4.589403973509934,5.630946007510254
4.6092715231788075,5.6434651669226135
4.629139072847682,5.655448692969852
4.649006622516556,5.666853409327813
4.66887417218543,5.677638531635434
4.688741721854305,5.687765779905636
4.708609271523179,5.697199481445221
4.728476821192054,5.705906664562493
4.748344370860927,5.7138571433434215
4.768211920529802,5.7210235937709015
4.788079470198675,5.727381621451102
4.80794701986755,5.732909821194865
4.827814569536423,5.7375898286820695
4.847682119205298,5.741406364413208
4.867549668874172,5.744347270126179
4.887417218543046,5.746403537827001
4.9072847682119205,5.747569331552791
4.927152317880794,5.747842001952659
4.947019867549669,5.74722209373906
4.966887417218543,5.745713346027893
4.986754966887418,5.74332268555146
5.006622516556291,5.740060212693752
5.026490066225166,5.735939180263908
5.04635761589404,5.730975964890035
5.066225165562914,5.725190030883916
5.086092715231788,5.718603886396475
5.105960264900662,5.711243031655309
5.125827814569536,5.703135899050066
5.14569536423841,5.694313784808374
5.1655629139072845,5.684810771986383
5.185430463576159,5.674663644483248
5.205298013245033,5.663911791779825
5.225165562913908,5.65259710409852
5.245033112582782,5.640763857684981
5.264900662251656,5.628458589923749
5.28476821192053,5.615729964020329
5.304635761589404,5.602628623012172
5.324503311258278,5.5892070329114665
5.344370860927152,5.57551931483499
5.364238410596027,5.5616210660406304
5.3841059602649,5.547569169867433
5.403973509933775,5.533421594667074
5.4238410596026485,5.5192371819190305
5.443708609271523,5.505075423839816
5.463576158940397,5.490996230928016
5.483443708609272,5.47705969003064
5.503311258278146,5.463325813671069
5.52317880794702,5.44985428154336
5.543046357615895,5.436704175248899
5.562913907284768,5.423933707527154
5.582781456953643,5.411599947409113
5.602649006622516,5.399758542895299
5.622516556291391,5.388463442927334
5.642384105960264,5.377766620576354
5.662251655629139,5.367717799509733
5.682119205298013,5.358364185913867
5.701986754966887,5.349750208140725
5.7218543046357615,5.341917266404209
5.741721854304636,5.334903494876371
5.7615894039735105,5.328743538517679
5.781456953642384,5.3234683469198005
5.801324503311259,5.319104987339893
5.821192052980132,5.315676478963626
5.841059602649007,5.313201650250603
5.860927152317881,5.311695020992151
5.880794701986755,5.311166710452885
5.900662251655629,5.311622372677467
5.920529801324503,5.31306315972962
5.940397350993377,5.31548571329828
5.960264900662251,5.3188821847639005
5.980132450331126,5.3232402834733605
6.0,5.328543352634629
6.0198675496688745,5.334770471917897
6.039735099337749,5.3418965855474925
6.059602649006623,5.349892654394432
6.079470198675497,5.358725830337907
6.099337748344371,5.368359650960686
6.119205298013245,5.378754252480414
6.139072847682119,5.389866598698891
6.158940397350993,5.401650723673182
6.178807947019867,5.414057985777175
6.198675496688741,5.4270373308260575
6.218543046357616,5.440535561977001
6.23841059602649,5.454497614193441
6.258278145695365,5.468866831162644
6.2781456953642385,5.483585242682843
6.298013245033113,5.498593840681749
6.317880794701987,5.513832852187584
6.337748344370861,5.529242007743141
6.357615894039735,5.544760803926845
6.377483443708609,5.5603287588198205
6.397350993377484,5.575885659430069
6.417218543046357,5.591371800251069
6.437086092715232,5.606728212290529
6.456953642384105,5.621896882052509
6.47682119205298,5.63682096009263
6.496688741721854,5.651444958889387
6.516556291390729,5.665714939884497
6.5364238410596025,5.67957868964201
6.556291390728477,5.692985885158814
6.5761589403973515,5.705888248429141
6.596026490066225,5.71823969042338
6.6158940397351,5.72999644468663
6.635761589403973,5.741117190797846
6.655629139072848,5.75156316795408
6.675496688741721,5.761298278960517
6.695364238410596,5.7702891849135165
6.715231788079469,5.778505390864031
6.735099337748344,5.78591932274196
6.754966887417219,5.792506395809648
6.774834437086093,5.798245074895654
6.794701986754967,5.803116926638612
6.814569536423841,5.8071066639459605
6.8344370860927155,5.81020218284486
6.854304635761589,5.812394591872292
6.874172185430464,5.813678234119234
6.894039735099337,5.8140507020105465
6.913907284768212,5.8135128448673346
6.933774834437086,5.812068769263593
6.95364238410596,5.80972583215299
6.973509933774834,5.8064946267067405
6.993377483443709,5.80238896076762
7.013245033112583,5.797425827791541
7.033112582781457,5.791625370114699
7.052980132450331,5.785010834352485
7.072847682119205,5.77760851870776
7.0927152317880795,5.769447711938428
7.112582781456954,5.7605606237115206
7.132450331125828,5.750982306050899
7.152317880794702,5.740750565571172
7.172185430463576,5.729905866180254
7.19205298013245,5.718491221930586
7.211920529801324,5.706552079702124
7.231788079470198,5.694136191412846
7.251655629139073,5.6812934754733915
7.271523178807947,5.668075867233904
7.291390728476822,5.6545371582137
7.311258278145695,5.640732823958319
7.33112582781457,5.626719840436603
7.3509933774834435,5.61255648897047
7.370860927152318,5.598302149785547
7.390728476821192,5.584017084379623
7.410596026490066,5.569762207029467
7.430463576158941,5.555598845893566
7.450331125827814,5.5415884943186935
7.470198675496689,5.5277925531197605
7.490066225165562,5.51427206477394
7.509933774834438,5.501087440649057
7.52980132450331,5.488298182569023
7.549668874172186,5.475962600203543
7.569536423841059,5.464137525949881
7.589403973509934,5.452878029147336
7.6092715231788075,5.442237131625684
7.629139072847682,5.432265526731386
7.649006622516557,5.423011304094894
7.66887417218543,5.414519682494123
7.6887417218543055,5.406832753227869
7.708609271523178,5.399989236434703
7.728476821192054,5.394024252774027
7.748344370860927,5.388969112823667
7.768211920529802,5.384851126442152
7.788079470198675,5.381693434192191
7.80794701986755,5.379514862726834
7.827814569536423,5.378329805804438
7.847682119205298,5.378148132325388
7.8675496688741715,5.378975122479965
7.887417218543046,5.380811432767282
7.907284768211921,5.383653090298358
7.927152317880795,5.387491516441121
7.9470198675496695,5.392313579506458
7.966887417218543,5.398101675826023
7.986754966887418,5.404833838237598
8.006622516556291,5.412483870682845
8.026490066225167,5.421021507341697
8.046357615894038,5.430412594481571
8.066225165562914,5.440619292994494
8.086092715231787,5.451600299431963
8.105960264900663,5.463311083229105
8.125827814569536,5.475704137735994
8.14569536423841,5.488729242642783
8.165562913907285,5.502333735396613
8.185430463576159,5.51646278925586
8.205298013245034,5.531059695709602
8.225165562913906,5.5460661491011285
8.245033112582782,5.561422531429392
8.264900662251655,5.577068195456261
8.28476821192053,5.592941744415256
8.304635761589404,5.608981306794048
8.324503311258278,5.625124804844189
8.344370860927151,5.641310215652438
8.364238410596027,5.657475823786226
8.3841059602649,5.673560464696475
8.403973509933774,5.689503758223701
8.42384105960265,5.705246331703997
8.443708609271523,5.720730032310687
8.463576158940398,5.7358981283920185
8.483443708609272,5.750695499677298
8.503311258278146,5.765068816320258
8.52317880794702,5.778966706832547
8.543046357615895,5.792339915028988
8.562913907284768,5.8051414461639546
8.582781456953642,5.817326702482374
8.602649006622515,5.828853608442501
8.62251655629139,5.839682725890909
8.642384105960264,5.849777359483965
8.66225165562914,5.859103652655408
8.682119205298013,5.867630674428153
8.701986754966887,5.875330497359612
8.721854304635762,5.882178266896217
8.741721854304636,5.88815226239344
8.76158940397351,5.893233950034976
8.781456953642383,5.8974080278578285
8.801324503311259,5.900662463060701
8.821192052980132,5.9029885217413485
8.841059602649008,5.90438079117443
8.86092715231788,5.904837194706719
8.880794701986755,5.904358999309918
8.90066225165563,5.9029508157944655
8.920529801324504,5.900620591650836
8.940397350993377,5.897379596447331
8.960264900662251,5.893242399676911
8.980132450331126,5.888226840909753
9.0,5.882353992073535
9.019867549668875,5.875648111650637
9.039735099337747,5.868136590550564
9.059602649006623,5.8598498893882685
9.079470198675496,5.850821466874291
9.099337748344372,5.841087699002027
9.119205298013245,5.830687788702315
9.139072847682119,5.819663665625088
9.158940397350994,5.808059875704768
9.178807947019868,5.7959234601704415
9.198675496688743,5.7833038236742365
9.218543046357615,5.770252591234394
9.23841059602649,5.7568234537220615
9.258278145695364,5.743072001666223
9.27814569536424,5.729055547208459
9.298013245033111,5.714832934110632
9.317880794701987,5.700464335803955
9.33774834437086,5.686011041568653
9.357615894039736,5.671535231048336
9.37748344370861,5.657099737434578
9.397350993377483,5.642767799801534
9.417218543046358,5.628602805229917
9.437086092715232,5.614668021530144
9.456953642384107,5.601026321556161
9.47682119205298,5.587739900289884
9.496688741721854,5.574869986069721
9.516556291390728,5.562476547530634
9.536423841059603,5.55061799801287
9.556291390728477,5.5393508993788085
9.57615894039735,5.528729667344497
9.596026490066224,5.5188062805816385
9.6158940397351,5.509629995969207
9.635761589403973,5.501247072467887
9.655629139072847,5.493700506149045
9.675496688741722,5.487029778928787
9.695364238410596,5.481270623533397
9.715231788079471,5.476454807152491
9.735099337748345,5.472609936118432
9.754966887417218,5.469759283786318
9.774834437086092,5.4679216435782925
9.794701986754967,5.467111208902946
9.814569536423841,5.4673374813690465
9.834437086092716,5.468605208389376
9.854304635761588,5.470914350921109
9.874172185430464,5.474260081722761
9.894039735099337,5.478632814132675
9.913907284768213,5.484018260999111
9.933774834437086,5.490397523026409
9.95364238410596,5.497747205454013
9.973509933774835,5.506039561663386
9.993377483443709,5.515242662018376
10.013245033112582,5.525320585994234
10.033112582781456,5.536233635442198
10.052980132450331,5.547938566674539
10.072847682119205,5.560388838939336
10.09271523178808,5.5735348767860975
10.112582781456952,5.587324343799907
10.132450331125828,5.60170242520166
10.152317880794701,5.6166121168704315
10.172185430463577,5.631994518437203
10.192052980132452,5.647789128221968
10.211920529801324,5.663934137932922
10.2317880794702,5.68036672521213
10.251655629139073,5.697023342290983
10.271523178807948,5.71383999920565
10.29139072847682,5.730752540213461
10.311258278145695,5.747696912240792
10.331125827814569,5.764609424378352
10.350993377483444,5.7814269976171
10.370860927152318,5.798087404185921
10.390728476821192,5.814529496007166
10.410596026490065,5.830693421928171
10.43046357615894,5.84652083351461
10.450331125827816,5.86195507930403
10.470198675496688,5.876941387515889
10.490066225165563,5.891427037297738
10.509933774834437,5.905361518656478
10.529801324503312,5.918696681279395
10.549668874172186,5.931386872492914
10.56953642384106,5.943389064639304
10.589403973509933,5.954662972172394
10.609271523178808,5.9651711587854965
10.629139072847682,5.974879134887868
10.649006622516556,5.983755445742141
10.66887417218543,5.991771750564125
10.688741721854305,5.9989028928702375
10.70860927152318,6.005126962336423
10.728476821192054,6.010425348406855
10.748344370860927,6.014782785862128
10.7682119205298,6.018187392524457
10.788079470198676,6.020630699243502
10.80794701986755,6.022107672270384
10.827814569536423,6.0226167280899086
10.847682119205297,6.022159740742781
10.867549668874172,6.020742041630296
10.887417218543046,6.018372411754867
10.907284768211921,6.015063066310387
10.927152317880793,6.0108296314977405
