Frequency (Hz),Amplitude
0.0,0.691155721469841
0.019801980198019802,0.6928776612342491
0.039603960396039604,0.6980113455935094
0.0594059405940594,0.7064627232107263
0.07920792079207921,0.718082481519819
0.09900990099009901,0.7326759096374328
0.1188118811881188,0.750014496431097
0.13861386138613863,0.7698477803118244
0.15841584158415842,0.7919142501106325
0.1782178217821782,0.8159505271379796
0.19801980198019803,0.8416984937179692
0.21782178217821782,0.8689103790366723
0.2376237623762376,0.8973520341309541
0.25742574257425743,0.9268047332046235
0.27722772277227725,0.9570658584614171
0.297029702970297,0.9879487940366481
0.31683168316831684,1.0192822989765278
0.33663366336633666,1.0509095680963683
0.3564356435643564,1.0826871333442127
0.37623762376237624,1.1144837115435666
0.39603960396039606,1.1461790680393609
0.4158415841584158,1.177662938918636
0.43564356435643564,1.208834035471386
0.45544554455445546,1.2395991416325451
0.4752475247524752,1.2698723067210396
0.495049504950495,1.299574130576456
0.5148514851485149,1.3286311351955988
0.5346534653465347,1.3569752154585448
0.5544554455445545,1.3845431609829468
0.5742574257425742,1.4112762411930886
0.594059405940594,1.437119846088516
0.613861386138614,1.462023175782878
0.6336633663366337,1.485938972550345
0.6534653465346534,1.508823289799693
0.6732673267326733,1.5306352930547895
0.6930693069306931,1.551337088633892
0.7128712871287128,1.5708935762786238
0.7326732673267327,1.5892723224832181
0.7524752475247525,1.6064434517171213
0.7722772277227723,1.622379553123305
0.7920792079207921,1.637055600613938
0.8118811881188118,1.6504488845821548
0.8316831683168316,1.6625389537058306
0.8514851485148516,1.6733075655441825
0.8712871287128713,1.682738644823665
0.891089108910891,1.6908182484809091
0.9108910891089109,1.6975345366807983
0.9306930693069307,1.7028777491612161
0.9504950495049505,1.7068401863744298
0.9702970297029703,1.709416195002363
0.99009900990099,1.7106021575206545
1.00990099009901,1.7103964855770906
1.0297029702970297,1.7087996170353894
1.0495049504950495,1.7058140166176503
1.0693069306930694,1.7014441801593783
1.0891089108910892,1.6956966425719338
1.108910891089109,1.688579989690399
1.1287128712871286,1.6801048742712292
1.1485148514851484,1.6702840364967655
1.1683168316831685,1.6591323294436897
1.188118811881188,1.6466667500821874
1.2079207920792079,1.632906476495174
1.227722772277228,1.6178729121442315
1.2475247524752475,1.6015897381639428
1.2673267326732673,1.58408297484344
1.2871287128712872,1.5653810536557244
1.3069306930693068,1.5455149014270184
1.3267326732673268,1.5245180385033776
1.3465346534653466,1.5024266930759853
1.3663366336633662,1.479279934174442
1.3861386138613863,1.4551198262325566
1.405940594059406,1.4299916085802287
1.4257425742574257,1.4039439037159729
1.4455445544554455,1.3770289587708773
1.4653465346534653,1.3493029251765092
1.4851485148514851,1.3208261821833065
1.504950495049505,1.291663710513791
1.5247524752475248,1.261885523027081
1.5445544554455446,1.231567159739107
1.5643564356435644,1.2007902547616043
1.5841584158415842,1.1696431825031464
1.6039603960396038,1.1382217895373938
1.6237623762376237,1.106630216479234
1.6435643564356437,1.0749818104443218
1.6633663366336633,1.0434001224114957
1.683168316831683,1.012019974010544
1.7029702970297032,0.9809885635959056
1.7227722772277227,0.9504665603757659
1.7425742574257426,0.9206291062169157
1.7623762376237624,0.8916666062311923
1.782178217821782,0.8637851411396075
1.801980198019802,0.8372062788066645
1.8217821782178218,0.8121660054818054
1.8415841584158414,0.7889124517336569
1.8613861386138615,0.7677020744379901
1.881188118811881,0.7487940029068606
1.900990099009901,0.7324423957623761
1.920792079207921,0.7188869082023125
1.9405940594059405,0.70834173225564
1.9603960396039604,0.7009840937694776
1.98019801980198,0.6969434628513215
2.0,0.6962929189662668
2.01980198019802,0.6990439876426195
2.0396039603960396,0.7051458008799445
2.0594059405940595,0.7144887246383359
2.0792079207920793,0.7269118453870091
2.099009900990099,0.742213133899318
2.118811881188119,0.7601608506679058
2.1386138613861387,0.7805048377153592
2.1584158415841586,0.8029866613329885
2.1782178217821784,0.827347988708268
2.1980198019801978,0.8533369751643748
2.217821782178218,0.880712735443055
2.237623762376238,0.9092481519751369
2.257425742574257,0.9387313504100226
2.2772277227722775,0.9689661778189527
2.297029702970297,0.9997719823965611
2.3168316831683167,1.0309829389122924
2.336633663366337,1.0624471070295058
2.3564356435643563,1.0940253582547077
2.376237623762376,1.1255902651039198
2.3960396039603964,1.157025013538816
2.4158415841584158,1.1882223758099582
2.4356435643564356,1.2190837639764482
2.455445544554456,1.2495183729314112
2.4752475247524752,1.279442414326065
2.495049504950495,1.308778438199716
2.514851485148515,1.3374547365051228
2.5346534653465347,1.3654048214188217
2.5544554455445545,1.3925669708796684
2.5742574257425743,1.4188838338827272
2.594059405940594,1.4443020884498954
2.6138613861386135,1.468772145757595
2.633663366336634,1.4922478945309807
2.6534653465346536,1.5146864804549587
2.673267326732673,1.5360481159696153
2.6930693069306932,1.5562959163924457
2.712871287128713,1.5753957588327065
2.7326732673267324,1.5933161608320696
2.7524752475247527,1.6100281760810558
2.7722772277227725,1.6255053049265147
2.792079207920792,1.6397234177053088
2.811881188118812,1.6526606892192837
2.8316831683168315,1.664297542909993
2.8514851485148514,1.6746166035048968
2.8712871287128716,1.683602657092319
2.891089108910891,1.691242617746076
2.910891089108911,1.6975254999642604
2.9306930693069306,1.7024423963147162
2.9504950495049505,1.7059864597939614
2.9702970297029703,1.7081528905102839
2.99009900990099,1.7089389263965555
3.00990099009901,1.708343837747425
3.0297029702970297,1.706368925459275
3.0495049504950495,1.7030175229332458
3.0693069306930694,1.6982950016816079
3.089108910891089,1.6922087807592314
3.108910891089109,1.6847683402250881
3.128712871287129,1.6759852389265466
3.148514851485148,1.6658731369926956
3.1683168316831685,1.6544478235245088
3.1881188118811883,1.641727250081169
3.2079207920792077,1.6277315706860995
3.227722772277228,1.6124831892151155
3.2475247524752473,1.5960068151860636
3.267326732673267,1.578329529147294
3.2871287128712874,1.5594808590645846
3.3069306930693068,1.539492869336505
3.3267326732673266,1.518400264330906
3.346534653465347,1.4962405086328603
3.366336633663366,1.4730539665325069
3.386138613861386,1.448884063660315
3.4059405940594063,1.4237774741006946
3.4257425742574257,1.3977843367798033
3.4455445544554455,1.3709585054248452
3.4653465346534653,1.3433578369173214
3.485148514851485,1.3150445233879993
3.504950495049505,1.2860854738878449
3.5247524752475248,1.2565527518530768
3.5445544554455446,1.2265240747663928
3.564356435643564,1.1960833822529173
3.5841584158415842,1.1653214781224919
3.603960396039604,1.1343367502682415
3.6237623762376234,1.1032359694189493
3.6435643564356437,1.0721351629218077
3.6633663366336635,1.0411605522119627
3.683168316831683,1.0104495314018773
3.702970297029703,0.9801516482997352
3.722772277227723,0.9504295268502221
3.7425742574257423,0.921459640341063
3.762376237623762,0.8934328072215868
3.7821782178217824,0.8665542369702478
3.801980198019802,0.8410429057371905
3.8217821782178216,0.8171299983352871
3.841584158415842,0.7950561282146907
3.8613861386138613,0.7750670603916652
3.881188118811881,0.7574077384974129
3.9009900990099013,0.7423145789906636
3.9207920792079207,0.7300062524324626
3.9405940594059405,0.720673503902504
3.96039603960396,0.7144689114043418
3.98019801980198,0.711497743074978
4.0,0.711811139813807
4.01980198019802,0.7154026443938517
4.03960396039604,0.7222086301911695
4.0594059405940595,0.7321125611179632
4.079207920792079,0.7449524120839685
4.099009900990099,0.7605301610248033
4.118811881188119,0.7786221181253581
4.138613861386139,0.7989889736740335
4.158415841584159,0.8213847356635317
4.178217821782178,0.8455640794187439
4.198019801980198,0.8712879515778279
4.217821782178218,0.8983275080693036
4.237623762376238,0.9264666080605352
4.257425742574258,0.9555031466057384
4.2772277227722775,0.985249511919213
4.297029702970297,1.0155324228450058
4.316831683168317,1.0461923569572102
4.336633663366336,1.0770827321446192
4.356435643564357,1.1080689613343744
4.376237623762377,1.139027464113824
4.3960396039603955,1.1698446909552014
4.415841584158416,1.2004161948293364
4.435643564356436,1.2306457700048192
4.455445544554455,1.2604446674792789
4.475247524752476,1.2897308896167476
4.4950495049504955,1.3184285622087353
4.514851485148514,1.3464673795886437
4.534653465346535,1.3737821170478512
4.554455445544555,1.400312204220066
4.574257425742574,1.426001353029455
4.594059405940594,1.4507972340379036
4.613861386138614,1.4746511954420969
4.633663366336633,1.4975180194726876
4.653465346534653,1.5193557114780194
4.673267326732674,1.5401253174984408
4.693069306930693,1.5597907666334778
4.712871287128713,1.5783187349619634
4.732673267326733,1.595678528190526
4.752475247524752,1.61184198057734
4.772277227722772,1.626783368007938
4.792079207920793,1.640479333391147
4.811881188118812,1.6529088227991455
4.8316831683168315,1.6640530310006172
4.851485148514852,1.6738953552334495
4.871287128712871,1.682421356237165
4.891089108910891,1.6896187257186714
4.910891089108912,1.6954772595611296
4.930693069306931,1.6999888362070825
4.9504950495049505,1.7031473997569107
4.97029702970297,1.704948947423365
4.99009900990099,1.7053915210753785
5.00990099009901,1.7044752026907637
5.02970297029703,1.7022021136202512
5.0495049504950495,1.6985764176453995
5.069306930693069,1.6936043278929165
5.089108910891089,1.6872941177482494
5.108910891089109,1.6796561359947593
5.128712871287129,1.670702826491922
5.148514851485149,1.6604487527993645
5.1683168316831685,1.6489106282543446
5.188118811881188,1.6361073521209446
5.207920792079208,1.6220600525513138
5.227722772277227,1.6067921372356628
5.247524752475248,1.590329352770015
5.267326732673268,1.5726998539422616
5.2871287128712865,1.5539342843298127
5.306930693069307,1.5340658698191447
5.326732673267327,1.513130526901109
5.346534653465346,1.4911669878677518
5.366336633663367,1.4682169453382299
5.3861386138613865,1.4443252188722793
5.405940594059405,1.4195399467867647
5.425742574257426,1.3939128066682196
5.445544554455446,1.3674992684577123
5.465346534653465,1.3403588843544971
5.485148514851486,1.312555620105582
5.504950495049505,1.2841582324682606
5.524752475247524,1.2552406976722843
5.544554455445545,1.2258826954521755
5.564356435643565,1.1961701525031367
5.584158415841584,1.1661958478033227
5.603960396039604,1.1360600798222915
5.623762376237624,1.1058713917715484
5.643564356435643,1.0757473451937318
5.663366336633663,1.045815323639195
5.683168316831684,1.0162133361304482
5.702970297029703,0.9870907737016016
5.7227722772277225,0.9586090507575894
5.742574257425743,0.9309420359633627
5.762376237623762,0.9042761453738704
5.782178217821782,0.8788099357101452
5.801980198019803,0.8547530028163145
5.821782178217822,0.8323239677117451
5.841584158415841,0.8117473327447212
5.861386138613861,0.7932490291214781
5.881188118811881,0.7770505710308627
5.900990099009901,0.763361891610262
5.920792079207921,0.7523731583528217
5.9405940594059405,0.7442461226337846
5.96039603960396,0.7391057946452092
5.98019801980198,0.7370333768739692
6.0,0.7380613665451612
6.01980198019802,0.7421715172977513
6.03960396039604,0.7492959616903011
6.0594059405940595,0.7593213293820411
6.079207920792079,0.7720952719757463
6.099009900990099,0.7874345286328107
6.118811881188119,0.8051335856321993
6.138613861386139,0.8249730819916503
6.158415841584159,0.8467273299211643
6.178217821782178,0.8701705771132671
6.198019801980198,0.8950818751031779
6.217821782178218,0.9212485981744314
6.237623762376237,0.9484687704701481
6.257425742574258,0.9765524126516842
6.2772277227722775,1.005322129279968
6.297029702970296,1.0346131406818837
6.316831683168317,1.0642729320942994
6.336633663366337,1.0941606579051237
6.356435643564356,1.1241464055581076
6.376237623762377,1.1541103949841773
6.396039603960396,1.1839421661942564
6.415841584158415,1.2135397897538494
6.435643564356436,1.2428091215732353
6.455445544554456,1.271663113928116
6.475247524752475,1.3000211880344934
6.495049504950495,1.327808669103158
6.514851485148515,1.3549562819966792
6.534653465346534,1.381399703938955
6.554455445544554,1.4070791698342824
6.574257425742575,1.4319391253829017
6.594059405940594,1.4559279231491824
6.6138613861386135,1.4789975569177676
6.633663366336634,1.5011034299739257
6.653465346534653,1.5222041533066848
6.673267326732673,1.5422613701185985
6.693069306930694,1.5612396034090783
6.712871287128713,1.5791061237644535
6.732673267326732,1.5958308348291494
6.752475247524753,1.6113861742443738
6.772277227722772,1.6257470281231987
6.792079207920792,1.6388906573838837
6.811881188118813,1.6507966344892018
6.8316831683168315,1.6614467893401899
6.851485148514851,1.6708251632511775
6.871287128712871,1.678917970091598
6.891089108910891,1.6857135638213319
6.910891089108911,1.6912024117731526
6.930693069306931,1.6953770731497848
6.9504950495049505,1.6982321823069624
6.97029702970297,1.6997644364890392
6.99009900990099,1.6999725877722645
7.00990099009901,1.698857439054588
7.02970297029703,1.696421844010682
7.0495049504950495,1.6926707110093764
7.069306930693069,1.687611011068
7.089108910891089,1.6812517899970416
7.108910891089109,1.6736041849688985
7.128712871287128,1.6646814458294659
7.148514851485149,1.6544989615605115
7.1683168316831685,1.6430742923975272
7.188118811881187,1.6304272082117475
7.207920792079208,1.616579733879598
7.227722772277228,1.6015562024881826
7.247524752475247,1.585383317363983
7.267326732673268,1.5680902240649297
7.287128712871287,1.549708593644717
7.306930693069306,1.5302727186837002
7.326732673267327,1.5098196237832773
7.346534653465347,1.488389192439429
7.366336633663366,1.466024312444223
7.3861386138613865,1.4427710422064464
7.405940594059406,1.4186788006266382
7.425742574257425,1.3938005833941605
7.445544554455446,1.3681932087745474
7.465346534653466,1.3419175960943501
7.485148514851485,1.3150390801631369
7.504950495049505,1.2876277647364491
7.524752475247524,1.2597589177294775
7.544554455445544,1.2315134101177843
7.564356435643565,1.2029781991426562
7.584158415841584,1.1742468543548887
7.603960396039604,1.1454201218985263
7.623762376237624,1.1166065178990625
7.643564356435643,1.087922935453012
7.663366336633663,1.0594952410388598
7.683168316831684,1.0314588247002012
7.702970297029703,1.0039590537032137
7.7227722772277225,0.9771515614227886
7.742574257425743,0.9512022823884797
7.762376237623762,0.9262871220791628
7.782178217821782,0.9025911289728931
7.801980198019803,0.8803070212353452
7.821782178217822,0.8596329181912138
7.841584158415841,0.8407691462658485
7.861386138613862,0.8239140399945991
7.881188118811881,0.8092587484774074
7.900990099009901,0.7969811874432922
7.92079207920792,0.7872394367283211
7.9405940594059405,0.7801650476022393
7.96039603960396,0.7758568556120881
7.980198019801979,0.7743759487777917
8.0,0.775742383973034
8.01980198019802,0.7799340679720667
8.03960396039604,0.786887951083205
8.05940594059406,0.7965033784323398
8.07920792079208,0.8086471767843264
8.099009900990099,0.8231598807663101
8.118811881188119,0.8398624479469746
8.138613861386139,0.8585628686053827
8.158415841584159,0.8790622086970936
8.178217821782178,0.9011597897425162
8.198019801980198,0.9246573688852145
8.217821782178218,0.9493623116003853
8.237623762376238,0.9750898385789446
8.257425742574258,1.0016644784977522
8.277227722772277,1.0289208773214773
8.297029702970297,1.0567041120894707
8.316831683168317,1.0848696417141328
8.336633663366337,1.1132830060537722
8.356435643564357,1.1418193620883286
8.376237623762377,1.1703629251715075
8.396039603960396,1.1988063653887513
8.415841584158416,1.2270501944257783
8.435643564356436,1.2550021669151714
8.455445544554456,1.2825767115856939
8.475247524752476,1.3096944012034133
8.495049504950495,1.3362814657856534
8.514851485148515,1.3622693504603116
8.534653465346535,1.387594317280285
8.554455445544555,1.4121970890000295
8.574257425742575,1.4360225320615596
8.594059405940595,1.4590193756538894
8.613861386138613,1.4811399635823104
8.633663366336634,1.5023400357235026
8.653465346534654,1.52257853598662
8.673267326732672,1.541817443905401
8.693069306930694,1.560021627222262
8.712871287128714,1.5771587130719835
8.732673267326732,1.5931989756174263
8.752475247524753,1.6081152382242303
8.772277227722773,1.6218827884821219
8.792079207920791,1.6344793045837156
8.811881188118813,1.6458847917583115
8.831683168316832,1.65608152762761
8.85148514851485,1.6650540155035962
8.871287128712872,1.672788944787722
8.891089108910892,1.6792751577561764
8.91089108910891,1.684503622130057
8.930693069306932,1.688467408933185
8.950495049504951,1.691161675235974
8.97029702970297,1.6925836514722437
8.990099009900991,1.6927326330984267
9.00990099009901,1.6916099764435844
9.029702970297029,1.6892190986736202
9.04950495049505,1.6855654818670065
9.06930693069307,1.6806566812718429
9.089108910891088,1.6745023378875512
9.10891089108911,1.667114195588958
9.12871287128713,1.6585061230879152
9.148514851485148,1.6486941411081166
9.16831683168317,1.6376964552342084
9.188118811881187,1.6255334949869
9.207920792079207,1.6122279597728424
9.227722772277229,1.5978048724619982
9.247524752475247,1.5822916414567656
9.267326732673267,1.5657181322362193
9.287128712871288,1.5481167494851495
9.306930693069306,1.529522531050256
9.326732673267326,1.5099732551023413
9.346534653465348,1.4895095620204266
9.366336633663366,1.468175092645445
9.386138613861386,1.446016644668783
9.405940594059407,1.4230843490123601
9.425742574257425,1.3994318681033362
9.445544554455445,1.37511661792373
9.465346534653467,1.3502000155874807
9.485148514851485,1.3247477539183592
9.504950495049505,1.298830104008217
9.524752475247526,1.2725222459432584
9.544554455445544,1.2459046266892015
9.564356435643564,1.2190633423885986
9.584158415841586,1.192090539878408
9.603960396039604,1.1650848288852382
9.623762376237623,1.1381516918772299
9.643564356435645,1.111403872713973
9.663366336633663,1.0849617178340925
9.683168316831683,1.0589534346298974
9.702970297029704,1.0335152209322198
9.722772277227723,1.008791207523828
9.742574257425742,0.9849331431602508
9.762376237623764,0.9620997402343178
9.782178217821782,0.9404555913920049
9.801980198019802,0.9201695664937808
9.821782178217823,0.901412609576336
9.841584158415841,0.884354881496129
9.861386138613861,0.8691622395721039
9.881188118811881,0.8559921122113103
9.900990099009901,0.8449889111748017
9.92079207920792,0.8362792176225398
9.94059405940594,0.8299670645856768
9.96039603960396,0.8261296976656961
9.98019801980198,0.8248142073709589
10.0,0.8260353773399776
10.01980198019802,0.8297749827723356
10.03960396039604,0.835982618650649
10.05940594059406,0.8445779667453247
10.07920792079208,0.8554542577180626
10.099009900990099,0.8684825782456892
10.118811881188119,0.883516627991456
10.138613861386139,0.900397546519824
10.158415841584159,0.9189584920005786
10.178217821782178,0.9390287413589401
10.198019801980198,0.9604371751401881
10.217821782178218,0.9830150943310987
10.237623762376238,1.0065983819099054
10.257425742574258,1.0310290662914805
10.277227722772277,1.056156368736398
10.297029702970297,1.0818373261575218
10.316831683168317,1.1079370792015668
10.336633663366337,1.1343289072424914
10.356435643564357,1.1608940803509233
10.376237623762377,1.1875215857651584
10.396039603960396,1.2141077743715167
10.415841584158416,1.24055596201252
10.435643564356436,1.2667760114136768
10.455445544554454,1.2926839131892591
10.475247524752476,1.318201378620259
10.495049504950495,1.3432554524834452
10.514851485148514,1.3677781509153846
10.534653465346535,1.391706126896822
10.554455445544555,1.4149803642431151
10.574257425742573,1.4375458998204953
10.594059405940595,1.459351572940013
10.613861386138614,1.4803498004064075
10.633663366336632,1.5004963754342104
10.653465346534654,1.5197502885275642
10.673267326732674,1.5380735684055349
