Frequency (Hz),Amplitude
0.0,3.9033872397081257
0.01993355481727575,3.9185542088926755
0.0398671096345515,3.9636479986476494
0.059800664451827246,4.0374927482403224
0.079734219269103,4.13826867772203
0.09966777408637874,4.263686380850353
0.11960132890365449,4.41117453419182
0.13953488372093023,4.578050690882944
0.159468438538206,4.761657037791429
0.17940199335548174,4.959455441720013
0.19933554817275748,5.169084976161935
0.21926910299003324,5.3883895600413485
0.23920265780730898,5.615424332353513
0.25913621262458475,5.848448409110265
0.27906976744186046,6.085909931320061
0.29900332225913623,6.326427544689129
0.318936877076412,6.568770982141282
0.3388704318936877,6.811842331218759
0.3588039867109635,7.054658823368073
0.37873754152823924,7.2963375046074574
0.39867109634551495,7.536081859892959
0.4186046511627907,7.773170303467617
0.4385382059800665,8.006946368148615
0.4584717607973422,8.23681039597092
0.47840531561461797,8.462212529970854
0.49833887043189373,8.682646819020025
0.5182724252491695,8.897646266551837
0.5382059800664452,9.10677867513834
0.5581395348837209,9.309643159639863
0.5780730897009968,9.505867220789836
0.5980066445182725,9.695104288061884
0.6179401993355482,9.877031655377904
0.637873754152824,10.051348745760473
0.6578073089700996,10.217775651616648
0.6777408637873754,10.376051906207408
0.6976744186046512,10.525935449254655
0.717607973421927,10.667201755790732
0.7375415282392027,10.799643102470323
0.7574750830564785,10.923067949813149
0.7774086378737541,11.037300422379948
0.7973421926910299,11.142179871827647
0.8172757475083057,11.237560510247151
0.8372093023255814,11.323311103245647
0.8571428571428572,11.399314713966506
0.877076411960133,11.465468490702229
0.8970099667774087,11.521683492000323
0.9169435215946844,11.567884544226333
0.9368770764119602,11.604010127470115
0.9568106312292359,11.63001228648575
0.9767441860465116,11.645856564069195
0.9966777408637875,11.651521954920065
1.0166112956810631,11.647000878623317
1.036544850498339,11.632299170940419
1.0564784053156147,11.607436093130431
1.0764119601328903,11.572444359546258
1.0963455149501662,11.527370184281645
1.1162790697674418,11.472273348195861
1.1362126245847177,11.407227288229741
1.1561461794019936,11.332319211564833
1.176079734219269,11.247650237885443
1.196013289036545,11.15333557380103
1.2159468438538206,11.049504724398885
1.2358803986710964,10.936301747950473
1.255813953488372,10.813885561025653
1.275747508305648,10.682430302713934
1.2956810631229239,10.542125768362379
1.3156146179401993,10.393177925272168
1.3355481727574752,10.235809525221725
1.3554817275747508,10.070260831588275
1.3754152823920267,9.896790482325837
1.3953488372093024,9.715676514247418
1.4152823920265782,9.527217579101501
1.435215946843854,9.331734387998631
1.4551495016611296,9.129571428034572
1.4750830564784054,8.921099003696163
1.495016611295681,8.706715666067788
1.514950166112957,8.486851105223586
1.5348837209302328,8.261969595702565
1.5548172757475083,8.032574101730235
1.5747508305647842,7.799211167773686
1.5946843853820598,7.562476740596935
1.6146179401993357,7.323023090011178
1.6345514950166113,7.081567014560848
1.6544850498338872,6.838899531018178
1.6744186046511629,6.595897245116468
1.6943521594684385,6.353535572770773
1.7142857142857144,6.1129039059416845
1.73421926910299,5.875222664409814
1.754152823920266,5.641861898968382
1.7740863787375416,5.414360651287802
1.7940199335548175,5.194445554991163
1.8139534883720931,4.98404610459322
1.8338870431893688,4.785302583059777
1.8538205980066447,4.600560894825616
1.8737541528239203,4.432346803571496
1.893687707641196,4.283311014691398
1.9136212624584719,4.156137339472177
1.9335548172757475,4.053410295692287
1.9534883720930232,3.977446984130211
1.9734219269102993,3.930110276997589
1.993355481727575,3.9126327090520596
2.0132890365448506,3.9254868765801962
2.0332225913621262,3.968333016010446
2.0531561461794023,4.040057114738123
2.073089700996678,4.138889776545273
2.0930232558139537,4.262577219528002
2.1129568106312293,4.408568556428249
2.132890365448505,4.574188367688931
2.1528239202657806,4.756775423938351
2.1727574750830567,4.9537809549172875
2.1926910299003324,5.162829048502437
2.212624584717608,5.381746537226161
2.2325581395348837,5.608570960544213
2.25249169435216,5.841544340294284
2.2724252491694354,6.079098812488574
2.292358803986711,6.319838386613037
2.312292358803987,6.562519610121234
2.332225913621263,6.8060327988543285
2.352159468438538,7.049384724453587
2.3720930232558137,7.291683153311632
2.39202657807309,7.532123330867598
2.4119601328903655,7.769976335874109
2.431893687707641,8.004579144043474
2.4518272425249172,8.235326206306127
2.471760797342193,8.461662342135227
2.4916943521594686,8.683076759330582
2.511627906976744,8.899098029990956
2.5315614617940203,9.109289873278012
2.551495016611296,9.313247616301005
2.5714285714285716,9.510595223661525
2.5913621262458477,9.700982803303985
2.611295681063123,9.884084511170899
2.6312292358803986,10.059596789847543
2.6511627906976742,10.227236887097051
2.6710963455149503,10.38674160917282
2.691029900332226,10.537866271296476
2.7109634551495017,10.68038381393249
2.7308970099667778,10.814084058680903
2.7508305647840534,10.938773081922605
2.770764119601329,11.054272687939374
2.7906976744186047,11.160419966219044
2.810631229235881,11.257066920151345
2.8305647840531565,11.344080156409573
2.850498338870432,11.421340626070322
2.870431893687708,11.488743410007533
2.8903654485049834,11.546197542359325
2.910299003322259,11.593625866945464
2.9302325581395348,11.630964922447427
2.950166112956811,11.658164852977478
2.9700996677740865,11.67518934138535
2.990033222591362,11.68201556330015
3.0099667774086383,11.678634160500337
3.029900332225914,11.665049232762081
3.0498338870431896,11.641278347871475
3.0697674418604657,11.607352570012226
3.089700996677741,11.563316507273024
3.1096345514950166,11.509228379569954
3.129568106312292,11.445160108866371
3.1495016611295683,11.371197434208355
3.169435215946844,11.287440054800182
3.1893687707641196,11.194001805137363
3.2093023255813957,11.091010867121822
3.2292358803986714,10.978610025130529
3.249169435215947,10.856956971228866
3.2691029900332227,10.726224669153456
3.289036544850499,10.58660178738312
3.3089700996677744,10.438293213628167
3.32890365448505,10.281520665468408
3.3488372093023258,10.116523414740584
3.3687707641196014,9.943559146720034
3.388704318936877,9.762904979277248
3.4086378737541527,9.57485867216491
3.428571428571429,9.379740062570919
3.4485049833887045,9.177892770255598
3.46843853820598,8.969686224196014
3.4883720930232562,8.75551807292312
3.508305647840532,8.535817052896695
3.5282392026578075,8.311046403521082
3.548172757475083,8.081707933867504
3.5681063122923593,7.848346864740371
3.588039867109635,7.611557589915978
3.60797342192691,7.371990521016119
3.6279069767441863,7.130360199196374
3.647840531561462,6.887454869326769
3.6677740863787376,6.644147711201434
3.6877076411960132,6.401409895275578
3.7076411960132893,6.160325557987502
3.727574750830565,5.922108644034893
3.7475083056478407,5.688121296473142
3.7674418604651168,5.459893030568062
3.787375415282392,5.239139230214304
3.807308970099668,5.027776481209688
3.8272425249169437,4.827930861511447
3.8471760797342194,4.641933606429328
3.867109634551495,4.472296839900555
3.887043189368771,4.321660964884862
3.9069767441860463,4.192705953060946
3.9269102990033224,4.088022591268124
3.9468438538205985,4.009947804447218
3.9667774086378738,3.960379984907802
3.98671096345515,3.9406025445395114
4.0066445182724255,3.951150823201551
4.026578073089701,3.991753382523339
4.046511627906977,4.061362488627222
4.0664451827242525,4.158265983205779
4.086378737541528,4.280253547985316
4.106312292358805,4.424802175571794
4.1262458471760795,4.589249524779283
4.146179401993356,4.77093510491167
4.166112956810632,4.967301693324613
4.186046511627907,5.175958817463271
4.205980066445183,5.394715238179004
4.225913621262459,5.621588878004293
4.245847176079734,5.854801958947267
4.26578073089701,6.092767499381091
4.2857142857142865,6.334071566576134
4.305647840531561,6.577454175908527
4.325581395348838,6.821790587455255
4.345514950166113,7.066073956877308
4.365448504983389,7.309399780535423
4.385382059800665,7.550952258442379
4.40531561461794,7.7899925183280265
4.425249169435216,8.02584855126996
4.445182724252492,8.257906670179281
4.465116279069767,8.485604294491825
4.485049833887043,8.708423873428677
4.50498338870432,8.925887777406697
4.524916943521594,9.137554007449518
4.544850498338871,9.343012592889773
4.5647840531561465,9.541882566768331
4.584717607973422,9.733809425457434
4.604651162790698,9.918462993960523
4.624584717607974,10.095535631127072
4.644518272425249,10.264740719845529
4.664451827242526,10.425811396370095
4.6843853820598005,10.578499480537593
4.704318936877076,10.722574574963124
4.724252491694353,10.857823306572522
4.7441860465116275,10.984048688211185
4.764119601328904,11.101069581715674
4.78405315614618,11.208720246873213
4.803986710963455,11.306849963232377
4.823920265780731,11.395322713854334
4.8438538205980075,11.474016921881772
4.863787375415282,11.542825232313303
4.883720930232559,11.601654332654668
4.9036544850498345,11.650424807217119
4.92358803986711,11.689071020782272
4.943521594684386,11.717541028181428
4.963455149501661,11.73579650707033
4.983388704318937,11.74381271183924
5.003322259136213,11.741578447201418
5.023255813953488,11.729096060567555
5.043189368770764,11.706381452854282
5.063122923588041,11.673464107906312
5.083056478405315,11.63038714124736
5.102990033222592,11.577207369430143
5.122923588039868,11.513995401843685
5.142857142857143,11.440835757474451
5.162790697674419,11.35782700982312
5.182724252491695,11.265081963972099
5.20265780730897,11.162727870703295
5.222591362126246,11.050906683608714
5.242524916943522,10.92977536635129
5.262458471760797,10.799506258658123
5.282392026578074,10.660287511311354
5.3023255813953485,10.512323602398293
5.322259136212625,10.355835949461461
5.342192691029901,10.191063635032807
5.362126245847176,10.018264266443268
5.382059800664452,9.837714994887405
5.4019933554817285,9.649713723633665
5.421926910299003,9.454580541168186
5.44186046511628,9.252659422134013
5.4617940199335555,9.044320247390077
5.48172757475083,8.829961204593664
5.501661129568107,8.610011642631656
5.5215946843853825,8.384935467179893
5.541528239202658,8.155235180748843
5.561461794019934,7.921456688666597
5.5813953488372094,7.6841950120607265
5.601328903654485,7.444101068854803
5.621262458471762,7.2018897017653245
5.641196013289036,6.958349144051111
5.661129568106313,6.71435211208922
5.681063122923589,6.4708686868147955
5.700996677740864,6.228981074776688
5.72093023255814,5.989900195214297
5.740863787375416,5.754983780218159
5.760797342192691,5.525755243445892
5.780730897009967,5.303921898321329
5.800664451827243,5.091390117000551
5.820598006644518,4.890273675570107
5.840531561461795,4.702889885768328
5.8604651162790695,4.531736434825252
5.880398671096346,4.379440758319103
5.900332225913622,4.248674313461558
5.920265780730897,4.142027665607077
5.940199335548173,4.061849915757004
5.960132890365449,4.010067307397311
5.980066445182724,3.9880078732324042
6.0,3.996266200124489
6.0199335548172765,4.034639245043566
6.039867109634551,4.102149154261747
6.059800664451828,4.197147281685181
6.0797342192691035,4.317474365684648
6.099667774086379,4.460642790670615
6.119601328903655,4.624009638435711
6.139534883720931,4.804919719002308
6.159468438538206,5.000809965530693
6.179401993355482,5.20927614444197
6.1993355481727574,5.428108251096913
6.219269102990033,5.655302773598171
6.23920265780731,5.889059543037388
6.259136212624584,6.127769390378858
6.279069767441861,6.369997121537065
6.299003322259137,6.614462818829822
6.318936877076412,6.860023319472709
6.338870431893688,7.105654905272843
6.3588039867109645,7.3504376993676
6.378737541528239,7.593541932090586
6.398671096345516,7.834216044610462
6.418604651162791,8.071776496820172
6.438538205980066,8.30559910038871
6.458471760797343,8.535111685706402
6.4784053156146175,8.75978791774265
6.498338870431894,8.979142091360153
6.51827242524917,9.192724755891932
6.538205980066445,9.400119038664688
6.558139534883721,9.600937555984752
6.578073089700998,9.794819817114
6.598006644518272,9.981430041681591
6.617940199335549,10.160455323812855
6.6378737541528245,10.331604087159103
6.6578073089701,10.494604784196463
6.677740863787376,10.64920480085299
6.6976744186046515,10.795169533944122
6.717607973421927,10.932281614246076
6.737541528239203,11.060340252491335
6.7574750830564785,11.179160689280073
6.777408637873754,11.28857373299685
6.797342192691031,11.388425372408067
6.8172757475083055,11.478576452782953
6.837209302325582,11.558902406205473
6.857142857142858,11.629293028285101
6.877076411960133,11.689652294784691
6.897009966777409,11.739898212805194
6.9169435215946855,11.779962702135524
6.93687707641196,11.809791503220978
6.956810631229236,11.82934410895132
6.9767441860465125,11.838593718140645
6.996677740863787,11.837527209185566
7.016611295681064,11.826145132961834
7.036544850498339,11.804461724568355
7.056478405315615,11.772504934066319
7.076411960132891,11.730316476903008
7.096345514950166,11.677951905270211
7.116279069767442,11.61548070224039
7.136212624584719,11.542986401165452
7.156146179401993,11.460566733531838
7.17607973421927,11.36833380926126
7.196013289036546,11.266414334352104
7.21594684385382,11.154949871799598
7.235880398671097,11.03409715294656
7.2558139534883725,10.904028447837423
7.275747508305648,10.764932004825047
7.295681063122924,10.617012571666214
7.3156146179402,10.46049201270603
7.335548172757475,10.295610039573019
7.355481727574752,10.122625076183146
7.3754152823920265,9.941815282897062
7.395348837209303,9.753479769526471
7.415282392026579,9.55794003270248
7.435215946843854,9.355541660082793
7.45514950166113,9.146656352189234
7.475083056478406,8.931684322547033
7.495016611295681,8.711057148453174
7.514950166112956,8.485241158302616
7.5348837209302335,8.254741457017365
7.554817275747508,8.020106708616535
7.574750830564784,7.781934813810058
7.5946843853820605,7.540879639500666
7.614617940199336,7.297658973903761
7.634551495016611,7.053063891462508
7.6544850498338874,6.807969708730463
7.674418604651163,6.56334868428501
7.694352159468439,6.3202845441992626
7.714285714285715,6.079988771850786
7.73421926910299,5.84381834667594
7.754152823920266,5.613294196325179
7.774086378737542,5.390118973595621
7.794019933554818,5.176191815802851
7.813953488372093,4.973616452261734
7.83388704318937,4.784697450452105
7.853820598006645,4.611917784909356
7.8737541528239205,4.457889853854565
7.893687707641197,4.325272549569551
7.913621262458472,4.21665029419091
7.9335548172757475,4.13437710926619
7.953488372093024,4.080399509310674
7.9734219269103,4.056083593510748
7.9933554817275745,4.062079028982618
8.013289036544851,4.098250327004713
8.033222591362128,4.163692173057358
8.053156146179402,4.256824942678846
8.073089700996679,4.375547568444439
8.093023255813954,4.517415216669683
8.11295681063123,4.679810884296282
8.132890365448505,4.860089554238632
8.152823920265782,5.055685290180379
8.172757475083056,5.264181239684884
8.192691029900331,5.483348210513361
8.21262458471761,5.711159620407373
8.232558139534884,5.94579041014195
8.252491694352159,6.185606166261553
8.272425249169435,6.4291470633361305
8.292358803986712,6.675109750914499
8.312292358803987,6.922329143716505
8.332225913621263,7.169761237091269
8.352159468438538,7.416467509901478
8.372093023255815,7.661601124333487
8.392026578073091,7.904394923761866
8.411960132890366,8.144151116552592
8.43189368770764,8.380232480267328
8.451827242524917,8.612054903162425
8.471760797342194,8.839081082577591
8.491694352159469,9.06081521301242
8.511627906976745,9.276798514496061
8.53156146179402,9.486605470855158
8.551495016611296,9.68984066582101
8.571428571428573,9.886136121672898
8.591362126245848,10.075149059930231
8.611295681063122,10.256560016429567
8.6312292358804,10.43007125406698
8.651162790697676,10.595405425737214
8.67109634551495,10.75230444777433
8.691029900332227,10.900528550701551
8.710963455149502,11.039855479528386
8.730897009966778,11.170079820362183
8.750830564784053,11.291012433879311
8.77076411960133,11.40247997935698
8.790697674418604,11.50432451560609
8.81063122923588,11.596403167360421
8.830564784053157,11.678587847541884
8.850498338870432,11.750765027398133
8.870431893687707,11.812835547849751
8.890365448504983,11.864714466532437
8.91029900332226,11.90633093601094
8.930232558139535,11.937628109507319
8.950166112956811,11.958563071250987
8.970099667774086,11.969106789244597
8.990033222591363,11.96924408886795
9.00996677740864,11.958973646327554
9.029900332225914,11.938308001519701
9.049833887043189,11.907273590422552
9.069767441860467,11.865910797684508
9.089700996677742,11.814274030643825
9.109634551495017,11.752431816615474
9.129568106312293,11.680466925929835
9.14950166112957,11.598476523922837
9.169435215946844,11.506572355878411
9.189368770764121,11.404880969834835
9.209302325581396,11.29354398321365
9.22923588039867,11.172718400446099
9.249169435215949,11.042576990193881
9.269102990033224,10.903308732436997
9.289036544850498,10.755119347682607
9.308970099667773,10.598231922903851
9.328903654485051,10.432887651623568
9.348837209302326,10.259346708909224
9.368770764119601,10.077889286053809
9.388704318936878,9.888816814514248
9.408637873754152,9.692453414417443
9.428571428571429,9.489147609796875
9.448504983388705,9.279274360881953
9.46843853820598,9.063237473427552
9.488372093023255,8.841472456431921
9.508305647840533,8.614449912791741
9.528239202657808,8.382679562518625
9.548172757475083,8.146715014914598
9.56810631229236,7.90715942400401
9.588039867109636,7.664672179303815
9.60797342192691,7.41997679931432
9.627906976744187,7.1738702037443005
9.647840531561462,6.927233535408005
9.667774086378738,6.68104467255095
9.687707641196015,6.436392499276908
9.70764119601329,6.194492858998163
9.727574750830565,5.956705865027281
9.747508305647841,5.724553831975398
9.767441860465118,5.4997384589608025
9.787375415282392,5.284154978654669
9.807308970099669,5.079899752603835
9.827242524916944,4.889266299312482
9.84717607973422,4.714723227693832
9.867109634551497,4.558866558598283
9.887043189368772,4.424339375438981
9.906976744186046,4.313714843538329
9.926910299003321,4.229345336096192
9.9468438538206,4.173190472585046
9.966777408637874,4.146647876233135
9.986710963455149,4.150417692075594
10.006644518272426,4.184430341221928
10.026578073089702,4.247854725335288
10.046511627906977,4.3391848183313
10.066445182724253,4.456384181944439
10.086378737541528,4.597057761913369
10.106312292358805,4.758620858848244
10.126245847176081,4.938443601264871
10.146179401993356,5.133960360105907
10.16611295681063,5.342743021888215
10.186046511627907,5.562542955109173
10.205980066445184,5.791308966683678
10.225913621262459,6.027188620501999
10.245847176079735,6.268519137985372
10.26578073089701,6.513812565056849
10.285714285714286,6.7617384427931215
10.305647840531563,7.011106053340429
10.325581395348838,7.2608474602989
10.345514950166113,7.510001982060077
10.36544850498339,7.757702364045112
10.385382059800666,8.003162690881233
10.40531561461794,8.245667953572267
10.425249169435217,8.484565123969963
10.445182724252492,8.719255564703998
10.465116279069768,8.94918860092145
10.485049833887045,9.173856090382458
10.50498338870432,9.392787844312632
10.524916943521594,9.605547769182593
10.544850498338871,9.811730617176813
10.564784053156147,10.010959249446614
10.584717607973422,10.202882330841607
10.604651162790697,10.387172387551233
10.624584717607974,10.563524170026016
10.64451827242525,10.73165327283901
10.664451827242525,10.89129497098511
10.684385382059801,11.042203238694437
10.704318936877076,11.184149922344396
10.724252491694353,11.316924043659622
10.74418604651163,11.440331213238542
10.764119601328904,11.554193137665282
10.784053156146179,11.658347206164011
10.803986710963457,11.752646145018858
10.823920265780732,11.8369577298931
10.843853820598007,11.91116454779795
10.863787375415283,11.975163801837367
