Time (s),Filtered Signal
0.0,0.04492735441933539
0.03337028824833703,-0.4618257653212166
0.06674057649667406,-0.8740268489040446
0.10011086474501109,-1.1240699391470321
0.13348115299334812,-1.1922083171559221
0.16685144124168516,-1.1116236816344238
0.20022172949002218,-0.9561620243585821
0.2335920177383592,-0.8137644032487391
0.26696230598669624,-0.7541510150262278
0.3003325942350333,-0.802501982990405
0.3337028824833703,-0.9296948074895998
0.3670731707317073,-1.063771494172095
0.40044345898004435,-1.1187466824645296
0.4338137472283814,-1.029375230723409
0.4671840354767184,-0.7777192311793277
0.5005543237250555,-0.4008172642019205
0.5339246119733925,0.023101036057379308
0.5672949002217295,0.4034568465070138
0.6006651884700666,0.6691015792584228
0.6340354767184035,0.7906040823793109
0.6674057649667406,0.7852507859503142
0.7007760532150776,0.704160832175507
0.7341463414634146,0.6077594690921688
0.7675166297117517,0.5399976689956381
0.8008869179600887,0.5118791062567972
0.8342572062084257,0.5009672731588899
0.8676274944567628,0.4667777748882158
0.9009977827050998,0.3747757317628167
0.9343680709534368,0.21730721530147715
0.9677383592017739,0.0207737143846639
1.001108647450111,-0.16507359675895758
1.0344789356984478,-0.2906058743105558
1.067849223946785,-0.3304023399975273
1.101219512195122,-0.2950392570286338
1.134589800443459,-0.22395209925296009
1.167960088691796,-0.16287272122612154
1.2013303769401331,-0.13788910155511452
1.23470066518847,-0.14040417752625792
1.268070953436807,-0.13173976290606712
1.3014412416851442,-0.06557406423131303
1.3348115299334813,0.0835698852407964
1.3681818181818182,0.301397401928173
1.4015521064301553,0.5354047029925929
1.4349223946784924,0.7169886950906332
1.4682926829268292,0.7929908057051928
1.5016629711751663,0.7502352905593075
1.5350332594235034,0.6200719028108351
1.5684035476718403,0.46031394928062863
1.6017738359201774,0.32380957784537434
1.6351441241685145,0.23008430364012178
1.6685144124168514,0.15534419995056006
1.7018847006651885,0.04704774384725244
1.7352549889135256,-0.14343172369730076
1.7686252771618625,-0.42652239398247876
1.8019955654101996,-0.7570189939020079
1.8353658536585367,-1.044466058979257
1.8687361419068735,-1.1887064778067205
1.9021064301552106,-1.1249746475703835
1.9354767184035477,-0.8572901383528877
1.9688470066518848,-0.46366649356767237
2.002217294900222,-0.06955072210177955
2.035587583148559,0.19940579664680216
2.0689578713968957,0.2648573526911297
2.102328159645233,0.12358481737162648
2.13569844789357,-0.15490745422306942
2.1690687361419068,-0.4581285234268454
2.202439024390244,-0.6737989153999113
2.235809312638581,-0.7286188601924833
2.269179600886918,-0.6084707731502099
2.302549889135255,-0.3548521928741856
2.335920177383592,-0.04214994870757815
2.369290465631929,0.2529325418227524
2.4026607538802662,0.47711032239080514
2.436031042128603,0.6125326856758535
2.46940133037694,0.673004442981193
2.5027716186252773,0.689013965433961
2.536141906873614,0.6899662643373192
2.569512195121951,0.6916867379313051
2.6028824833702884,0.6934766122796796
2.6362527716186253,0.6839160433070296
2.6696230598669626,0.6507358606797206
2.7029933481152995,0.5890596401183823
2.7363636363636363,0.5042064305720865
2.7697339246119737,0.4086312273024865
2.8031042128603105,0.31550548604658946
2.8364745011086474,0.2325390907782639
2.8698447893569847,0.15880268755033147
2.9032150776053216,0.0854494701231765
2.9365853658536585,-0.00047180922621528935
2.969955654101996,-0.11078969495846265
3.0033259423503327,-0.2512826613134302
3.0366962305986696,-0.4183765485913308
3.070066518847007,-0.5983297218025391
3.1034368070953438,-0.7692735767183564
3.1368070953436806,-0.9057845707538902
3.170177383592018,-0.9847756282299541
3.203547671840355,-0.990816807396558
3.2369179600886917,-0.9191195890410973
3.270288248337029,-0.7755303622324932
3.303658536585366,-0.574374392442972
3.337028824833703,-0.3358147971177864
3.37039911308204,-0.08389249588316967
3.403769401330377,0.15501024764344282
3.437139689578714,0.35465017646221464
3.470509977827051,0.49339307821253137
3.503880266075388,0.5599457340221582
3.537250554323725,0.55766431598362
3.5706208425720622,0.5043203666912632
3.603991130820399,0.42611365014296265
3.637361419068736,0.3480760475598974
3.6707317073170733,0.2856052811162322
3.70410199556541,0.2416625180413632
3.737472283813747,0.2108775878500129
3.7708425720620844,0.1873869805396952
3.8042128603104213,0.17072305682428782
3.8375831485587586,0.16543788804208948
3.8709534368070955,0.17466973746672854
3.9043237250554323,0.19247204020992145
3.9376940133037697,0.2011210094217041
3.9710643015521065,0.1766580906662508
4.004434589800444,0.10049041446345762
4.037804878048781,-0.029416692822707244
4.071175166297118,-0.1944920356792961
4.1045454545454545,-0.3614260508340904
4.137915742793791,-0.49503372429309944
4.171286031042128,-0.5713177164496173
4.204656319290466,-0.5841595659102785
4.238026607538803,-0.5430548853775133
4.27139689578714,-0.4644540720589033
4.304767184035477,-0.3624303330648169
4.3381374722838135,-0.2438759243004639
4.371507760532151,-0.10993716921002894
4.404878048780488,0.03858189419138471
4.438248337028825,0.19608331790799494
4.471618625277162,0.35057861698776926
4.504988913525499,0.48610169183211893
4.538359201773836,0.5870911118700861
4.571729490022173,0.6420757289468979
4.60509977827051,0.6452744343816753
4.638470066518847,0.5965461747831499
4.671840354767184,0.5009768875428056
4.705210643015521,0.3687986417217172
4.738580931263858,0.21515359884206878
4.771951219512196,0.05871523063679004
4.8053215077605325,-0.08116744234513204
4.838691796008869,-0.18805104368057207
4.872062084257206,-0.251523076059838
4.905432372505543,-0.26920694853143673
4.93880266075388,-0.2476856771441915
4.972172949002218,-0.2023762575239799
5.005543237250555,-0.15570716335050747
5.0389135254988915,-0.13261817886830413
5.072283813747228,-0.15336805007370669
5.105654101995565,-0.2256878104872153
5.139024390243902,-0.3399970749749651
5.17239467849224,-0.471068111369132
5.205764966740577,-0.5867181390241996
5.239135254988914,-0.6601476905986765
5.2725055432372505,-0.6798611235161212
5.305875831485587,-0.6517372682532081
5.339246119733925,-0.5919107491696002
5.372616407982262,-0.5145193771097403
5.405986696230599,-0.42173405775123535
5.439356984478936,-0.3024497848212944
5.472727272727273,-0.14091444885675347
5.5060975609756095,0.06960373490895394
5.539467849223947,0.31649604825734223
5.572838137472284,0.5678486750958861
5.606208425720621,0.7842604420429998
5.639578713968958,0.9370972102536504
5.672949002217295,1.0235478403544351
5.706319290465632,1.0694748230538391
5.7396895787139695,1.1165783375706864
5.773059866962306,1.198317297234277
5.806430155210643,1.3155290108922946
5.83980044345898,1.424393462301052
5.873170731707317,1.4450051918573772
5.906541019955654,1.289870829613293
5.939911308203992,0.9020217804093195
5.9732815964523285,0.28673874735658295
6.006651884700665,-0.477740843598698
6.040022172949002,-1.2568944700263756
6.073392461197339,-1.8988670409852464
6.106762749445676,-2.281328506193448
6.140133037694014,-2.3488803461926056
6.173503325942351,-2.1277538783051497
6.2068736141906875,-1.713290530369578
6.240243902439024,-1.2352997892371431
6.273614190687361,-0.813638193878799
6.306984478935698,-0.5193950358327611
6.340354767184036,-0.35525188202816943
6.373725055432373,-0.2622229363324866
6.40709534368071,-0.1505882418243755
6.4404656319290465,0.056698650391112715
6.473835920177383,0.3857475106506129
6.507206208425721,0.7953330804799433
6.540576496674058,1.190633048059207
6.573946784922395,1.4621781711759834
6.607317073170732,1.5329647712766286
6.640687361419069,1.3919427613377404
6.674057649667406,1.0980148339160265
6.707427937915743,0.7529742047733806
6.74079822616408,0.4571815835703286
6.774168514412417,0.26987437253924285
6.807538802660754,0.1924236813079136
6.840909090909091,0.17995165777023053
6.874279379157428,0.17205367753718034
6.9076496674057655,0.12498221117429952
6.941019955654102,0.029370100749844842
6.974390243902439,-0.09272526873462507
7.007760532150776,-0.20616942557445547
7.041130820399113,-0.28421043711291527
7.07450110864745,-0.3213043526086312
7.107871396895788,-0.332177558565922
7.1412416851441245,-0.3402388307010068
7.174611973392461,-0.363687230972651
7.207982261640798,-0.40756445033562827
7.241352549889135,-0.46539139244887
7.274722838137472,-0.527938706430407
7.30809312638581,-0.5925145742475123
7.341463414634147,-0.666013027556242
7.3748337028824835,-0.7587952734031863
7.40820399113082,-0.8722005505878243
7.441574279379157,-0.9870094443037644
7.474944567627494,-1.0608792325468703
7.508314855875832,-1.038851103545813
7.541685144124169,-0.8741831303265285
7.575055432372506,-0.5505392702699349
7.6084257206208425,-0.09456902605198785
7.641796008869179,0.42830259990181707
7.675166297117517,0.9341043632406445
7.708536585365854,1.347764522584372
7.741906873614191,1.6252204901576024
7.775277161862528,1.7603671079444392
7.808647450110865,1.7749180972086827
7.842017738359202,1.6981101158670284
7.875388026607539,1.548152759275447
7.908758314855876,1.3257185960566515
7.942128603104213,1.0225567268077695
7.97549889135255,0.639551705889099
8.008869179600888,0.20301253737184355
8.042239467849225,-0.2314375181821335
8.075609756097561,-0.5916828504657587
8.108980044345898,-0.8142190207157032
8.142350332594235,-0.8703678038900111
8.175720620842572,-0.7810505955610147
8.209090909090909,-0.6122662543597152
8.242461197339246,-0.45202081295520513
8.275831485587583,-0.37791757674793286
8.30920177383592,-0.42892195866713106
8.342572062084257,-0.592904273279361
8.375942350332595,-0.8143879680739017
8.409312638580932,-1.018032255420263
8.442682926829269,-1.1370641691561119
8.476053215077606,-1.134941053894759
8.509423503325943,-1.0128656399088556
8.54279379157428,-0.802704074572411
8.576164079822616,-0.5508051551590376
8.609534368070953,-0.30068306167698405
8.64290465631929,-0.08113590470564512
8.676274944567627,0.09735333023211276
8.709645232815964,0.2389478055329153
8.743015521064303,0.35493598331928194
8.77638580931264,0.45627826386327686
8.809756097560976,0.5491393969758585
8.843126385809313,0.6344601584393342
8.87649667405765,0.7105487362456291
8.909866962305987,0.776162273874716
8.943237250554324,0.8314118966291716
8.97660753880266,0.875392146049232
9.009977827050998,0.9020155589048902
9.043348115299334,0.8975262181607822
9.076718403547671,0.8430275027843708
9.110088691796008,0.7227422362786595
9.143458980044347,0.5348945137267906
9.176829268292684,0.2993050104213947
9.21019955654102,0.055997977882053046
9.243569844789358,-0.14713484809967078
9.276940133037694,-0.27372820544491056
9.310310421286031,-0.31659144478700507
9.343680709534368,-0.3039386960668217
9.377050997782705,-0.2890262079681128
9.410421286031042,-0.3261773752009319
9.443791574279379,-0.44380572710408084
9.477161862527716,-0.6277423604055595
9.510532150776053,-0.8239581533204198
9.543902439024391,-0.9604568307526173
9.577272727272728,-0.9784692424328192
9.610643015521065,-0.858226341758289
9.644013303769402,-0.6271620274012457
9.677383592017739,-0.34707751577586904
9.710753880266076,-0.08705598219865641
9.744124168514412,0.10451185047245383
9.77749445676275,0.21575518137778862
9.810864745011086,0.26875701358489423
9.844235033259423,0.30186266943617324
9.87760532150776,0.3473400662251282
9.910975609756099,0.41611439998133753
9.944345898004435,0.49625119345970037
9.977716186252772,0.5636639939850808
10.01108647450111,0.5969763001571928
10.044456762749446,0.5872250893870055
10.077827050997783,0.5375325223650315
10.11119733924612,0.4549396689162832
10.144567627494457,0.34174368846646436
10.177937915742794,0.19369713253455886
10.21130820399113,0.007399421924834253
10.244678492239467,-0.20760349722370997
10.278048780487804,-0.4207189952950404
10.311419068736143,-0.5837307077990265
10.34478935698448,-0.6470966706830011
10.378159645232817,-0.5827335564347501
10.411529933481154,-0.4020406311030763
10.44490022172949,-0.1588928878559423
10.478270509977827,0.06607894282667451
10.511640798226164,0.1946595544643239
10.545011086474501,0.181620736188596
10.578381374722838,0.03342029293673205
10.611751662971175,-0.19326887781124075
10.645121951219512,-0.4127048840078613
10.67849223946785,-0.5419680937205223
10.711862527716187,-0.5304766510907485
10.745232815964524,-0.3757632820466053
10.778603104212861,-0.12063458731205766
10.811973392461198,0.16529742444411288
10.845343680709535,0.4110709105969641
10.878713968957872,0.5668086577707523
10.912084257206208,0.6158343624964919
10.945454545454545,0.5740605969972365
10.978824833702882,0.47898890067785777
11.012195121951219,0.3736611003208215
11.045565410199556,0.2916120842260782
11.078935698447895,0.24759800734757206
11.112305986696231,0.2363248297696915
11.145676274944568,0.23844366695027722
11.179046563192905,0.23061753625314163
11.212416851441242,0.19531209867349378
11.245787139689579,0.1265645054244832
11.279157427937916,0.030102473911160915
11.312527716186253,-0.08115876583393208
11.34589800443459,-0.19333360677581135
11.379268292682926,-0.29638308775277217
11.412638580931263,-0.38579473497578437
11.4460088691796,-0.46134143158590796
11.479379157427939,-0.5244463620583745
11.512749445676276,-0.575733200796054
11.546119733924613,-0.613464839524671
11.57949002217295,-0.6327045521720297
11.612860310421286,-0.6249373995489648
11.646230598669623,-0.5785419853054978
11.67960088691796,-0.4811054594706632
11.712971175166297,-0.32422369219085256
11.746341463414634,-0.10991446315536847
11.77971175166297,0.14409876506756697
11.813082039911308,0.4038008976817991
11.846452328159646,0.6252943895093312
11.879822616407983,0.767303708503976
11.91319290465632,0.8053132815115458
11.946563192904657,0.7410944041534828
11.979933481152994,0.6027495763504825
12.01330376940133,0.4345517980568696
12.046674057649668,0.2807209665977251
12.080044345898004,0.17024475732786087
12.113414634146341,0.10925617477349536
12.146784922394678,0.08362060537410775
12.180155210643015,0.06939336983871496
12.213525498891352,0.04540719729284541
12.24689578713969,0.0021102463739717803
12.280266075388028,-0.05643820181492859
12.313636363636364,-0.11675918352129376
12.347006651884701,-0.16315026764376842
12.380376940133038,-0.18442442156397865
12.413747228381375,-0.17814893423185763
12.447117516629712,-0.15200972133588028
12.480487804878049,-0.12265606600447933
12.513858093126386,-0.11209196958273429
12.547228381374723,-0.14135048955984492
12.58059866962306,-0.22192569919254457
12.613968957871396,-0.3473490832467167
12.647339246119735,-0.4890981441898513
12.680709534368072,-0.6008645057173191
12.714079822616409,-0.6321837390519942
12.747450110864746,-0.5476014143335193
12.780820399113082,-0.34358479066588715
12.81419068736142,-0.05494105255950973
12.847560975609756,0.25358563199740575
12.880931263858093,0.5082862178265678
12.91430155210643,0.6518588047374586
12.947671840354767,0.6628006456751664
12.981042128603104,0.5610086519879394
13.014412416851442,0.3977738403430283
13.04778270509978,0.23487856885865835
13.081152993348116,0.12163868786661379
13.114523281596453,0.0788920611321913
13.14789356984479,0.09542344415151091
13.181263858093127,0.1369450731091951
13.214634146341464,0.16286108123764062
13.2480044345898,0.1434800369567883
13.281374722838137,0.07085332235259786
13.314745011086474,-0.040431156639707415
13.348115299334811,-0.1617394912113365
13.381485587583148,-0.26352173778882815
13.414855875831487,-0.3267842314202134
13.448226164079824,-0.34799381690513304
13.48159645232816,-0.33627205577098557
13.514966740576497,-0.3058514546233964
13.548337028824834,-0.26883632844241867
13.581707317073171,-0.23211488884292023
13.615077605321508,-0.1987165585698849
13.648447893569845,-0.1705828657999517
13.681818181818182,-0.14909396287843113
13.715188470066519,-0.1322386076523691
13.748558758314855,-0.11102061580063677
13.781929046563192,-0.06950407051605348
13.815299334811531,0.008938517851337527
13.848669623059868,0.13110602541147176
13.882039911308205,0.2851232785851695
13.915410199556542,0.43966918198488886
13.948780487804878,0.5537473689554033
13.982150776053215,0.5933041149092549
14.015521064301552,0.5464295356858342
14.048891352549889,0.42896883372020916
14.082261640798226,0.2773637558011208
14.115631929046563,0.13256198281003023
14.1490022172949,0.023619027194278535
14.182372505543238,-0.04072969377759805
14.215742793791575,-0.0693794508010761
14.249113082039912,-0.0784624560382358
14.282483370288249,-0.08054575534199426
14.315853658536586,-0.07975900381526478
14.349223946784923,-0.07446707122930346
14.38259423503326,-0.0640004458288902
14.415964523281596,-0.0537730793381708
14.449334811529933,-0.05491626534358395
14.48270509977827,-0.07871531891885519
14.516075388026607,-0.12970963958793563
14.549445676274944,-0.202084724082104
14.582815964523283,-0.2817305489702063
14.61618625277162,-0.3527022955287726
14.649556541019956,-0.40409298969832025
14.682926829268293,-0.43312650270785313
14.71629711751663,-0.44271781292192464
14.749667405764967,-0.43538825014839405
14.783037694013304,-0.4080034338055664
14.81640798226164,-0.35153498232092717
14.849778270509978,-0.2568623704113684
14.883148558758315,-0.12343420707856186
14.916518847006651,0.03483993165113037
14.949889135254988,0.19102978893726616
14.983259423503327,0.31442091853291515
15.016629711751664,0.38333269314132423
15.05,0.39488431878605024
15.083370288248338,0.3663821613542466
15.116740576496674,0.3273041231293985
15.150110864745011,0.3057428760230085
15.183481152993348,0.3159709129675746
15.216851441241685,0.35305963067254276
15.250221729490022,0.39673203071662355
15.283592017738359,0.4219632044861869
15.316962305986696,0.4107567682952284
15.350332594235034,0.3595069636465587
15.383702882483371,0.2791200056968973
15.417073170731708,0.18885504895985206
15.450443458980045,0.10757476808956186
15.483813747228382,0.046585750932524726
15.517184035476719,0.006708539688946575
15.550554323725056,-0.02016823465405487
15.583924611973393,-0.04670957665990247
15.61729490022173,-0.08525437268617066
15.650665188470066,-0.1441533238281409
15.684035476718403,-0.22580710843857724
15.71740576496674,-0.3259364430770427
15.750776053215079,-0.4335973712971091
15.784146341463416,-0.5322231724216966
15.817516629711752,-0.6025817133016195
15.85088691796009,-0.6279910024449892
15.884257206208426,-0.6004256383373427
15.917627494456763,-0.5245505887490637
15.9509977827051,-0.4168677222105577
15.984368070953437,-0.2995347995819301
16.017738359201775,-0.1916532410080951
16.05110864745011,-0.10260761051035899
16.08447893569845,-0.03093002255384323
16.117849223946784,0.03122123868400241
16.151219512195123,0.09126580810076551
16.184589800443458,0.15152124713744092
16.217960088691797,0.20930820887504845
16.251330376940132,0.2611476637404281
16.28470066518847,0.30764733206761824
16.31807095343681,0.35528837594154433
16.351441241685144,0.4133588079785913
16.384811529933483,0.487368363409073
16.418181818181818,0.5725701069757675
16.451552106430157,0.6514858535234745
16.48492239467849,0.6975448432524879
16.51829268292683,0.6840562010248372
16.551662971175165,0.5951044213946184
16.585033259423504,0.4337395858236333
16.61840354767184,0.2235854020655278
16.651773835920178,0.0024922566829342356
16.685144124168513,-0.18982216705352514
16.71851441241685,-0.32545308698590764
16.75188470066519,-0.39771669197457277
16.785254988913525,-0.4222014910115587
16.818625277161864,-0.42876086801526414
16.8519955654102,-0.4475532403351045
16.885365853658538,-0.494820155171651
16.918736141906873,-0.5643804121011868
16.95210643015521,-0.6286970034303687
16.985476718403547,-0.6496080174995245
17.018847006651885,-0.5947602988710163
17.05221729490022,-0.453046202387401
17.08558758314856,-0.2422485431863598
17.118957871396898,-0.005033805194177513
17.152328159645233,0.20561592688582403
17.18569844789357,0.3456585355708372
17.219068736141907,0.39578197046398883
17.252439024390245,0.36702175151313143
17.28580931263858,0.2940456866513616
17.31917960088692,0.21942155277389744
17.352549889135254,0.1760064572013394
17.385920177383593,0.1750647787693355
