Frequency (Hz),Amplitude
0.0,2.6713369025426723
0.019867549668874173,2.670276710285397
0.039735099337748346,2.6670977742030217
0.059602649006622516,2.661805019568548
0.07947019867549669,2.6544066659169627
0.09933774834437085,2.644914243393582
0.11920529801324503,2.6333426161025395
0.13907284768211922,2.619710012926831
0.15894039735099338,2.604038066441441
0.17880794701986755,2.5863518607025435
0.1986754966887417,2.5666799888725955
0.2185430463576159,2.5450546218355896
0.23841059602649006,2.5215115891729285
0.2582781456953642,2.4960904741117678
0.27814569536423844,2.4688347243277717
0.2980132450331126,2.439791780787798
0.31788079470198677,2.409013227157575
0.33774834437086093,2.376554962680316
0.3576158940397351,2.3424774018545844
0.3774834437086093,2.306845704707561
0.3973509933774834,2.2697300419684536
0.4172185430463576,2.2312058999934403
0.4370860927152318,2.1913544308640382
0.45695364238410596,2.150262853654059
0.4768211920529801,2.1080249134005813
0.49668874172185434,2.0647414047635317
0.5165562913907285,2.020520767631214
0.5364238410596026,1.9754797618954152
0.5562913907284769,1.929744228093767
0.5761589403973509,1.8834499393329025
0.5960264900662252,1.8367435474938372
0.6158940397350993,1.7897836226763912
0.6357615894039735,1.7427417784917079
0.6556291390728477,1.695803866300345
0.6754966887417219,1.6491712077552094
0.695364238410596,1.6030618158219687
0.7152317880794702,1.5577115285427137
0.7350993377483444,1.5133749461244053
0.7549668874172186,1.4703260201034583
0.7748344370860927,1.4288580944550742
0.7947019867549668,1.389283146272675
0.8145695364238411,1.3519299257410426
0.8344370860927152,1.3171406646878934
0.8543046357615894,1.2852660292244882
0.8741721854304636,1.2566580588585923
0.8940397350993378,1.2316609859063103
0.9139072847682119,1.2106000793871912
0.9337748344370861,1.1937689981665784
0.9536423841059603,1.1814165241815426
0.9735099337748344,1.1737338932962316
0.9933774834437087,1.170844138007867
1.0132450331125828,1.1727948023771932
1.033112582781457,1.1795550421493537
1.0529801324503312,1.1910175308930695
1.0728476821192052,1.207004893515209
1.0927152317880795,1.2272797605501873
1.1125827814569538,1.251557131227187
1.1324503311258278,1.27951761944136
1.1523178807947019,1.3108203084886385
1.1721854304635762,1.3451142653193866
1.1920529801324504,1.3820481510052562
1.2119205298013245,1.4212777190143737
1.2317880794701985,1.462471263589405
1.2516556291390728,1.505313251790927
1.271523178807947,1.549506455350431
1.2913907284768211,1.5947729152401362
1.3112582781456954,1.640854047306768
1.3311258278145695,1.687510151813056
1.3509933774834437,1.7345195376459768
1.370860927152318,1.7816774220010505
1.390728476821192,1.8287947229365014
1.410596026490066,1.8756968268373067
1.4304635761589404,1.9222223853998615
1.4503311258278146,1.9682221762795011
1.4701986754966887,2.0135580467860406
1.4900662251655628,2.0581019497202613
1.5099337748344372,2.1017350735179616
1.5298013245033113,2.144347064406996
1.5496688741721854,2.1858353355760944
1.5695364238410596,2.2261044568690616
1.5894039735099337,2.265065617857544
1.609271523178808,2.302636157025107
1.6291390728476822,2.338739150015381
1.6490066225165563,2.3733030503154966
1.6688741721854303,2.4062613762721377
1.6887417218543048,2.4375524389058896
1.7086092715231789,2.467119105561688
1.728476821192053,2.494908594985092
1.7483443708609272,2.5208722999306366
1.7682119205298013,2.5449656338839732
1.7880794701986755,2.567147898911386
1.8079470198675496,2.587382172038325
1.8278145695364238,2.6056352079068508
1.847682119205298,2.6218773557718027
1.8675496688741722,2.636082489172287
1.8874172185430464,2.648227946862029
1.9072847682119205,2.6582944838027354
1.9271523178807946,2.666266231223776
1.9470198675496688,2.672130664931366
1.9668874172185429,2.675878581214917
1.9867549668874174,2.6775040798508236
2.0066225165562916,2.677004553846514
2.0264900662251657,2.674380685703475
2.0463576158940397,2.669636450110003
2.066225165562914,2.662779123104146
2.086092715231788,2.6538192978784605
2.1059602649006623,2.6427709075320385
2.1258278145695364,2.6296512552154327
2.1456953642384105,2.614481052262406
2.165562913907285,2.597284465062333
2.185430463576159,2.578089171600815
2.205298013245033,2.556926428788004
2.2251655629139075,2.533831151905956
2.2450331125827816,2.508842007743686
2.2649006622516556,2.482001523253662
2.2847682119205297,2.453356211860854
2.3046357615894038,2.4229567198893998
2.324503311258278,2.3908579959451255
2.3443708609271523,2.3571194865081866
2.364238410596027,2.3218053614499268
2.384105960264901,2.2849847736910913
2.403973509933775,2.246732157759715
2.423841059602649,2.2071275725758133
2.443708609271523,2.1662570943669106
2.463576158940397,2.1242132661697917
2.4834437086092715,2.0810956108482026
2.5033112582781456,2.037011214872145
2.52317880794702,1.992075390143239
2.543046357615894,1.9464124207371059
2.562913907284768,1.900156400320473
2.5827814569536423,1.8534521638382142
2.6026490066225163,1.8064563133783142
2.622516556291391,1.7593383322746092
2.642384105960265,1.712281772673023
2.662251655629139,1.6654854889438795
2.6821192052980134,1.619164871271169
2.7019867549668874,1.5735530092119965
2.7218543046357615,1.5289016828673965
2.741721854304636,1.4854820389821655
2.76158940397351,1.443584761527551
2.781456953642384,1.4035194941905882
2.801324503311258,1.3656132224941624
2.821192052980132,1.330207287965934
2.8410596026490067,1.2976527038854428
2.8609271523178808,1.2683034949578096
2.8807947019867552,1.2425079163359931
2.9006622516556293,1.2205976379870147
2.9205298013245033,1.2028753055419048
2.9403973509933774,1.189601271738612
2.9602649006622515,1.1809806561220249
2.9801324503311255,1.1771521270887397
3.0,1.1781798033811781
3.0198675496688745,1.1840493834661245
3.0397350993377485,1.1946690598275174
3.0596026490066226,1.2098750829475315
3.0794701986754967,1.2294411824035552
3.0993377483443707,1.2530905922028484
3.119205298013245,1.2805092525645159
3.1390728476821192,1.3113588632531992
3.1589403973509933,1.3452887619429714
3.1788079470198674,1.3819459831566685
3.198675496688742,1.4209832205996031
3.218543046357616,1.462064706496486
3.23841059602649,1.5048702134899798
3.2582781456953644,1.5490974842621619
3.2781456953642385,1.594463422621115
3.2980132450331126,1.640704362116257
3.3178807947019866,1.6875756857983895
3.3377483443708607,1.7348510191673134
3.3576158940397347,1.782321167462817
3.3774834437086096,1.8297929234419645
3.3973509933774837,1.8770878346757454
3.4172185430463577,1.9240409903270093
3.437086092715232,1.9704998655021562
3.456953642384106,2.016323245382512
3.47682119205298,2.061380240176644
3.4966887417218544,2.105549394357582
3.5165562913907285,2.148717888712632
3.5364238410596025,2.1907808306920935
3.556291390728477,2.2316406268251057
3.576158940397351,2.271206430154698
3.596026490066225,2.309393655422193
3.615894039735099,2.3461235548880444
3.6357615894039736,2.3813228480586406
3.6556291390728477,2.414923399096051
3.6754966887417218,2.4468619362493005
3.695364238410596,2.4770798082195715
3.7152317880794703,2.5055227729282112
3.7350993377483444,2.5321408146819957
3.754966887417219,2.556887986214329
3.774834437086093,2.5797222725223907
3.794701986754967,2.600605473818641
3.814569536423841,2.6195031052711197
3.834437086092715,2.6363843115259793
3.854304635761589,2.6512217942894485
3.8741721854304636,2.663991751499955
3.8940397350993377,2.6746738268479695
3.9139072847682117,2.6832510686047044
3.9337748344370858,2.689709896905505
3.9536423841059607,2.694040078801917
3.9735099337748347,2.696234710551734
3.993377483443709,2.6962902067619625
4.013245033112583,2.6942062961371342
4.033112582781457,2.68998602371912
4.052980132450331,2.683635759635543
4.072847682119205,2.675165214505354
4.0927152317880795,2.664587461784584
4.112582781456953,2.6519189674749475
4.132450331125828,2.637179627765722
4.152317880794702,2.6203928153381466
4.172185430463576,2.6015854352337673
4.19205298013245,2.5807879913778553
4.211920529801325,2.558034665058589
4.231788079470199,2.5333634068966897
4.251655629139073,2.5068160441014014
4.271523178807947,2.478438405102571
4.291390728476821,2.448280463976844
4.311258278145695,2.4163965074545923
4.33112582781457,2.3828453277047354
4.3509933774834435,2.347690444548563
4.370860927152318,2.311000361252147
4.390728476821192,2.2728488585842808
4.410596026490066,2.233315332394106
4.43046357615894,2.1924851805425964
4.450331125827815,2.1504502455825905
4.470198675496689,2.107309320076301
4.490066225165563,2.063168721790804
4.509933774834438,2.0181429461091036
4.529801324503311,1.972355402673752
4.549668874172186,1.9259392423060622
4.569536423841059,1.8790382782876591
4.589403973509934,1.831808002701218
4.6092715231788075,1.7844166930939607
4.629139072847682,1.7370465964637865
4.649006622516556,1.6898951654806698
4.66887417218543,1.6431763047728576
4.688741721854305,1.597121561752428
4.708609271523179,1.5519811656457958
4.728476821192054,1.508024779430672
4.748344370860927,1.4655417826922685
4.768211920529802,1.4248408515549817
4.788079470198675,1.3862485508335187
4.80794701986755,1.3501066143068823
4.827814569536423,1.316767578457725
4.847682119205298,1.2865884756497514
4.867549668874172,1.2599224093609729
4.887417218543046,1.2371080462405213
4.9072847682119205,1.2184573693752798
4.927152317880794,1.2042424147301067
4.947019867549669,1.1946820885639546
4.966887417218543,1.1899304340016545
4.986754966887418,1.1900677699106899
5.006622516556291,1.19509589357094
5.026490066225166,1.2049380305703
5.04635761589404,1.2194435363899432
5.066225165562914,1.2383966743145078
5.086092715231788,1.2615282839436233
5.105960264900662,1.288528919868339
5.125827814569536,1.3190620920572187
5.14569536423841,1.3527765075827194
5.1655629139072845,1.3893165878436773
5.185430463576159,1.4283309126433288
5.205298013245033,1.4694785524195277
5.225165562913908,1.5124334627822955
5.245033112582782,1.5568872329964154
5.264900662251656,1.6025505214668823
5.28476821192053,1.6491535013777792
5.304635761589404,1.6964456008836861
5.324503311258278,1.744194771577322
5.344370860927152,1.7921864673123324
5.364238410596027,1.8402224688912598
5.3841059602649,1.8881196512193086
5.403973509933775,1.9357087587306545
5.4238410596026485,1.9828332315279915
5.443708609271523,2.029348107569675
5.463576158940397,2.075119014123473
5.483443708609272,2.1200212534106813
5.503311258278146,2.163938981903935
5.52317880794702,2.206764479325493
5.543046357615895,2.248397501413794
5.562913907284768,2.2887447095333564
5.582781456953643,2.327719169865221
5.602649006622516,2.3652399149995325
5.622516556291391,2.401231561091557
5.642384105960264,2.4356239742273815
5.662251655629139,2.4683519801990847
5.682119205298013,2.4993551124624505
5.701986754966887,2.5285773936124443
5.7218543046357615,2.5559671462459423
5.741721854304636,2.581476829575072
5.7615894039735105,2.605062898607077
5.781456953642384,2.6266856831146166
5.801324503311259,2.6463092839873874
5.821192052980132,2.663901484883332
5.841059602649007,2.6794336773906373
5.860927152317881,2.692880798172197
5.880794701986755,2.704221276798133
5.900662251655629,2.713436993181591
5.920529801324503,2.7205132437224915
5.940397350993377,2.725438715436808
5.960264900662251,2.728205467508421
5.980132450331126,2.728808919848763
6.0,2.7272478483905314
6.0198675496688745,2.7235243869772345
6.039735099337749,2.7176440358433984
6.059602649006623,2.7096156768129123
6.079470198675497,2.699451595478784
6.099337748344371,2.6871675107675594
6.119205298013245,2.672782612439864
6.139072847682119,2.6563196072373563
6.158940397350993,2.6378047745578437
6.178807947019867,2.6172680327293123
6.198675496688741,2.5947430171620303
6.218543046357616,2.570267171889755
6.23841059602649,2.543881856271299
6.258278145695365,2.515632468913322
6.2781456953642385,2.4855685912027297
6.298013245033113,2.453744153200752
6.317880794701987,2.4202176250587915
6.337748344370861,2.385052237566903
6.357615894039735,2.3483162359408163
6.377483443708609,2.3100831714891226
6.397350993377484,2.2704322363693854
6.417218543046357,2.2294486472249675
6.437086092715232,2.1872240840631605
6.456953642384105,2.143857191245867
6.47682119205298,2.0994541478438955
6.496688741721854,2.0541293147498707
6.516556291390729,2.0080059656969897
6.5364238410596025,1.9612171084666938
6.556291390728477,1.9139064007758149
6.5761589403973515,1.8662291621767502
6.596026490066225,1.8183534782025135
6.6158940397351,1.7704613851776807
6.635761589403973,1.722750112634346
6.655629139072848,1.6754333439709062
6.675496688741721,1.6287424335954361
6.695364238410596,1.582927489090473
6.715231788079469,1.5382581891047962
6.735099337748344,1.4950241619160078
6.754966887417219,1.4535346980515809
6.774834437086093,1.4141175183659642
6.794701986754967,1.3771162765953233
6.814569536423841,1.342886458563395
6.8344370860927155,1.3117893706353685
6.854304635761589,1.2841840125797634
6.874172185430464,1.2604168258712567
6.894039735099337,1.24080960360908
6.913907284768212,1.2256462193981599
6.933774834437086,1.2151592170343735
6.95364238410596,1.2095176014004934
6.973509933774834,1.2088172716926953
6.993377483443709,1.2130753592322134
7.013245033112583,1.2222292671293082
7.033112582781457,1.2361405472609588
7.052980132450331,1.2546030539971016
7.072847682119205,1.2773542596403087
7.0927152317880795,1.3040883254233961
7.112582781456954,1.33446952319266
7.132450331125828,1.368144838593913
7.152317880794702,1.4047549506321395
7.172185430463576,1.443943167120811
7.19205298013245,1.4853622231727601
7.211920529801324,1.5286790832386177
7.231788079470198,1.5735780228504133
7.251655629139073,1.619762321096644
7.271523178807947,1.666954893361869
7.291390728476822,1.714898159329386
7.311258278145695,1.763353391816666
7.33112582781457,1.8120997398036165
7.3509933774834435,1.8609330709610161
7.370860927152318,1.9096647382743774
7.390728476821192,1.9581203427954328
7.410596026490066,2.0061385396266425
7.430463576158941,2.053569915852369
7.450331125827814,2.100275956001378
7.470198675496689,2.1461281015623985
7.490066225165562,2.1910069050463883
7.509933774834438,2.234801275265696
7.52980132450331,2.2774078082360756
7.549668874172186,2.3187301969203262
7.569536423841059,2.3586787125660926
7.589403973509934,2.3971697503934073
7.6092715231788075,2.434125432679171
7.629139072847682,2.4694732627448026
7.649006622516557,2.503145823896504
7.66887417218543,2.5350805179394604
7.6887417218543055,2.5652193384559543
7.708609271523178,2.593508674579081
7.728476821192054,2.6198991414995705
7.748344370860927,2.644345434406543
7.768211920529802,2.6668062029826887
7.788079470198675,2.687243943952199
7.80794701986755,2.7056249095175873
7.827814569536423,2.7219190298235327
7.847682119205298,2.7360998478552663
7.8675496688741715,2.7481444654202902
7.887417218543046,2.7580334990785653
7.907284768211921,2.76575104508212
7.927152317880795,2.7712846525631196
7.9470198675496695,2.7746253043727886
7.966887417218543,2.7757674051273344
7.986754966887418,2.7747087761601557
8.006622516556291,2.7714506572188373
8.026490066225167,2.7659977148812103
8.046357615894038,2.7583580577992755
8.066225165562914,2.7485432590179735
8.086092715231787,2.736568385756857
8.105960264900663,2.7224520371929155
8.125827814569536,2.70621639094172
8.14569536423841,2.6878872591073275
8.165562913907285,2.6674941549602242
8.185430463576159,2.64507037151148
8.205298013245034,2.6206530734834446
8.225165562913906,2.5942834044366974
8.245033112582782,2.5660066111032527
8.264900662251655,2.5358721873017886
8.28476821192053,2.5039340401747467
8.304635761589404,2.4702506818936874
8.324503311258278,2.4348854504301176
8.344370860927151,2.397906763483443
8.364238410596027,2.3593884101944567
8.3841059602649,2.3194098858420884
8.403973509933774,2.2780567753083445
8.42384105960265,2.2354211916738125
8.443708609271523,2.191602276830982
8.463576158940398,2.14670677140498
8.483443708609272,2.1008496614517647
8.503311258278146,2.0541549092099545
8.52317880794702,2.006756274400842
8.543046357615895,1.9587982308969694
8.562913907284768,1.9104369805944827
8.582781456953642,1.8618415614627315
8.602649006622515,1.8131950392634315
8.62251655629139,1.764695761391803
8.642384105960264,1.71655863555895
8.66225165562914,1.6690163743404913
8.682119205298013,1.622320617716088
8.701986754966887,1.5767428087185846
8.721854304635762,1.5325746522124937
8.741721854304636,1.4901279354429324
8.76158940397351,1.449733436189404
8.781456953642383,1.4117385994690979
8.801324503311259,1.3765036418715426
8.821192052980132,1.3443957648417444
8.841059602649008,1.315781249385469
8.86092715231788,1.2910153871483452
8.880794701986755,1.2704304857305069
8.90066225165563,1.25432255134729
8.920529801324504,1.242937642853212
8.940397350993377,1.2364592127511322
8.960264900662251,1.234997890323002
8.980132450331126,1.2385850294754703
9.0,1.2471709184486819
9.019867549668875,1.2606279046776252
9.039735099337747,1.2787579803943432
9.059602649006623,1.3013037820694162
9.079470198675496,1.327961614446277
9.099337748344372,1.3583950632447384
9.119205298013245,1.3922479640927092
9.139072847682119,1.4291558473673756
9.158940397350994,1.468755368757314
9.178807947019868,1.5106915790644107
9.198675496688743,1.5546231396489585
9.218543046357615,1.6002257433960583
9.23841059602649,1.6471940694608844
9.258278145695364,1.695242607217963
9.27814569536424,1.74410565479863
9.298013245033111,1.7935367496415773
9.317880794701987,1.8433077358520806
9.33774834437086,1.893207623701687
9.357615894039736,1.9430413541046077
9.37748344370861,1.9926285465592877
9.397350993377483,2.0418022825256976
9.417218543046358,2.09040795649073
9.437086092715232,2.1383022127960514
9.456953642384107,2.185351976436479
9.47682119205298,2.231433579414685
9.496688741721854,2.276431979984585
9.516556291390728,2.320240069549838
9.536423841059603,2.3627580605897376
9.556291390728477,2.403892948381232
9.57615894039735,2.4435580392019154
9.596026490066224,2.481672537938037
9.6158940397351,2.5181611884529738
9.635761589403973,2.5529539606026157
9.655629139072847,2.5859857783555857
9.675496688741722,2.6171962840497187
9.695364238410596,2.6465296343679277
9.715231788079471,2.6739343241335356
9.735099337748345,2.6993630345011392
9.754966887417218,2.722772502551032
9.774834437086092,2.7441234096848826
9.794701986754967,2.7633802865696255
9.814569536423841,2.780511432688686
9.834437086092716,2.7954888488385965
9.854304635761588,2.80828818115882
9.874172185430464,2.8188886755065834
9.894039735099337,2.8272731411911365
9.913907284768213,2.833427923266043
9.933774834437086,2.8373428827472926
9.95364238410596,2.8390113842826534
9.973509933774835,2.838430290946416
9.993377483443709,2.8355999659759017
10.013245033112582,2.8305242814055522
10.033112582781456,2.823210633692715
10.052980132450331,2.8136699665692975
10.072847682119205,2.8019168014982454
10.09271523178808,2.787969276265887
10.112582781456952,2.7718491924025828
10.132450331125828,2.7535820722997086
10.152317880794701,2.733197227081916
10.172185430463577,2.7107278365046708
10.192052980132452,2.6862110423810353
10.211920529801324,2.659688057303675
10.2317880794702,2.6312042907200177
10.251655629139073,2.6008094947464566
10.271523178807948,2.5685579324745693
10.29139072847682,2.534508571930793
10.311258278145695,2.498725309305099
10.331125827814569,2.4612772255624225
10.350993377483444,2.4222388810911966
10.370860927152318,2.381690653618448
10.390728476821192,2.339719125215064
10.410596026490065,2.296417524802186
10.43046357615894,2.25188623310733
10.450331125827816,2.2062333574403143
10.470198675496688,2.1595753838652523
10.490066225165563,2.112037914188466
10.509933774834437,2.063756494453246
10.529801324503312,2.0148775400325003
10.549668874172186,1.965559359529623
10.56953642384106,1.9159732749797098
10.589403973509933,1.8663048285574004
10.609271523178808,1.8167550552150262
10.629139072847682,1.7675417852705535
10.649006622516556,1.7189009196675444
10.66887417218543,1.6710875921734396
10.688741721854305,1.6243770962016908
10.70860927152318,1.5790654091235137
10.728476821192054,1.535469095458091
10.748344370860927,1.493924316688158
