Frequency (Hz),Amplitude
0.0,0.15550205627504
0.01978021978021978,0.19672266172212888
0.03956043956043956,0.28670403574034203
0.05934065934065934,0.3930741171838933
0.07912087912087912,0.5053101618728866
0.0989010989010989,0.619914681607385
0.11868131868131868,0.735435543681592
0.13846153846153844,0.8511366364095125
0.15824175824175823,0.9665782480476118
0.17802197802197803,1.0814602899404693
0.1978021978021978,1.1955554049578285
0.21758241758241756,1.3086773396781726
0.23736263736263735,1.4206647381837347
0.2571428571428572,1.5313722914214947
0.2769230769230769,1.6406656512996056
0.2967032967032967,1.7484183872995134
0.31648351648351647,1.8545101067071506
0.3362637362637363,1.9588252657825094
0.35604395604395606,2.061252405977675
0.3758241758241758,2.1616836597050444
0.3956043956043956,2.260014431568922
0.4153846153846154,2.356143196394786
0.4351648351648351,2.449971376483749
0.45494505494505494,2.5414032734429406
0.4747252747252747,2.630346038064679
0.4945054945054945,2.7167096669506616
0.5142857142857143,2.8004070180071423
0.5340659340659341,2.8813538392324567
0.5538461538461538,2.9594688067817696
0.5736263736263736,3.0346735693752
0.5934065934065934,3.1068927968760245
0.6131868131868132,3.1760542314064346
0.6329670329670329,3.242088739759471
0.6527472527472528,3.3049303661507583
0.6725274725274726,3.3645163845650154
0.6923076923076923,3.420787350110161
0.7120879120879121,3.473687148911038
0.7318681318681318,3.52316304616634
0.7516483516483516,3.5691657320627037
0.7714285714285715,3.611649365295316
0.7912087912087912,3.6505716139878768
0.810989010989011,3.685893693839926
0.8307692307692308,3.7175804033576902
0.8505494505494506,3.7456001560479955
0.8703296703296702,3.769925009474119
0.8901098901098901,3.7905306910889114
0.9098901098901099,3.80739662077448
0.9296703296703297,3.820505930030104
0.9494505494505494,3.829845477760857
0.9692307692307692,3.8354058626293246
0.989010989010989,3.8371814319418265
1.0087912087912088,3.8351702870489546
1.0285714285714287,3.8293742852484915
1.0483516483516484,3.8197990381864755
1.0681318681318681,3.8064539067600704
1.087912087912088,3.789351992533721
1.1076923076923075,3.768510125688205
1.1274725274725275,3.7439488495306956
1.1472527472527472,3.715692401602934
1.1670329670329669,3.68376869143459
1.1868131868131868,3.6482092749997914
1.2065934065934065,3.609049325947016
1.2263736263736265,3.566327603686936
1.2461538461538462,3.520086418438936
1.2659340659340659,3.4703715933569272
1.2857142857142858,3.4172324238780676
1.3054945054945055,3.360721634467189
1.3252747252747252,3.300895332964224
1.3450549450549452,3.23781296278677
1.3648351648351649,3.1715372532951114
1.3846153846153846,3.102134168698928
1.4043956043956045,3.0296728559768242
1.4241758241758242,2.9542255924012824
1.443956043956044,2.8758677334213663
1.4637362637362636,2.7946776618699194
1.4835164835164834,2.710736739752143
1.5032967032967033,2.6241292642698073
1.523076923076923,2.5349424302867947
1.542857142857143,2.443266302216993
1.5626373626373626,2.3491937994204837
1.5824175824175823,2.252820700793355
1.6021978021978023,2.154245676588992
1.621978021978022,2.05357035902988
1.6417582417582417,1.950899468642881
1.6615384615384616,1.8463410216252398
1.6813186813186813,1.7400066569065424
1.7010989010989013,1.632012143434314
1.720879120879121,1.5224781650377572
1.7406593406593405,1.4115315442966623
1.7604395604395604,1.2993071824775972
1.7802197802197801,1.1859512102109693
1.7999999999999998,1.0716262733453445
1.8197802197802198,0.9565207762647712
1.8395604395604395,0.8408659094281291
1.8593406593406594,0.7249691326561748
1.879120879120879,0.6092856795945645
1.8989010989010988,0.49458827744348677
1.9186813186813187,0.3824291062609108
1.9384615384615385,0.27663532874523317
1.9582417582417584,0.18900906431319298
1.978021978021978,0.15495607230991137
1.9978021978021978,0.203569371870465
2.0175824175824175,0.29656219955753244
2.0373626373626372,0.40417798876375766
2.0571428571428574,0.5170889009144886
2.076923076923077,0.6321452736520757
2.096703296703297,0.7480132127101389
2.1164835164835165,0.8640044003019158
2.1362637362637362,0.9797012140226057
2.1560439560439564,1.0948148446810106
2.175824175824176,1.2091241352887834
2.195604395604396,1.3224464277310883
2.215384615384615,1.4346225283202114
2.2351648351648348,1.5455084551657803
2.254945054945055,1.6549706769301191
2.2747252747252746,1.762883255087336
2.2945054945054943,1.8691260751157732
2.314285714285714,1.9735837265794882
2.3340659340659338,2.0761447836088265
2.353846153846154,2.1767013399649917
2.3736263736263736,2.275148710196705
2.3934065934065933,2.3713852415641727
2.413186813186813,2.4653122012125372
2.4329670329670328,2.5568337152422385
2.452747252747253,2.645856743987551
2.4725274725274726,2.732291082752312
2.4923076923076923,2.816049380501357
2.512087912087912,2.8970471711837504
2.5318681318681318,2.975202913849814
2.5516483516483515,3.050438038753367
2.5714285714285716,3.1226769973552515
2.5912087912087913,3.1918473146603263
2.610989010989011,3.2578796426938363
2.6307692307692307,3.320707814195802
2.6505494505494505,3.3802688958144436
2.6703296703296706,3.4365032402309086
2.6901098901098903,3.4893545367621726
2.70989010989011,3.538769860076824
2.7296703296703297,3.584699716726285
2.7494505494505495,3.627098089247251
2.769230769230769,3.6659224776332615
2.7890109890109893,3.7011339380070556
2.808791208791209,3.73269711835287
2.8285714285714287,3.7605802911902333
2.8483516483516484,3.7847553830898644
2.8681318681318677,3.805198000947943
2.887912087912088,3.8218874549489987
2.9076923076923076,3.8348067781594244
2.9274725274725273,3.843942742704433
2.947252747252747,3.849285872490817
2.9670329670329667,3.8508304524468033
2.986813186813187,3.8485745342586375
3.0065934065934066,3.8425199385914452
3.0263736263736263,3.832672253789657
3.046153846153846,3.819040831060144
3.0659340659340657,3.8016387761486636
3.085714285714286,3.7804829375285083
3.1054945054945056,3.755593891128439
3.1252747252747253,3.726995921636004
3.145054945054945,3.6947170004219885
3.1648351648351647,3.658788760142709
3.184615384615385,3.6192464660886636
3.2043956043956046,3.576128984362358
3.2241758241758243,3.529478746983887
3.243956043956044,3.479341714042493
3.2637362637362637,3.425767333034935
3.2835164835164834,3.368808495559806
3.3032967032967036,3.308521491571526
3.3230769230769233,3.2449659614409683
3.342857142857143,3.1782048461245966
3.3626373626373627,3.108304335814093
3.3824175824175824,3.0353338175293962
3.4021978021978025,2.959365822237143
3.4219780219780223,2.880475972234128
3.441758241758242,2.798742929746711
3.4615384615384617,2.7142483479833928
3.481318681318681,2.627076826270477
3.501098901098901,2.537315871446249
3.520879120879121,2.4450558684571084
3.5406593406593405,2.3503900641952993
3.5604395604395602,2.253414570207493
3.58021978021978,2.154228392245096
3.5999999999999996,2.0529334981400806
3.61978021978022,1.9496349408620846
3.6395604395604395,1.8444410620050269
3.659340659340659,1.7374638143739314
3.679120879120879,1.6288192643782282
3.6989010989010986,1.5186283721830607
3.718681318681319,1.4070182126239943
3.7384615384615385,1.2941239178246677
3.758241758241758,1.1800918455520706
3.7780219780219784,1.0650849206403497
3.7978021978021976,0.9492920297173841
3.8175824175824173,0.8329454507194692
3.8373626373626375,0.7163554333746871
3.8571428571428568,0.5999849042046299
3.876923076923077,0.48462954933171876
3.896703296703296,0.37191865546954267
3.916483516483517,0.2659865410031349
3.936263736263736,0.1800595193774295
3.956043956043956,0.1533145893226566
3.9758241758241755,0.20987757962552117
3.9956043956043956,0.30656602479443545
4.015384615384615,0.41608077364993157
4.035164835164835,0.5302547205403941
4.054945054945055,0.6463041380896434
4.0747252747252745,0.7630289464723714
4.094505494505494,0.8797982084882048
4.114285714285715,0.9962220877563333
4.134065934065934,1.1120264757785558
4.153846153846154,1.2269984971730026
4.173626373626373,1.3409603577612115
4.193406593406594,1.4537557847751925
4.213186813186813,1.5652425520894673
4.232967032967033,1.6752881541238713
4.252747252747253,1.7837672038630739
4.2725274725274724,1.8905598208552856
4.292307692307692,1.9955506110150865
4.312087912087913,2.0986280125972083
4.331868131868132,2.1996838755285832
4.351648351648352,2.2986131932746443
4.371428571428571,2.3953139365829763
4.391208791208792,2.489686956509119
4.410989010989011,2.5816359352486193
4.43076923076923,2.6710673703188257
4.450549450549451,2.757890582165797
4.4703296703296695,2.842017738258479
4.49010989010989,2.923363888737956
4.50989010989011,3.0018470100596693
4.52967032967033,3.077388054017419
4.549450549450549,3.1499110002078314
4.569230769230769,3.2193429104722813
4.589010989010989,3.2856139841994376
4.608791208791209,3.3486576136249244
4.628571428571428,3.40841043845279
4.648351648351649,3.4648123992639968
4.6681318681318675,3.5178067892842755
4.687912087912088,3.5673403041653557
4.707692307692308,3.6133630894972737
4.7274725274725276,3.655828785819094
4.747252747252747,3.6946945709350927
4.767032967032967,3.7299211993750014
4.786813186813187,3.761473038863019
4.806593406593407,3.7893181036813024
4.826373626373626,3.8134280848317688
4.846153846153847,3.833778376915008
4.8659340659340655,3.8503481016582692
4.885714285714286,3.8631201280359133
4.905494505494506,3.872081088935941
4.9252747252747255,3.87722139433552
4.945054945054945,3.8785352409570244
4.964835164835165,3.8760206183840653
4.984615384615385,3.86967931162489
5.004395604395604,3.8595169001177854
5.024175824175824,3.8455427531809443
5.043956043956045,3.827770021916414
5.0637362637362635,3.8062156275858
5.083516483516483,3.7809002464833465
5.103296703296703,3.751848291340771
5.123076923076923,3.719087889307539
5.142857142857143,3.6826508565607745
5.162637362637362,3.642572669610462
5.182417582417583,3.5988924333792873
5.2021978021978015,3.551652846151537
5.221978021978022,3.500900161504259
5.241758241758242,3.4466841473555365
5.2615384615384615,3.389058042291653
5.281318681318681,3.3280785093679146
5.301098901098901,3.263805587619055
5.320879120879121,3.196302641567307
5.340659340659341,3.125636309083245
5.36043956043956,3.051876448040611
5.380219780219781,2.9750960823201296
5.3999999999999995,2.895371347867233
5.41978021978022,2.8127814397103177
5.43956043956044,2.72740856111916
5.4593406593406595,2.6393378764585536
5.479120879120879,2.548657469814042
5.498901098901099,2.4554583122023903
5.518681318681319,2.359834241231438
5.538461538461538,2.261881958601872
5.558241758241758,2.1617010530989185
5.578021978021979,2.059394060112553
5.5978021978021975,1.9550665739222568
5.617582417582418,1.8488274371238629
5.637362637362637,1.740789044635755
5.6571428571428575,1.631067821234011
5.676923076923077,1.5197849680653261
5.696703296703297,1.4070676376164282
5.716483516483517,1.2930508132822496
5.736263736263735,1.1778803916712002
5.756043956043956,1.0617184099904733
5.775824175824176,0.9447523035697033
5.795604395604395,0.8272122240105433
5.815384615384615,0.7094057598417005
5.835164835164835,0.5917939803547047
5.854945054945055,0.4751782318950101
5.874725274725275,0.36123401812888073
5.894505494505494,0.25436793576334804
5.914285714285715,0.16944892386126514
5.934065934065933,0.150604049726582
5.953846153846154,0.21599205995346085
5.973626373626374,0.317097757011542
5.993406593406593,0.4291662113684299
6.013186813186813,0.5451969908923152
6.032967032967033,0.6627912225251047
6.052747252747253,0.7808963259846265
6.072527472527473,0.898947047124063
6.092307692307692,1.016586283748537
6.112087912087913,1.1335576086013357
6.131868131868131,1.2496582383525037
6.151648351648352,1.3647163357915089
6.171428571428572,1.4785791876986658
6.191208791208791,1.5911066657629565
6.210989010989011,1.7021674335332009
6.230769230769231,1.8116366628719776
6.2505494505494505,1.9193946200687113
6.270329670329671,2.0253257733273253
6.29010989010989,2.129318223633186
6.309890109890111,2.231263342120085
6.329670329670329,2.3310555426243638
6.349450549450549,2.428592144624355
6.36923076923077,2.5237732976735585
6.3890109890109885,2.6165019482528242
6.408791208791209,2.706683836175523
6.428571428571428,2.7942275116962447
6.4483516483516485,2.8790443671246577
6.468131868131868,2.9610486785296284
6.487912087912088,3.040157654338422
6.507692307692308,3.1162914884838964
6.527472527472527,3.1893734163506986
6.547252747252747,3.25932977219906
6.567032967032967,3.326090047054735
6.5868131868131865,3.389586946280963
6.606593406593407,3.4497564462167927
6.626373626373626,3.506537849393107
6.6461538461538465,3.559873837933683
6.665934065934065,3.6097105248225345
6.685714285714286,3.6559975027763763
6.705494505494506,3.6986878905060494
6.725274725274725,3.7377383761867113
6.745054945054945,3.7731092579856718
6.764835164835165,3.8047644815201997
6.7846153846153845,3.832671674137404
6.804395604395605,3.8568021759246567
6.824175824175824,3.8771310673730914
6.8439560439560445,3.8936371936288725
6.863736263736263,3.906303185277662
6.883516483516484,3.9151154756173834
6.903296703296704,3.9200643143830702
6.923076923076923,3.921143777895782
6.942857142857143,3.9183517756151867
6.962637362637362,3.9116900530828667
6.9824175824175825,3.9011641912504778
7.002197802197802,3.8867836021941096
7.021978021978022,3.8685615212233686
7.041758241758242,3.8465149954011113
7.061538461538461,3.820664868497462
7.081318681318681,3.79103576241002
7.101098901098901,3.7576560550909286
7.1208791208791204,3.7205578550314096
7.140659340659341,3.6797769723651164
7.16043956043956,3.6353528866642795
7.1802197802197805,3.58732871151691
7.199999999999999,3.5357511559903405
7.21978021978022,3.4806704831067377
7.23956043956044,3.422140465480603
7.259340659340659,3.360218338298875
7.279120879120879,3.2949647498616965
7.298901098901099,3.2264437099498067
7.318681318681318,3.154722536345589
7.338461538461539,3.079871799913691
7.358241758241758,3.0019652687508587
7.3780219780219785,2.9210798520518546
7.397802197802197,2.837295544522497
7.417582417582418,2.7506953724209584
7.437362637362638,2.661365342652121
7.457142857142857,2.569394396818584
7.476923076923077,2.4748743728075606
7.496703296703297,2.377899977460977
7.516483516483516,2.2785687752843207
7.536263736263736,2.1769812002331856
7.556043956043957,2.0732406007556263
7.575824175824176,1.9674533330930908
7.595604395604395,1.8597289254219844
7.615384615384615,1.7501803476163214
7.635164835164835,1.6389244415793034
7.654945054945055,1.5260826014547106
7.674725274725275,1.4117818536047444
7.694505494505494,1.2961565972371192
7.7142857142857135,1.1793514791846955
7.734065934065935,1.0615263051787458
7.753846153846154,0.9428648088881758
7.7736263736263735,0.8235912165329479
7.793406593406592,0.704003865608641
7.813186813186814,0.5845500395778828
7.832967032967034,0.4660140268235789
7.852747252747252,0.35007330634183187
7.872527472527472,0.24134314555957778
7.892307692307693,0.15664018527262955
7.912087912087912,0.1469047187747219
7.931868131868132,0.22230701994871552
7.951648351648351,0.32859106758060475
7.971428571428572,0.4438832375810768
7.991208791208791,0.5623848807649802
8.010989010989011,0.6821008212812374
8.03076923076923,0.8021377937403151
8.05054945054945,0.9220032707860025
8.07032967032967,1.0413770795790411
8.09010989010989,1.1600229964041717
8.10989010989011,1.2777498479895482
8.129670329670331,1.3943926498382582
8.149450549450549,1.5098027460547858
8.169230769230769,1.6238423419941843
8.189010989010988,1.7363813295140753
8.20879120879121,1.8472953769520628
8.22857142857143,1.9564647499764096
8.248351648351647,2.063773571749677
8.268131868131867,2.1691093561584327
8.287912087912087,2.2723627157030166
8.307692307692308,2.3734271838549987
8.327472527472528,2.4721991139786565
8.347252747252746,2.5685776303195076
8.367032967032966,2.662464614851856
8.386813186813187,2.7537647190306336
8.406593406593407,2.8423853928960616
8.426373626373627,2.9282369262310115
8.446153846153845,3.0112324979866667
8.465934065934066,3.091288231231227
8.485714285714286,3.168323251599313
8.505494505494505,3.2422597477304445
8.525274725274725,3.3130230325510155
8.545054945054945,3.3805416045191636
8.564835164835165,3.4447472081473163
8.584615384615384,3.505574893261884
8.604395604395604,3.562963072568818
8.624175824175826,3.6168535771766868
8.643956043956043,3.667191709792962
8.663736263736263,3.713926295358914
8.683516483516483,3.7570097289279847
8.703296703296704,3.796398020623868
8.723076923076924,3.832050837539886
8.742857142857142,3.8639315424622884
8.762637362637362,3.8920072293173558
8.782417582417583,3.916248755256967
8.802197802197803,3.9366307693100153
8.821978021978023,3.953131737537817
8.84175824175824,3.965733964641858
8.86153846153846,3.9744236119806597
8.881318681318682,3.9791907119609307
8.901098901098901,3.98002917877563
8.920879120879121,3.976936815468746
8.940659340659339,3.969915317313417
8.96043956043956,3.9589702714970483
8.98021978021978,3.9441111531132034
9.0,3.9253513174676464
9.01978021978022,3.9027079887118945
9.03956043956044,3.876202244825587
9.05934065934066,3.845858998976105
9.079120879120879,3.811706977292333
9.098901098901099,3.7737786930981403
9.11868131868132,3.7321104176612634
9.138461538461538,3.6867421475243582
9.158241758241758,3.6377175684978424
9.178021978021977,3.5850840164093634
9.197802197802199,3.52889243472234
9.217582417582419,3.4691973291578284
9.237362637362637,3.406056719480189
9.257142857142856,3.3395320886400826
9.276923076923078,3.2696883295093913
9.296703296703297,3.1965936894957587
9.316483516483517,3.120319713392509
9.336263736263735,3.040941184909202
9.356043956043957,2.958536067446411
9.375824175824176,2.873185444837418
9.395604395604396,2.7849734629951426
9.415384615384616,2.6939872736998107
9.435164835164835,2.600316982176866
9.454945054945055,2.5040556006999655
9.474725274725275,2.4052990112940185
9.494505494505495,2.304145941837435
9.514285714285714,2.200697961678304
9.534065934065934,2.0950595056214034
9.553846153846154,1.9873379393694364
9.573626373626373,1.8776436861627348
9.593406593406593,1.7660904451201282
9.613186813186815,1.6527955496434985
9.632967032967032,1.5378805448219128
9.652747252747252,1.4214721169578226
9.672527472527472,1.303703608254056
9.692307692307693,1.1847175425275824
9.712087912087913,1.064669980228865
9.731868131868131,0.9437383711928187
9.75164835164835,0.8221365587616124
9.771428571428572,0.7001456689808087
9.791208791208792,0.5781841917594343
9.810989010989012,0.4569889600825276
9.83076923076923,0.3381735854440229
9.850549450549451,0.2264374290429346
9.87032967032967,0.1409338554399218
9.89010989010989,0.14243451449403718
9.90989010989011,0.22931384412414674
9.92967032967033,0.3415602339354531
9.94945054945055,0.46076772549597883
9.96923076923077,0.5823865513557059
9.989010989010989,0.7048404695684665
10.008791208791209,0.8274044152079857
10.028571428571428,0.9496639089298299
10.048351648351648,1.0713388959167445
10.068131868131868,1.1922152624400355
10.08791208791209,1.3121145641040632
10.107692307692307,1.4308792903928893
10.127472527472527,1.5483651407378867
10.147252747252747,1.6644367367229111
10.167032967032966,1.7789651343606556
10.186813186813188,1.8918263326640337
10.206593406593406,2.0029003595945634
10.226373626373626,2.112070705870088
10.246153846153845,2.2192239753805865
10.265934065934067,2.3242496743120538
10.285714285714286,2.427040091209635
10.305494505494504,2.5274902378273767
10.325274725274724,2.6254978312319803
10.345054945054946,2.720963304207138
10.364835164835165,2.813789835182388
10.384615384615385,2.9038833916220295
10.404395604395603,2.99115278260572
10.424175824175824,3.0755097175441533
10.443956043956044,3.156868868804857
10.463736263736264,3.235147936602792
10.483516483516484,3.3102677149207187
10.503296703296703,3.382152157518389
10.523076923076923,3.450728443303609
10.542857142857143,3.515927040495602
10.562637362637362,3.577681769128486
10.582417582417584,3.635929861531118
10.602197802197802,3.6906120204873587
10.621978021978022,3.7416724748328236
10.641758241758241,3.7890590322853277
10.661538461538463,3.8327231293385027
