Time (s),Filtered Signal
0.0,-0.03968002502944096
0.03337004405286344,0.1510965799261645
0.06674008810572687,0.15366199063957933
0.10011013215859031,-0.13977060501052654
0.13348017621145375,-0.7095493956626807
0.16685022026431717,-1.4178421584831091
0.20022026431718062,-2.0659135182351744
0.23359030837004408,-2.4716102988325397
0.2669603524229075,-2.53303049638409
0.3003303964757709,-2.2542586325709557
0.33370044052863435,-1.7285035899957462
0.3670704845814978,-1.092606144876398
0.40044052863436125,-0.4762022635729875
0.43381057268722467,0.03383135214470328
0.46718061674008815,0.4041085399885398
0.5005506607929515,0.643709363548668
0.533920704845815,0.7824717867488925
0.5672907488986785,0.8506667064278445
0.6006607929515418,0.8677401307097161
0.6340308370044053,0.8416943373689392
0.6674008810572687,0.7759405084411601
0.7007709251101322,0.6782935255315983
0.7341409691629956,0.5668750531145978
0.767511013215859,0.4693583969110244
0.8008810572687225,0.41482203750439556
0.834251101321586,0.42100796481880337
0.8676211453744493,0.4828335647638297
0.9009911894273128,0.5688215606538052
0.9343612334801763,0.6294639076344748
0.9677312775330397,0.6159978131563185
1.001101321585903,0.5022431460626653
1.0344713656387665,0.2993608136604866
1.06784140969163,0.05563616749537655
1.1012114537444935,-0.16009463191394557
1.134581497797357,-0.2852148945658211
1.1679515418502202,-0.28938559958608007
1.2013215859030837,-0.18917783211184533
1.2346916299559472,-0.045123984166839576
1.2680616740088106,0.05851361270370579
1.3014317180616741,0.04506887260824757
1.3348017621145374,-0.12233616141199444
1.3681718061674009,-0.4195815961830047
1.4015418502202643,-0.7614485694846641
1.4349118942731278,-1.0266539667667312
1.4682819383259913,-1.1021614761283698
1.5016519823788548,-0.9308095128243433
1.535022026431718,-0.5415009068837763
1.5683920704845815,-0.045884487154183716
1.601762114537445,0.40080032504345375
1.6351321585903085,0.660070499422289
1.668502202643172,0.6655646090525834
1.7018722466960352,0.4479858719222888
1.7352422907488987,0.11785096236416719
1.7686123348017622,-0.18561786488539128
1.8019823788546256,-0.3549362389584216
1.8353524229074891,-0.35578809998896727
1.8687224669603526,-0.23141608442604003
1.9020925110132159,-0.07076999432938165
1.9354625550660793,0.041280505439619405
1.9688325991189428,0.0659125527422659
2.002202643171806,0.02455945638781938
2.0355726872246698,-0.019240286989747855
2.068942731277533,0.0014518344591480398
2.1023127753303967,0.11864447074046931
2.13568281938326,0.310400968853763
2.1690528634361232,0.5092013147107114
2.202422907488987,0.6322282439532299
2.23579295154185,0.6184348571114717
2.269162995594714,0.45513381047947027
2.302533039647577,0.18249051200376903
2.3359030837004404,-0.1250516909072238
2.369273127753304,-0.3904231098413038
2.4026431718061674,-0.5625912254532132
2.436013215859031,-0.628453001173116
2.4693832599118943,-0.6041132990165785
2.5027533039647576,-0.5138798664839123
2.5361233480176213,-0.3722421475729133
2.5694933920704845,-0.18109729497723584
2.6028634361233483,0.05680182196852687
2.6362334801762115,0.3193692466209685
2.6696035242290748,0.5575858459454605
2.7029735682819385,0.7084011010357888
2.7363436123348017,0.7242000921645635
2.7697136563876654,0.6025981029115567
2.8030837004405287,0.39724108466002916
2.8364537444933924,0.1990471991418682
2.8698237885462556,0.09368557302654494
2.903193832599119,0.11607608991845239
2.9365638766519826,0.22726869849090578
2.969933920704846,0.3292996915947914
3.0033039647577096,0.3136785586933518
3.036674008810573,0.11976808486068621
3.070044052863436,-0.22802183450901867
3.1034140969162998,-0.6253755727390607
3.136784140969163,-0.9343125309559344
3.1701541850220267,-1.0469932354995881
3.20352422907489,-0.9342186449590338
3.2368942731277532,-0.654683563956124
3.270264317180617,-0.3227409680825562
3.30363436123348,-0.05409687815490002
3.337004405286344,0.0816537177500725
3.370374449339207,0.07974091238147701
3.4037444933920704,-0.01371118677415504
3.437114537444934,-0.13442336026903817
3.4704845814977974,-0.23027531245021268
3.503854625550661,-0.2739634017163228
3.5372246696035243,-0.2569582351028143
3.5705947136563876,-0.17628864836414398
3.6039647577092513,-0.02854254616446323
3.6373348017621145,0.18263859858826623
3.6707048458149782,0.4321319845266396
3.7040748898678415,0.6665514401923225
3.737444933920705,0.8165862921405005
3.7708149779735685,0.8271231056653147
3.8041850220264317,0.6897223229155021
3.8375550660792954,0.4565900783299425
3.8709251101321587,0.22316787217441003
3.9042951541850224,0.08401872080394643
3.9376651982378856,0.0834896542674572
3.971035242290749,0.18820530167995622
4.004405286343612,0.2987341909903248
4.037775330396476,0.29767012330962467
4.0711453744493395,0.11175779863676541
4.104515418502203,-0.24294151356241797
4.137885462555066,-0.6569583064387746
4.171255506607929,-0.9693696033149446
4.2046255506607935,-1.0384683132598371
4.237995594713657,-0.8089871503270413
4.27136563876652,-0.3437901734036923
4.304735682819383,0.19647570106384973
4.3381057268722465,0.6181552183141796
4.371475770925111,0.7750466507787405
4.404845814977974,0.6281633062609222
4.438215859030837,0.25821612356428963
4.4715859030837,-0.17329440544850264
4.504955947136564,-0.4946697369358592
4.538325991189428,-0.5933037142979688
4.571696035242291,-0.45399118723098575
4.605066079295154,-0.1535047869236978
4.638436123348018,0.18051152831020342
4.671806167400881,0.4241721111028113
4.705176211453745,0.5014782890157191
4.738546255506608,0.40281983719097875
4.7719162995594715,0.17611011084041142
4.805286343612335,-0.10010816135699226
4.838656387665198,-0.3475252628685376
4.872026431718062,-0.5108408473741763
4.905396475770925,-0.5667674757724711
4.938766519823789,-0.5206948947905095
4.972136563876652,-0.39698162072965065
5.005506607929515,-0.22909194606475367
5.038876651982379,-0.05256034820243892
5.072246696035243,0.1001109373925668
5.105616740088106,0.2049962284316208
5.138986784140969,0.2531914195894224
5.172356828193832,0.2551944405201765
5.2057268722466965,0.23869936013974757
5.23909691629956,0.23771235427625242
5.272466960352423,0.27626838371398504
5.305837004405286,0.35466674533573256
5.3392070484581495,0.44638491843407646
5.372577092511014,0.5087497100249677
5.405947136563877,0.5027356513266501
5.43931718061674,0.4116619322445031
5.4726872246696034,0.24883791136461217
5.506057268722468,0.05055934456697002
5.539427312775331,-0.1405466052556912
5.572797356828194,-0.2915786390070415
5.606167400881057,-0.3862285787952452
5.639537444933921,-0.42122897528609277
5.672907488986785,-0.39881140328385695
5.706277533039648,-0.32376559811089056
5.739647577092511,-0.20855699134341113
5.7730176211453745,-0.08134713989825171
5.806387665198238,0.013462371921093489
5.839757709251102,0.0294324126521323
5.873127753303965,-0.056213941287738475
5.9064977973568284,-0.219741773108421
5.939867841409692,-0.38842701034660365
5.973237885462555,-0.4670321893048544
6.006607929515419,-0.3845967055559518
6.039977973568282,-0.1377822077885951
6.073348017621146,0.19543299092154004
6.106718061674009,0.4841739571641163
6.140088105726872,0.6044510430371003
6.173458149779736,0.5003850469673833
6.2068281938325995,0.21398460063766445
6.240198237885463,-0.13333347870575632
6.273568281938326,-0.39801365077294965
6.306938325991189,-0.47999663170748624
6.3403083700440535,-0.363088415577128
6.373678414096917,-0.11228025486976558
6.40704845814978,0.1653563914698004
6.440418502202643,0.37163542708078695
6.4737885462555065,0.4536268075893296
6.507158590308371,0.41175299218415984
6.540528634361234,0.2834185796103917
6.573898678414097,0.11731247717058084
6.60726872246696,-0.0462319456228464
6.640638766519824,-0.18164657232125936
6.674008810572688,-0.2740040972508068
6.707378854625551,-0.3125161982904103
6.740748898678414,-0.2887226459852651
6.774118942731278,-0.2008695249625213
6.807488986784141,-0.060255438318215115
6.840859030837005,0.10674311747953409
6.874229074889868,0.26458076359304017
6.9075991189427315,0.38062817711948554
6.940969162995595,0.4372703520023477
6.974339207048458,0.43727162482223486
7.007709251101322,0.3992287425659076
7.041079295154185,0.345481069018022
7.074449339207049,0.2891588969374713
7.107819383259912,0.22768046754260252
7.141189427312775,0.14649817034512747
7.174559471365639,0.031019247265141464
7.207929515418503,-0.1203698373316013
7.241299559471366,-0.29028699464994234
7.274669603524229,-0.44755641656868717
7.308039647577092,-0.56108869841863
7.3414096916299565,-0.6144634697483512
7.37477973568282,-0.6126641786354805
7.408149779735683,-0.5771272625254376
7.441519823788546,-0.5322288562965137
7.47488986784141,-0.49116877770100353
7.508259911894274,-0.44916613076751694
7.541629955947137,-0.38738943768577777
7.575,-0.2850486357543327
7.608370044052863,-0.1329420548767138
7.641740088105728,0.058622021380007695
7.675110132158591,0.2614661127593835
7.708480176211454,0.4398622995010922
7.741850220264317,0.56446435369214
7.775220264317181,0.6230741314632628
7.808590308370045,0.6229927540556641
7.841960352422908,0.5839284256778332
7.875330396475771,0.525421392581625
7.9087004405286345,0.4558246613683912
7.942070484581498,0.36909722031942066
7.975440528634362,0.25129329033758047
8.008810572687224,0.0932219192269961
8.042180616740088,-0.09756811630530628
8.075550660792953,-0.29196467084745753
8.108920704845815,-0.44475130909789745
8.142290748898679,-0.5090392518952273
8.175660792951541,-0.454634725984367
8.209030837004406,-0.28328610645831176
8.24240088105727,-0.03399005950853399
8.275770925110132,0.22561836798120408
8.309140969162996,0.4205530051161856
8.342511013215859,0.4952023705637888
8.375881057268723,0.43438194818057435
8.409251101321587,0.2686900809513646
8.44262114537445,0.06079577353280032
8.475991189427313,-0.12134980027074928
8.509361233480176,-0.23150647864801893
8.54273127753304,-0.2594730259176811
8.576101321585904,-0.2271717073264938
8.609471365638766,-0.17113414368245983
8.64284140969163,-0.12273778132302494
8.676211453744493,-0.09672019489955802
8.709581497797357,-0.0914810974643955
8.742951541850221,-0.09693533365424438
8.776321585903084,-0.10247791251959276
8.809691629955948,-0.1002561332842818
8.84306167400881,-0.08436730300535784
8.876431718061674,-0.05024644046096416
8.909801762114538,0.0022872117978387017
8.9431718061674,0.063210303765336
8.976541850220265,0.10890996814729993
9.009911894273127,0.10695894319860488
9.043281938325991,0.030243432519096596
9.076651982378856,-0.1254220410775116
9.110022026431718,-0.330640460126268
9.143392070484582,-0.5272584009859047
9.176762114537445,-0.6489763495098766
9.210132158590309,-0.6484456989703618
9.243502202643173,-0.5169545260264219
9.276872246696035,-0.2864982977711811
9.3102422907489,-0.013788459198245836
9.343612334801762,0.24458644371907737
9.376982378854626,0.4528250328625075
9.41035242290749,0.6030485118586644
9.443722466960352,0.7076392342081156
9.477092511013216,0.7829396375768414
9.510462555066079,0.8336172506086321
9.543832599118943,0.8454165408395342
9.577202643171807,0.7895692637150841
9.61057268722467,0.6370935774589257
9.643942731277534,0.3771207047870388
9.677312775330396,0.03121005631156872
9.71068281938326,-0.3438104432830965
9.744052863436124,-0.668156038159677
9.777422907488987,-0.8639935568063134
9.81079295154185,-0.8840682538811966
9.844162995594713,-0.7318910913061627
9.877533039647577,-0.4633619759403351
9.910903083700441,-0.16700704138357592
9.944273127753304,0.07020466157552784
9.977643171806168,0.19683783940209693
10.01101321585903,0.21493295201169368
10.044383259911895,0.17290481436882352
10.077753303964759,0.13653534116418067
10.111123348017621,0.1525656334084179
10.144493392070485,0.22361590835958145
10.177863436123348,0.3074185813637452
10.211233480176212,0.340412455640882
10.244603524229076,0.272722573651552
10.277973568281938,0.09580584174632215
10.311343612334802,-0.15126330855404183
10.344713656387665,-0.3987703136249343
10.378083700440529,-0.5762311761043558
10.411453744493393,-0.6393194715345665
10.444823788546255,-0.5817357557569592
10.47819383259912,-0.42954033908979766
10.511563876651982,-0.22469162203933032
10.544933920704846,-0.008224635815680701
10.57830396475771,0.18932045646004333
10.611674008810573,0.34889539263438213
10.645044052863437,0.45922607919167074
10.678414096916299,0.5133467755302011
10.711784140969163,0.5077093753388384
10.745154185022027,0.44279061572166023
10.77852422907489,0.3230653220188026
10.811894273127754,0.15608049956604794
10.845264317180618,-0.04727331858745813
10.87863436123348,-0.2694230867990942
10.912004405286345,-0.481225026936349
10.945374449339207,-0.6407551206137927
10.978744493392071,-0.7011548317714366
11.012114537444935,-0.6280879352228712
11.045484581497798,-0.42013471572683636
11.078854625550662,-0.12066352429153358
11.112224669603524,0.188785638208587
11.145594713656388,0.4154790768039715
11.178964757709252,0.4935912847865991
11.212334801762115,0.41590966659432416
11.245704845814979,0.2414797526227774
11.279074889867841,0.0713207164830688
11.312444933920705,0.00047131598396108984
11.34581497797357,0.06889622934221197
11.379185022026432,0.2374024030256591
11.412555066079296,0.4038518295795822
11.445925110132158,0.4541617179906977
11.479295154185023,0.32307170783237554
11.512665198237887,0.03288588301019305
11.546035242290749,-0.3110612501324646
11.579405286343613,-0.5670153060728215
11.612775330396476,-0.6223020541806725
11.64614537444934,-0.44507221341501263
11.679515418502204,-0.09746882288889264
11.712885462555066,0.29448613545552826
11.74625550660793,0.5978010288444362
11.779625550660793,0.7281558736820712
11.812995594713657,0.6788460639559033
11.846365638766521,0.5117593094109212
11.879735682819383,0.3174503121971803
11.913105726872248,0.16565346808984768
11.94647577092511,0.07163176808371721
11.979845814977974,-0.004488348805300147
12.013215859030838,-0.12551224673684241
12.0465859030837,-0.3302280600742791
12.079955947136565,-0.5987648553976377
12.113325991189427,-0.8513982265336464
12.146696035242291,-0.9837258060132417
12.180066079295155,-0.9206329343314397
12.213436123348018,-0.6603391320103293
12.246806167400882,-0.28431059861662583
12.280176211453744,0.07371801811793466
12.313546255506608,0.2855137692608311
12.346916299559473,0.28533611350885935
12.380286343612335,0.09889837282404042
12.413656387665199,-0.16940767804114346
12.447026431718061,-0.38469131781989585
12.480396475770926,-0.4419495326855732
12.51376651982379,-0.3100814792153831
12.547136563876652,-0.03984250495490547
12.580506607929516,0.2654655997934389
12.613876651982379,0.49969296406975405
12.647246696035243,0.5989219739761354
12.680616740088107,0.5620887285602457
12.71398678414097,0.44141472854906255
12.747356828193833,0.3114824905540701
12.780726872246696,0.23371303333201157
12.81409691629956,0.2320549826112721
12.847466960352424,0.2882939928555098
12.880837004405286,0.3560305747949228
12.91420704845815,0.38502296865946384
12.947577092511013,0.34447230692619085
12.980947136563877,0.23542838563565582
13.014317180616741,0.08789071100113034
13.047687224669604,-0.05481720025295129
13.081057268722468,-0.15623939471124007
13.11442731277533,-0.20185490697375164
13.147797356828194,-0.20254020474105683
13.181167400881058,-0.1860491714652721
13.21453744493392,-0.18182684067024263
13.247907488986785,-0.20695687291545467
13.281277533039647,-0.2594745581618401
13.314647577092511,-0.320944480318875
13.348017621145376,-0.3656135258988714
13.381387665198238,-0.37097547458087055
13.414757709251102,-0.32522678012920675
13.448127753303964,-0.22995047772708882
13.481497797356829,-0.09920697172237922
13.514867841409693,0.04297502028708523
13.548237885462555,0.16618232051257636
13.58160792951542,0.23966087542544262
13.614977973568282,0.24200165576229285
13.648348017621146,0.17241488638704724
13.68171806167401,0.057400139756908816
13.715088105726872,-0.054362591422814785
13.748458149779736,-0.11120641775873953
13.781828193832599,-0.08492748741396383
13.815198237885463,0.009940063635563243
13.848568281938327,0.1181045165143806
13.88193832599119,0.17041331460232775
13.915308370044054,0.12377848314182914
13.948678414096916,-0.00855478903883313
13.98204845814978,-0.15671683700789707
14.015418502202644,-0.22821855045197184
14.048788546255507,-0.15981644433094924
14.08215859030837,0.0417797887587299
14.115528634361233,0.295282215466372
14.148898678414097,0.4819937993601712
14.182268722466961,0.5068497322900936
14.215638766519824,0.3508055099365083
14.249008810572688,0.08502575826272574
14.28237885462555,-0.16310364202939098
14.315748898678414,-0.2760373327202307
14.349118942731279,-0.20956680115128734
14.382488986784141,-0.018833514381007287
14.415859030837005,0.16882076723498193
14.449229074889868,0.22087778122118404
14.482599118942732,0.07072618117537874
14.515969162995596,-0.24575147327915914
14.549339207048458,-0.6075315965118915
14.582709251101322,-0.8692013844576942
14.616079295154185,-0.9311587730051794
14.649449339207049,-0.78169899423356
14.682819383259913,-0.4908985217175979
14.716189427312775,-0.16395904717249596
14.74955947136564,0.11637150084988301
14.782929515418502,0.324636754663143
14.816299559471366,0.48660144832039476
14.84966960352423,0.6397003648289542
14.883039647577093,0.7880076023629579
14.916409691629957,0.8830980912654962
14.94977973568282,0.8461981324902479
14.983149779735683,0.6209584487515571
15.016519823788547,0.22538945499276203
15.04988986784141,-0.2313831169978994
15.083259911894274,-0.5841751787250754
15.116629955947138,-0.6860378254803203
15.15,-0.4847611463779808
15.183370044052865,-0.05944040443430454
15.216740088105727,0.4065149915506828
15.250110132158591,0.7065191497837278
15.283480176211455,0.7071547850787392
15.316850220264318,0.41140567458137556
15.350220264317182,-0.043250007453884604
15.383590308370044,-0.45080211734082304
15.416960352422908,-0.6336911269459234
15.450330396475772,-0.5236241962548752
15.483700440528635,-0.18890776389752958
15.517070484581499,0.2017784396717625
15.550440528634361,0.4592816498025066
15.583810572687225,0.4592888237730457
15.61718061674009,0.19513552091145236
15.650550660792952,-0.2229249999394275
15.683920704845816,-0.6186568409540524
15.717290748898678,-0.8267428559157393
15.750660792951543,-0.7621467778095903
15.784030837004407,-0.45346974444235033
15.817400881057269,-0.028088289466552677
15.850770925110133,0.3428423659148886
15.884140969162996,0.5154191156716715
15.91751101321586,0.43044286520531505
15.950881057268724,0.13440559244075417
15.984251101321586,-0.2431587853414463
16.01762114537445,-0.5451082022815648
16.050991189427315,-0.6510385393675322
16.084361233480177,-0.5237609112567903
16.11773127753304,-0.219350725918934
16.151101321585905,0.14190045436036516
16.184471365638768,0.4294344393723911
16.21784140969163,0.5565914798237502
16.251211453744492,0.5110424515629473
16.284581497797358,0.3493727446610084
16.31795154185022,0.16110965232634347
16.351321585903083,0.021931119920400026
16.38469162995595,-0.039995422939278824
16.41806167400881,-0.04869148757662767
16.451431718061674,-0.05617905745762416
16.48480176211454,-0.10473418835714259
16.518171806167402,-0.19722080592945732
16.551541850220264,-0.29159173824998896
16.584911894273127,-0.32180945358775626
16.618281938325993,-0.23322465240238385
16.651651982378855,-0.013433020390971998
16.685022026431717,0.2970563056459993
16.718392070484583,0.6189322497832986
16.751762114537446,0.8650262501288616
16.785132158590308,0.9725371661626412
16.818502202643174,0.9216981792410968
16.851872246696036,0.734147836979158
16.8852422907489,0.4551751547509654
16.91861233480176,0.13179681997234655
16.951982378854627,-0.2008561767333463
16.98535242290749,-0.5190630084184649
17.01872246696035,-0.7997749702139444
17.052092511013218,-1.0100404335420174
17.08546255506608,-1.1067634077654627
17.118832599118942,-1.0502559867389172
17.152202643171808,-0.825945552137296
17.18557268722467,-0.4623107480220943
17.218942731277533,-0.0332368718836617
17.2523127753304,0.36021975288851715
17.28568281938326,0.623371594174325
17.319052863436124,0.7028522706387702
