Time (s),Filtered Signal
0.0,-0.01826361067468919
0.033370165745856356,-0.05728448435612482
0.06674033149171271,-0.09783719023995165
0.10011049723756907,-0.13996259706429784
0.13348066298342542,-0.18099895202555125
0.16685082872928178,-0.2174456046074373
0.20022099447513814,-0.24762079519125582
0.2335911602209945,-0.27277672624818805
0.26696132596685085,-0.295247238425687
0.30033149171270723,-0.3144164938208991
0.33370165745856356,-0.3233291661708618
0.3670718232044199,-0.3090681844243815
0.4004419889502763,-0.25807490748418344
0.43381215469613266,-0.16435206339998196
0.467182320441989,-0.0359756156541044
0.5005524861878453,0.10462366336999401
0.5339226519337017,0.22814900813265376
0.5672928176795581,0.31074930831064573
0.6006629834254145,0.3448950752453457
0.6340331491712707,0.34267565709843656
0.6674033149171271,0.3292005196814519
0.7007734806629835,0.32925015804980584
0.7341436464088398,0.3541875262659612
0.7675138121546962,0.39607868409584285
0.8008839779005525,0.43204288470440977
0.8342541436464089,0.4363780985170738
0.8676243093922653,0.3940212240540273
0.9009944751381216,0.30838095481928984
0.934364640883978,0.19957287543781432
0.9677348066298344,0.09396853843117933
1.0011049723756906,0.010370788463386233
1.0344751381215471,-0.05004059874229398
1.0678453038674034,-0.10453156335114494
1.1012154696132597,-0.17947869452039486
1.1345856353591162,-0.2952350671616733
1.1679558011049724,-0.4529162117064837
1.201325966850829,-0.6303136208401917
1.2346961325966852,-0.7896789011026111
1.2680662983425415,-0.8938313501933751
1.301436464088398,-0.9223537941527308
1.3348066298342542,-0.8793676604389282
1.3681767955801105,-0.7888781573571004
1.401546961325967,-0.6804524581568787
1.4349171270718233,-0.5731395397436978
1.4682872928176796,-0.4661638145998459
1.501657458563536,-0.34086102496893356
1.5350276243093923,-0.17212546108365606
1.5683977900552488,0.057084095849770616
1.601767955801105,0.34540606301150156
1.6351381215469614,0.671014345910309
1.6685082872928179,0.9972451360993545
1.7018784530386741,1.2819485731551938
1.7352486187845306,1.4861812462055408
1.768618784530387,1.579942091426538
1.8019889502762432,1.5453206744094767
1.8353591160220997,1.3787044616713713
1.868729281767956,1.0928805790043163
1.9020994475138122,0.7179461980654105
1.9354696132596687,0.29880179289923275
1.968839779005525,-0.11204804626119805
2.0022099447513813,-0.4650365031950914
2.0355801104972375,-0.7237011648575287
2.0689502762430942,-0.870578509333506
2.1023204419889505,-0.9072666780281555
2.135690607734807,-0.8503333275485752
2.169060773480663,-0.7265372585984001
2.2024309392265193,-0.5698844639325453
2.235801104972376,-0.4200782192077175
2.2691712707182323,-0.3192350164435437
2.3025414364640886,-0.3036382334555771
2.335911602209945,-0.3904995821363298
2.369281767955801,-0.5645748458321435
2.402651933701658,-0.7728241449776972
2.436022099447514,-0.9342147705647842
2.4693922651933704,-0.965598484598032
2.5027624309392267,-0.8157836907125305
2.536132596685083,-0.4930532213373526
2.5695027624309392,-0.07092967533993365
2.602872928176796,0.33526017301116523
2.636243093922652,0.615007514131452
2.6696132596685085,0.7133978402061953
2.7029834254143648,0.6614583889978195
2.736353591160221,0.5676087474748414
2.7697237569060777,0.5683327121533316
2.803093922651934,0.7565761643739028
2.8364640883977903,1.1209331505244657
2.8698342541436466,1.5290157193185983
2.903204419889503,1.7716855174542288
2.936574585635359,1.6563754209065604
2.969944751381216,1.1100961670132814
3.003314917127072,0.24067142188370472
3.0366850828729284,-0.682333163907649
3.0700552486187846,-1.3300666375282817
3.103425414364641,-1.4606507741003207
3.1367955801104976,-1.041641745241916
3.170165745856354,-0.2848083504187185
3.20353591160221,0.43319113143140103
3.2369060773480665,0.735444168519445
3.2702762430939227,0.4203600632784318
3.3036464088397794,-0.43713032163581705
3.3370165745856357,-1.51162942638057
3.370386740331492,-2.371634220061365
3.4037569060773483,-2.67325916361004
3.4371270718232045,-2.3086395651141762
3.4704972375690613,-1.4380115490540806
3.5038674033149175,-0.3954282866487627
3.537237569060774,0.47726123397391496
3.57060773480663,0.9807489920660328
3.6039779005524863,1.1209490488154483
3.6373480662983426,1.0639103750372698
3.6707182320441993,1.019815225878756
3.7040883977900556,1.1240161155849062
3.737458563535912,1.3751036231619302
3.770828729281768,1.6525382760740719
3.8041988950276244,1.7931994059094767
3.837569060773481,1.6802619767751321
3.8709392265193374,1.2992220107870662
3.9043093922651937,0.739015821608105
3.93767955801105,0.14568907701452816
3.9710497237569062,-0.3432608699845025
4.0044198895027625,-0.651676091853786
4.037790055248619,-0.7834890414239534
4.071160220994475,-0.8045920255857683
4.104530386740332,-0.8014133825771735
4.1379005524861885,-0.8377122751554626
4.171270718232044,-0.9285916040432755
4.204640883977901,-1.0404644525164397
4.238011049723757,-1.1132239909779054
4.271381215469614,-1.0918545288612975
4.30475138121547,-0.9525616116726628
4.338121546961326,-0.7130432674569946
4.371491712707183,-0.42465871118572995
4.404861878453039,-0.15184158572391637
4.438232044198895,0.05184685734766191
4.471602209944752,0.16187421538794639
4.504972375690608,0.18932871841014798
4.538342541436465,0.17475073971439495
4.5717127071823205,0.1721156906716458
4.605082872928177,0.2285446609949818
4.638453038674034,0.36623880028087447
4.67182320441989,0.5724050605208155
4.7051933701657465,0.8007889096795522
4.738563535911602,0.9851429462693456
4.771933701657459,1.061103530104299
4.805303867403316,0.9895927999573844
4.8386740331491715,0.7734202547009366
4.872044198895028,0.4602770034643563
4.905414364640884,0.1297109658204382
4.938784530386741,-0.1324922331563494
4.972154696132597,-0.2640376833290855
5.005524861878453,-0.24922675169659028
5.03889502762431,-0.1263272880757539
5.072265193370166,0.02470853100862728
5.105635359116023,0.11091840934566607
5.1390055248618784,0.06150706293531825
5.172375690607735,-0.14371457859698636
5.205745856353592,-0.4641120925469003
5.239116022099448,-0.810990225235996
5.272486187845304,-1.0788706908773327
5.30585635359116,-1.1830650854561242
5.339226519337017,-1.0886653148556231
5.372596685082874,-0.8199064839719189
5.4059668508287295,-0.447444769312257
5.439337016574586,-0.06033675847607688
5.472707182320442,0.2649091667181773
5.506077348066299,0.48614284015492626
5.5394475138121555,0.6015103045771968
5.572817679558011,0.6400751155984952
5.606187845303868,0.6435548386313288
5.639558011049724,0.6479639753835704
5.672928176795581,0.6724201861816375
5.706298342541437,0.7179924601708835
5.739668508287293,0.7742575524318757
5.77303867403315,0.827606387308676
5.806408839779006,0.8652278857607554
5.839779005524862,0.8723677218364572
5.873149171270718,0.8259588941321464
5.906519337016575,0.6916507044760034
5.939889502762432,0.43076741646247857
5.9732596685082875,0.018437261648597162
6.006629834254144,-0.5333527509560528
6.04,-1.1595098042085368
6.073370165745857,-1.7441774194777961
6.1067403314917135,-2.1471935224884207
6.140110497237569,-2.2497919340866255
6.173480662983426,-2.0043802171612373
6.206850828729282,-1.4676905459370313
6.240220994475139,-0.7991067174251129
6.273591160220995,-0.21706483023555304
6.306961325966851,0.07678858017269555
6.340331491712708,-0.02035595431754832
6.373701657458564,-0.4584182172436299
6.40707182320442,-1.0364339948415107
6.440441988950277,-1.467811007857427
6.473812154696133,-1.48793862080795
6.50718232044199,-0.9612874446647681
6.5405524861878455,0.05828202960412111
6.573922651933702,1.3414059453846243
6.607292817679559,2.56588957704705
6.640662983425415,3.432410845242375
6.674033149171271,3.7647143852157288
6.707403314917127,3.555810780025398
6.740773480662984,2.947873932902993
6.774143646408841,2.1619850271793193
6.8075138121546965,1.4116377528108646
6.840883977900553,0.8349968019203577
6.874254143646409,0.46767147485133403
6.907624309392266,0.25821811115320426
6.9409944751381225,0.1117567589060375
6.974364640883978,-0.06082613362366648
7.007734806629835,-0.3081247310785256
7.041104972375691,-0.627962399031698
7.074475138121548,-0.9796864912883674
7.107845303867403,-1.3084591922991906
7.14121546961326,-1.5688359596076953
7.174585635359117,-1.7386831553675488
7.207955801104973,-1.8209011652820628
7.241325966850829,-1.835766686637631
7.274696132596685,-1.8090162706798671
7.308066298342542,-1.760441308867288
7.341436464088399,-1.6963237322264937
7.3748066298342545,-1.6076438531784178
7.408176795580111,-1.4746522363999512
7.441546961325967,-1.2766242324357013
7.474917127071824,-1.003472350937927
7.5082872928176805,-0.6644067502511711
7.541657458563536,-0.28932425991319727
7.575027624309393,0.07853856652044629
7.608397790055249,0.396134056042245
7.641767955801106,0.6347689833637168
7.675138121546962,0.7890830860914091
7.708508287292818,0.8774554474320068
7.741878453038675,0.934091353611508
7.775248618784531,0.9960524600885586
7.808618784530387,1.0898624241026953
7.841988950276244,1.2220261813808977
7.8753591160221,1.376295737419202
7.908729281767957,1.5183051505470782
7.9420994475138125,1.6058545074157988
7.975469613259669,1.6013812773691303
8.008839779005525,1.482691812279616
8.042209944751383,1.2490043179448558
8.075580110497238,0.9212325567145473
8.108950276243094,0.5372743945964262
8.14232044198895,0.14413102964082602
8.175690607734808,-0.2111522377010468
8.209060773480664,-0.49007558364367665
8.24243093922652,-0.669512160883379
8.275801104972377,-0.7456240376218364
8.309171270718233,-0.7338276852088799
8.342541436464089,-0.6642712252648442
8.375911602209946,-0.5734332013592351
8.409281767955802,-0.4939549612514484
8.442651933701658,-0.44587315879462586
8.476022099447514,-0.4322482487029185
8.509392265193371,-0.4406543934952359
8.542762430939227,-0.4497734429479813
8.576132596685083,-0.4384671096476561
8.60950276243094,-0.3939725109231652
8.642872928176796,-0.31642904204437283
8.676243093922652,-0.21841012103682708
8.709613259668508,-0.11992252750702996
8.742983425414366,-0.040927008910005044
8.776353591160222,0.005630694010877455
8.809723756906077,0.017425408601522713
8.843093922651935,0.0015293645330552443
8.87646408839779,-0.03085180547630576
8.909834254143647,-0.07080615264632674
8.943204419889504,-0.1157219658373051
8.97657458563536,-0.16858442682706856
9.009944751381216,-0.23301048176246258
9.043314917127072,-0.3070963607500219
9.07668508287293,-0.38003458242079574
9.110055248618785,-0.43396093994708285
9.143425414364641,-0.4504553290358152
9.176795580110499,-0.4183642805006147
9.210165745856354,-0.33878990173148765
9.24353591160221,-0.22464575412216495
9.276906077348068,-0.09512782390362247
9.310276243093924,0.031938296450993164
9.34364640883978,0.14602353183606367
9.377016574585635,0.24540566722681387
9.410386740331493,0.33403926730251793
9.443756906077349,0.41601744721121303
9.477127071823205,0.491072803739529
9.510497237569062,0.5539030686638894
9.543867403314918,0.5978465017513485
9.577237569060774,0.6207282675801464
9.610607734806631,0.6290702878797337
9.643977900552487,0.6373458471066104
9.677348066298343,0.6614692186511719
9.710718232044199,0.7089878506008045
9.744088397790057,0.7707547913806851
9.777458563535912,0.8189144036149067
9.810828729281768,0.813645304852316
9.844198895027626,0.7172462183013569
9.877569060773482,0.5105007323951292
9.910939226519337,0.20448635746377603
9.944309392265193,-0.1579073708810127
9.97767955801105,-0.5126720551367744
10.011049723756907,-0.794389620045241
10.044419889502763,-0.9575964126297467
10.07779005524862,-0.9913097406642867
10.111160220994476,-0.9208817527071941
10.144530386740332,-0.79664557668771
10.17790055248619,-0.6742522665333225
10.211270718232045,-0.5946683070334111
10.244640883977901,-0.5713381756936057
10.278011049723757,-0.5885961621108214
10.311381215469615,-0.6108132060384224
10.34475138121547,-0.5979314559313691
10.378121546961326,-0.5212457782295609
10.411491712707184,-0.3738439552509218
10.44486187845304,-0.17251267533979847
10.478232044198895,0.048829962992596516
10.511602209944753,0.2511562855504142
10.544972375690609,0.4031299242715629
10.578342541436465,0.49016810951826145
10.61171270718232,0.5170041947418063
10.645082872928178,0.5035130594954991
10.678453038674034,0.47584610624370344
10.71182320441989,0.4562503924328006
10.745193370165747,0.45508200137699106
10.778563535911603,0.4676094550514401
10.811933701657459,0.47657602820120243
10.845303867403315,0.4595849979622576
10.878674033149172,0.3987002393985549
10.912044198895028,0.2887520305516131
10.945414364640884,0.14111344120532351
10.978784530386742,-0.01877206054495952
11.012154696132598,-0.15951676468539136
11.045524861878453,-0.2547276611547563
11.078895027624311,-0.2926800941673085
11.112265193370167,-0.28097077042744084
11.145635359116023,-0.24416300567302518
11.179005524861878,-0.21495832133237477
11.212375690607736,-0.2217854537463748
11.245745856353592,-0.27710776303624873
11.279116022099448,-0.3707589445503479
11.312486187845305,-0.47116257393204447
11.345856353591161,-0.5347318473194173
11.379226519337017,-0.5208389922237475
11.412596685082875,-0.4074724564704273
11.44596685082873,-0.20194588482594203
11.479337016574586,0.057776490158644056
11.512707182320442,0.3126301672115858
11.5460773480663,0.5005494110341306
11.579447513812156,0.5774030987354611
11.612817679558011,0.5334266552898798
11.646187845303869,0.39872905747261944
11.679558011049725,0.23480795921251377
11.71292817679558,0.11379543177298265
11.746298342541436,0.09186058472285685
11.779668508287294,0.1862001088766949
11.81303867403315,0.36500718252874875
11.846408839779006,0.5560640332132883
11.879779005524863,0.672745788473002
11.91314917127072,0.6484858263691989
11.946519337016575,0.4656220034404605
11.979889502762433,0.1652691061253173
12.013259668508288,-0.16763941373323296
12.046629834254144,-0.4385187783856699
12.08,-0.5811654917176635
12.113370165745858,-0.5819615252415726
12.146740331491714,-0.47942441803826125
12.18011049723757,-0.34086060227513915
12.213480662983427,-0.22922845192608785
12.246850828729283,-0.17725280361179718
12.280220994475139,-0.1805972769883833
12.313591160220996,-0.21092666726644674
12.346961325966852,-0.23926129245390804
12.380331491712708,-0.2555628048126567
12.413701657458564,-0.27376881616738774
12.447071823204421,-0.32014054559573873
12.480441988950277,-0.4119860332143812
12.513812154696133,-0.5389550250144051
12.54718232044199,-0.6578995235413418
12.580552486187846,-0.7055907403812651
12.613922651933702,-0.6246584946705684
12.64729281767956,-0.39116213105238284
12.680662983425416,-0.030556214891711873
12.714033149171271,0.38647422826088845
12.747403314917127,0.7676840631270424
12.780773480662985,1.0325194346829387
12.81414364640884,1.1402785636494286
12.847513812154697,1.1008914809266606
12.880883977900554,0.9643823062618095
12.91425414364641,0.795055672124618
12.947624309392266,0.6429821183781382
12.980994475138122,0.525479067014197
13.01436464088398,0.42554334694229956
13.047734806629835,0.3059759745651885
13.081104972375691,0.1313702022984631
13.114475138121549,-0.11210755428812073
13.147845303867404,-0.40693919328124917
13.18121546961326,-0.7073571945735877
13.214585635359118,-0.9531818135118983
13.247955801104974,-1.0889337125076513
13.28132596685083,-1.081713783270734
13.314696132596685,-0.9322088900578209
13.348066298342543,-0.6753823822657695
13.381436464088399,-0.3704480170445875
13.414806629834255,-0.08305487397465598
13.448176795580112,0.134609931506479
13.481546961325968,0.25891963693192566
13.514917127071824,0.2994914216990414
13.548287292817681,0.2915679986267744
13.581657458563537,0.2792232762227606
13.615027624309393,0.29662729522580367
13.648397790055249,0.3555704819158729
13.681767955801106,0.44434833262733076
13.715138121546962,0.5372600669844401
13.748508287292818,0.6085359208675246
13.781878453038676,0.6427056059748119
13.815248618784532,0.6364109427690413
13.848618784530387,0.592548951355125
13.881988950276245,0.5125356556885632
13.9153591160221,0.3931502967349719
13.948729281767957,0.2305185450542164
13.982099447513813,0.028182451599397584
14.01546961325967,-0.19710343879846107
14.048839779005526,-0.41693939930635754
14.082209944751382,-0.6004656968136778
14.11558011049724,-0.7264206234455178
14.148950276243095,-0.7914080443900788
14.182320441988951,-0.8098278555043846
14.215690607734807,-0.8054699812842456
14.249060773480664,-0.7990091198565177
14.28243093922652,-0.7974589289408733
14.315801104972376,-0.7905121048278847
14.349171270718234,-0.7554661362998876
14.38254143646409,-0.6686320475820288
14.415911602209945,-0.5182415938631678
14.449281767955803,-0.31298757462040777
14.482651933701659,-0.08187994409986346
14.516022099447515,0.13534479086335494
14.54939226519337,0.3037657687863323
14.582762430939228,0.40814658101971235
14.616132596685084,0.4601056106092168
14.64950276243094,0.49343364621153285
14.682872928176797,0.5485865838450419
14.716243093922653,0.6526649290071357
14.749613259668509,0.8040209236340832
14.782983425414367,0.9693189352375469
14.816353591160222,1.0955810997301387
14.849723756906078,1.132693224175733
14.883093922651934,1.0564123360799416
14.916464088397792,0.8810149880738551
14.949834254143648,0.6551647728155505
14.983204419889503,0.44239295356017394
15.016574585635361,0.29485509820585143
15.049944751381217,0.23197713404577094
15.083314917127073,0.232860380636776
15.116685082872928,0.24472414708819648
15.150055248618786,0.20298507423065543
15.183425414364642,0.05495723744599259
15.216795580110498,-0.22064841899817292
15.250165745856355,-0.6037236743156219
15.283535911602211,-1.0346794854960197
15.316906077348067,-1.4282666104745885
15.350276243093925,-1.6967840488442587
15.38364640883978,-1.7770393070936554
15.417016574585636,-1.652521925770256
15.450386740331492,-1.3617251615432513
15.48375690607735,-0.98719129365225
15.517127071823205,-0.6271844513319809
15.550497237569061,-0.35981393691512675
15.583867403314919,-0.2138667468919412
15.617237569060775,-0.15892190408361803
15.65060773480663,-0.11982735009505294
15.683977900552488,-0.010436706988218518
15.717348066298344,0.22694087744355138
15.7507182320442,0.5928386181062014
15.784088397790056,1.0250277660451252
15.817458563535913,1.4187882836612693
15.85082872928177,1.6648921277800244
15.884198895027625,1.6896998583255618
15.917569060773483,1.481199321832305
15.950939226519338,1.0912925440870083
15.984309392265194,0.6150315910354466
16.01767955801105,0.15689810696219114
16.051049723756908,-0.2016323987761582
16.084419889502765,-0.42154464869664554
16.11779005524862,-0.508283230575219
16.151160220994477,-0.4995481826134657
16.18453038674033,-0.44654791280030687
16.21790055248619,-0.3962149137743661
16.251270718232046,-0.3788047645894911
16.2846408839779,-0.4021218320298703
16.318011049723758,-0.45208027996822253
16.351381215469615,-0.4990301289126017
16.38475138121547,-0.5087329298913208
16.418121546961327,-0.4552947795518307
16.451491712707185,-0.33168868118049527
16.48486187845304,-0.1534894591732445
16.518232044198896,0.046071083702987514
16.551602209944754,0.2277332127625634
16.584972375690608,0.359530374259783
16.618342541436466,0.42646090885894034
16.651712707182323,0.43341810759813976
16.685082872928177,0.40148397050406165
16.718453038674035,0.35994935981864284
16.751823204419892,0.33693810573597716
16.785193370165747,0.35085908131521903
16.818563535911604,0.4042355917625478
16.851933701657458,0.4813627780527771
16.885303867403316,0.5512539900029046
16.918674033149173,0.5764335577199259
16.952044198895027,0.5258660484410073
16.985414364640885,0.38758378403653665
17.018784530386743,0.17528934584216332
17.052154696132597,-0.07509832869708445
17.085524861878454,-0.31853787267233713
17.118895027624312,-0.5182072137169963
17.152265193370166,-0.6591700754661686
17.185635359116024,-0.7520664287642328
17.21900552486188,-0.8254596332046229
17.252375690607735,-0.91083740050742
17.285745856353593,-1.0271222507550097
17.31911602209945,-1.170819385361778
17.352486187845304,-1.3147910775854
17.385856353591162,-1.4152780506297427
17.419226519337016,-1.4246516773698121
