Time (s),Filtered Signal
0.0,0.019697480059383272
0.0334075723830735,-1.006295356967204
0.066815144766147,-1.7727423104302544
0.1002227171492205,-2.1104209709448356
0.133630289532294,-1.9934310201643417
0.1670378619153675,-1.5348137815523406
0.200445434298441,-0.9305949922778495
0.23385300668151449,-0.3798182873683962
0.267260579064588,-0.015735806370501346
0.3006681514476615,0.12569205334914121
0.334075723830735,0.09362174290370193
0.3674832962138085,-0.019903304541413258
0.400890868596882,-0.1279728640394834
0.4342984409799555,-0.1807819533329001
0.46770601336302897,-0.1718661481072376
0.5011135857461025,-0.12306039028413854
0.534521158129176,-0.06143783129252061
0.5679287305122495,-0.001782380787449861
0.601336302895323,0.058173366577364244
0.6347438752783965,0.13068574656069706
0.66815144766147,0.2256470304392253
0.7015590200445435,0.3405632803610574
0.734966592427617,0.4578186701405425
0.7683741648106905,0.54994464212254
0.801781737193764,0.5899552447900465
0.8351893095768375,0.5620037481917244
0.868596881959911,0.4679158269191759
0.9020044543429845,0.3270759275452457
0.9354120267260579,0.1698211514211067
0.9688195991091315,0.026979979228168083
1.002227171492205,-0.08034598195496759
1.0356347438752784,-0.14674801434146134
1.069042316258352,-0.18190506066133935
1.1024498886414256,-0.2038281220154207
1.135857461024499,-0.22907343895961754
1.1692650334075725,-0.26444331053586406
1.202672605790646,-0.3039918761621355
1.2360801781737194,-0.3325501925645962
1.269487750556793,-0.3337429747771864
1.3028953229398665,-0.29830542753003897
1.33630289532294,-0.22860593591242412
1.3697104677060135,-0.1375438564584336
1.403118040089087,-0.04306439232685761
1.4365256124721606,0.0383947410693675
1.469933184855234,0.0962842611590615
1.5033407572383075,0.12689562723428424
1.536748329621381,0.13205659322470184
1.5701559020044544,0.11788868785218677
1.603563474387528,0.09501318461965301
1.6369710467706016,0.07931658862658901
1.670378619153675,0.0906018681992035
1.7037861915367485,0.14683745375512033
1.737193763919822,0.25452805187815697
1.7706013363028954,0.3993952287649938
1.804008908685969,0.5435053036883573
1.8374164810690425,0.6333157725158688
1.8708240534521159,0.6180252271919117
1.9042316258351895,0.47159603003915307
1.937639198218263,0.20835983700552232
1.9710467706013366,-0.11636571794235567
2.00445434298441,-0.42293437016183444
2.0378619153674835,-0.6354658870681507
2.071269487750557,-0.709739811103211
2.1046770601336307,-0.6488621942809348
2.138084632516704,-0.5000007784499727
2.1714922048997773,-0.33388173362175894
2.204899777282851,-0.21615051619101075
2.2383073496659245,-0.18275689681163237
2.271714922048998,-0.22911093428084578
2.3051224944320716,-0.31630039089878903
2.338530066815145,-0.3902707254142648
2.3719376391982183,-0.40483912656410415
2.405345211581292,-0.33876073415686386
2.4387527839643655,-0.2007050300140303
2.472160356347439,-0.021898395258519048
2.5055679287305126,0.15857570124723352
2.538975501113586,0.30857300174672375
2.5723830734966593,0.4118572628915821
2.605790645879733,0.4689806623040695
2.6391982182628064,0.4916773012102237
2.67260579064588,0.4946610352842667
2.7060133630289536,0.48882159779912393
2.739420935412027,0.4782300824943835
2.7728285077951007,0.4611512070845256
2.806236080178174,0.43345225994279873
2.8396436525612474,0.39207420363828693
2.873051224944321,0.33674305736296134
2.9064587973273945,0.2694443095566792
2.939866369710468,0.1925646101841711
2.9732739420935417,0.10724927836418556
3.006681514476615,0.01313780190485319
3.0400890868596884,-0.09041363121431686
3.073496659242762,-0.20248142096447388
3.1069042316258355,-0.3192260332152331
3.140311804008909,-0.4336819266894318
3.1737193763919826,-0.536531762563777
3.207126948775056,-0.6172508021954981
3.2405345211581293,-0.6651877516507271
3.273942093541203,-0.670733130271156
3.3073496659242765,-0.6271181841293906
3.34075723830735,-0.5330984624403432
3.3741648106904236,-0.39584515452018226
3.407572383073497,-0.23240648112780088
3.4409799554565703,-0.06791433408765893
3.474387527839644,0.07026426115310046
3.5077951002227175,0.1612695495548458
3.541202672605791,0.19922687198559438
3.5746102449888646,0.19737429961878225
3.608017817371938,0.18469300135188266
3.6414253897550113,0.19475838357660225
3.674832962138085,0.25040078882013417
3.7082405345211584,0.3508441754681449
3.7416481069042318,0.4682936622140017
3.7750556792873056,0.5574795073155682
3.808463251670379,0.5754732496238081
3.8418708240534527,0.5031806934818773
3.875278396436526,0.35776408145518873
3.9086859688195994,0.18862199925028333
3.942093541202673,0.05719453802647191
3.9755011135857465,0.009015391856558214
4.00890868596882,0.05093808268244959
4.042316258351893,0.14492464245674966
4.075723830734967,0.2226746002522922
4.109131403118041,0.21575993404011498
4.142538975501114,0.08818853412838372
4.1759465478841875,-0.14373900067967296
4.209354120267261,-0.4143679197878
4.242761692650334,-0.6343214021025491
4.276169265033408,-0.7280712910965792
4.309576837416482,-0.6667404525819308
4.342984409799555,-0.48116763787211425
4.3763919821826285,-0.24897796778408157
4.409799554565702,-0.06107757193174465
4.443207126948775,0.017695360770002694
4.476614699331849,-0.023728252077160058
4.510022271714923,-0.1390342855087379
4.543429844097996,-0.2467566214927249
4.5768374164810695,-0.2684946228910279
4.610244988864143,-0.16591075277370834
4.643652561247216,0.040347648281381966
4.67706013363029,0.2785925058443139
4.710467706013364,0.45747638852133515
4.743875278396437,0.5066381013184668
4.77728285077951,0.4082222689765877
4.810690423162584,0.20517281427716663
4.844097995545657,-0.017103679692074866
4.877505567928731,-0.16712037674990643
4.910913140311805,-0.18544060326856493
4.944320712694878,-0.06817215666204686
4.977728285077951,0.13334631551901455
5.011135857461025,0.33500512640337154
5.044543429844098,0.4535735627743253
5.077951002227172,0.43697181893130843
5.111358574610246,0.27982656784269505
5.144766146993319,0.020775352165590618
5.178173719376392,-0.2739825862384851
5.211581291759466,-0.5320857243059754
5.244988864142539,-0.6933691291437504
5.278396436525613,-0.7213902730471311
5.311804008908687,-0.6084876579699873
5.34521158129176,-0.3762148176897266
5.378619153674833,-0.07171909129165432
5.412026726057907,0.24109559582701473
5.445434298440981,0.496375299876879
5.478841870824054,0.6447001353610506
5.512249443207128,0.6688492827764557
5.545657015590201,0.5895238976916451
5.579064587973274,0.45680172755068676
5.612472160356348,0.3295701666300569
5.645879732739422,0.2513676579155915
5.679287305122495,0.23327923745927873
5.712694877505569,0.2513736454517068
5.746102449888642,0.2593494520711751
5.779510022271715,0.21024767926376156
5.812917594654789,0.07763697768295925
5.846325167037863,-0.13222238687920002
5.879732739420936,-0.38130609401132304
5.91314031180401,-0.6126248535068936
5.946547884187083,-0.7696501524017677
5.979955456570156,-0.8153573712576279
6.01336302895323,-0.7443944181046813
6.046770601336304,-0.584279977957952
6.080178173719377,-0.3852235725111531
6.1135857461024505,-0.2022038775250037
6.146993318485524,-0.07596719599907599
6.180400890868597,-0.020235416066652506
6.213808463251671,-0.020065158092058253
6.247216035634745,-0.0417416640499472
6.280623608017818,-0.049713522719491365
6.3140311804008915,-0.023032032280565454
6.347438752783965,0.03602469997561539
6.380846325167038,0.10495380502486441
6.414253897550112,0.15411795810733012
6.447661469933186,0.16360602861124524
6.481069042316259,0.13563744834764438
6.5144766146993325,0.09626946086196181
6.547884187082406,0.0851617354841556
6.581291759465479,0.13774349556187698
6.614699331848553,0.26762161521326105
6.648106904231627,0.4569061204363286
6.6815144766147,0.6586314976709737
6.7149220489977735,0.8104732600043405
6.748329621380847,0.8547501114984094
6.78173719376392,0.7577568611755847
6.815144766146994,0.5220649623217144
6.848552338530068,0.18791904450417024
6.881959910913141,-0.17671080564125444
6.915367483296214,-0.49443298249449685
6.948775055679288,-0.6995689732120843
6.982182628062361,-0.7557157851191576
7.015590200445435,-0.6644840432287613
7.048997772828509,-0.4630095098101518
7.082405345211582,-0.21140080634536226
7.115812917594655,0.025642713983387196
7.149220489977729,0.19716171756902315
7.182628062360802,0.2785183768957579
7.216035634743876,0.27446017068629347
7.24944320712695,0.21208021601568805
7.282850779510023,0.12663680932655835
7.316258351893096,0.045912877551311605
7.34966592427617,-0.02048044788849132
7.383073496659243,-0.08230655538712173
7.416481069042317,-0.15984349046433358
7.449888641425391,-0.26898208448416816
7.4832962138084635,-0.40744388358601313
7.516703786191537,-0.549293963384424
7.550111358574611,-0.6514235359828712
7.583518930957685,-0.6700111999090792
7.616926503340758,-0.5798132169586018
7.650334075723832,-0.38722777518880735
7.683741648106905,-0.13068781090356396
7.717149220489978,0.1320863749899726
7.750556792873052,0.3442104185508082
7.783964365256126,0.46821188875966896
7.817371937639199,0.4955979985166522
7.850779510022273,0.4448869974164566
7.884187082405346,0.35096327935691884
7.917594654788419,0.2515758424732257
7.951002227171493,0.17632507659354543
7.984409799554567,0.14075427930928539
8.01781737193764,0.1453542861662928
8.051224944320714,0.17793501748559384
8.084632516703786,0.21798279988335578
8.118040089086861,0.24231438025975474
8.151447661469934,0.23154417564714808
8.184855233853007,0.17632580420185806
8.218262806236082,0.08153015907626572
8.251670378619155,-0.03367893431743449
8.285077951002227,-0.140942468040592
8.318485523385302,-0.212025258762861
8.351893095768375,-0.2291918445267627
8.385300668151448,-0.1923242458453019
8.418708240534523,-0.11931012788241964
8.452115812917596,-0.03900473800522254
8.485523385300668,0.02045757513505338
8.518930957683743,0.042883779946533425
8.552338530066816,0.02979643161896415
8.585746102449889,-0.0015870431751938096
8.619153674832964,-0.026800612852377496
8.652561247216036,-0.02480820416916734
8.68596881959911,0.013804601208346496
8.719376391982184,0.08402563262027918
8.752783964365257,0.1689888888839414
8.78619153674833,0.245654877502337
8.819599109131405,0.2908480755923719
8.853006681514477,0.28605334512305086
8.88641425389755,0.22092803958201962
8.919821826280625,0.0961026107223023
8.953229398663698,-0.07488022354204901
8.98663697104677,-0.26583983494294305
9.020044543429846,-0.4420717940619304
9.053452115812918,-0.5685329781414216
9.086859688195991,-0.6199228788913717
9.120267260579066,-0.5887295422967045
9.153674832962139,-0.4876083418560781
9.187082405345212,-0.3448675739309037
9.220489977728286,-0.19497221774884105
9.25389755011136,-0.06803357187401428
9.287305122494432,0.017796442709539367
9.320712694877507,0.05893693083621004
9.35412026726058,0.06424969166452377
9.387527839643653,0.05001806179344043
9.420935412026727,0.03420326725917389
9.4543429844098,0.03152340369738571
9.487750556792873,0.050053981604641556
9.521158129175948,0.08957530669364736
9.55456570155902,0.1419196503637693
9.587973273942094,0.19372650327649119
9.621380846325168,0.23168293692216083
9.654788418708241,0.24916204729826977
9.688195991091314,0.251579046079416
9.721603563474389,0.2569278580576852
9.755011135857462,0.28909041328026386
9.788418708240535,0.36490578819251807
9.82182628062361,0.48028266938172126
9.855233853006682,0.6032166153149335
9.888641425389755,0.6800607901514266
9.92204899777283,0.6554753106167595
9.955456570155903,0.49869988094066064
9.988864142538976,0.22355857729981168
10.02227171492205,-0.10936939574966821
10.055679287305123,-0.41220683145115494
10.089086859688196,-0.6037083872705089
10.12249443207127,-0.6423257088546976
10.155902004454344,-0.5425557172400607
10.189309576837417,-0.3666333445365463
10.222717149220491,-0.19587531445091294
10.256124721603564,-0.09589865314904601
10.289532293986637,-0.09221969638282018
10.322939866369712,-0.16648087914792906
10.356347438752785,-0.272558831117285
10.389755011135858,-0.36216344815821616
10.423162583518932,-0.4061219524874104
10.456570155902005,-0.4015518950031262
10.489977728285078,-0.36379266175418284
10.523385300668153,-0.31031352485683333
10.556792873051226,-0.24740494139964753
10.590200445434299,-0.16767770186813133
10.623608017817373,-0.05920024564466904
10.657015590200446,0.08017758394558808
10.69042316258352,0.23294938336947588
10.723830734966594,0.3635721472813069
10.757238307349667,0.43194890489309024
10.790645879732741,0.41226540289070474
10.824053452115814,0.30739125700030373
10.857461024498887,0.1510286414200461
10.890868596881962,-0.004146584775503699
10.924276169265035,-0.107148318036629
10.957683741648108,-0.12862688057870603
10.991091314031182,-0.07103634106218719
11.024498886414255,0.03510843419401757
11.057906458797328,0.14621034867947644
11.091314031180403,0.22400344453291862
11.124721603563476,0.2487512315940089
11.158129175946549,0.22221175279424127
11.191536748329623,0.16118062384358361
11.224944320712696,0.08705066752289171
11.25835189309577,0.01776265213280443
11.291759465478844,-0.0343793130852212
11.325167037861917,-0.060135131437733746
11.35857461024499,-0.05034684579337107
11.391982182628064,0.003205311288259594
11.425389755011137,0.10211978523816077
11.45879732739421,0.23410841540105268
11.492204899777285,0.3697763040041691
11.525612472160358,0.46782923674485355
11.55902004454343,0.4886098337175613
11.592427616926505,0.41061587762150203
11.625835189309578,0.2418543124506707
11.659242761692651,0.01954593236204502
11.692650334075726,-0.20276911537763118
11.726057906458799,-0.375277952339284
11.759465478841872,-0.4700095129455647
11.792873051224946,-0.4890210490853813
11.82628062360802,-0.45966214894954177
11.859688195991092,-0.419972508168688
11.893095768374167,-0.40131548522604865
11.92650334075724,-0.41577139087099324
11.959910913140313,-0.45294176257168567
11.993318485523387,-0.4863827676933623
12.02672605790646,-0.4860000402140134
12.060133630289533,-0.43090893976165684
12.093541202672608,-0.31785689028415837
12.12694877505568,-0.1625913588562724
12.160356347438753,0.0056905955599636775
12.193763919821828,0.1544631013752418
12.227171492204901,0.2589628519952295
12.260579064587974,0.31038330225805716
12.293986636971049,0.3180537243610737
12.327394209354122,0.3043821492859923
12.360801781737194,0.2941902659800489
12.39420935412027,0.3028868628482555
12.427616926503342,0.3291281981880068
12.461024498886415,0.3560038872113413
12.49443207126949,0.3606758049142086
12.527839643652563,0.3278137838005814
12.561247216035635,0.25977336224452674
12.59465478841871,0.17782046475789098
12.628062360801783,0.11323029867325937
12.661469933184856,0.09234936912215813
12.69487750556793,0.1229227740510491
12.728285077951004,0.18854218577722515
12.761692650334076,0.2542471868222883
12.795100222717151,0.28099880778186137
12.828507795100224,0.2424659689296568
12.861915367483297,0.1363507134816156
12.895322939866372,-0.015045732642888346
12.928730512249444,-0.1752394083337958
12.962138084632517,-0.30989081631986204
12.995545657015592,-0.4010520990245034
13.028953229398665,-0.4523486694477526
13.062360801781738,-0.48267612604396315
13.095768374164813,-0.5118970869618837
13.129175946547885,-0.5462406913512017
13.162583518930958,-0.5714007754504451
13.195991091314033,-0.5574785876182607
13.229398663697106,-0.4738768299285756
13.262806236080179,-0.3071000129208861
13.296213808463254,-0.07270443390604635
13.329621380846326,0.18487856263423408
13.3630289532294,0.4055317182894204
13.396436525612474,0.5347571872790131
13.429844097995547,0.544539800914185
13.46325167037862,0.44513621415754623
13.496659242761694,0.2826342354436586
13.530066815144767,0.12273375939600664
13.56347438752784,0.02670774711824326
13.596881959910915,0.028704456393257888
13.630289532293988,0.12314189804827905
13.66369710467706,0.26707015727194744
13.697104677060135,0.3965977448820648
13.730512249443208,0.4511018813665083
13.763919821826281,0.39605243354222175
13.797327394209356,0.2359170709947732
13.830734966592429,0.01245080433754651
13.864142538975502,-0.21078172270922635
13.897550111358576,-0.3716104458366373
13.93095768374165,-0.43124795712399216
13.964365256124722,-0.3866788181046104
13.997772828507797,-0.2690085133822267
14.03118040089087,-0.12915492505747536
14.064587973273943,-0.017475689957884503
14.097995545657017,0.03390104842063346
14.13140311804009,0.01918072419968146
14.164810690423163,-0.04447589666276986
14.198218262806238,-0.12837993378159254
14.23162583518931,-0.20533491938535633
14.265033407572384,-0.25837592682366717
14.298440979955458,-0.2827137012389631
14.331848552338531,-0.2822469741396278
14.365256124721604,-0.2641815845347496
14.398663697104679,-0.23493596361798028
14.432071269487752,-0.19849352633442763
14.465478841870825,-0.15642628994276023
14.4988864142539,-0.10824139425106685
14.532293986636972,-0.051489916691001905
14.565701559020045,0.017824752027956324
14.59910913140312,0.10370247014800692
14.632516703786193,0.20740764096523928
14.665924276169266,0.3246569257594791
14.69933184855234,0.44442589785357656
14.732739420935413,0.5504991587261636
14.766146993318486,0.6254919345275228
14.79955456570156,0.6557286665056334
14.832962138084634,0.6348952409341388
14.866369710467707,0.5650264222192168
14.899777282850781,0.45472285252634065
14.933184855233854,0.31575054856143414
14.966592427616927,0.15973924265154904
15.0,-0.0036112506133091165
