Frequency (Hz),Amplitude
0.0,1.8445788554602718
0.019801980198019802,1.8436790526188693
0.039603960396039604,1.8409805252380274
0.0594059405940594,1.8364859159272917
0.07920792079207921,1.830199626302277
0.09900990099009901,1.822127812890091
0.1188118811881188,1.81227838140806
0.13861386138613863,1.8006609794277701
0.15841584158415842,1.787286987439389
0.1782178217821782,1.7721695083359108
0.19801980198019803,1.7553233553404561
0.21782178217821782,1.7367650384055258
0.2376237623762376,1.7165127491180476
0.25742574257425743,1.6945863441503413
0.27722772277227725,1.6710073273051669
0.297029702970297,1.645798830211282
0.31683168316831684,1.6189855917368285
0.33663366336633666,1.5905939362014965
0.3564356435643564,1.560651750483648
0.37623762376237624,1.5291884601403782
0.39603960396039606,1.496235004683499
0.4158415841584158,1.461823812188582
0.43564356435643564,1.4259887734576961
0.45544554455445546,1.3887652160142998
0.4752475247524752,1.3501898782850756
0.495049504950495,1.3103008844275557
0.5148514851485149,1.269137720402887
0.5346534653465347,1.226741212088552
0.5544554455445545,1.1831535064983763
0.5742574257425742,1.138418057564479
0.594059405940594,1.0925796184930343
0.613861386138614,1.045684243521667
0.6336633663366337,0.9977793031202322
0.6534653465346534,0.9489135185179901
0.6732673267326733,0.8991370242905533
0.6930693069306931,0.8485014722536599
0.7128712871287128,0.7970601972375874
0.7326732673267327,0.7448684775489363
0.7524752475247525,0.6919839439966929
0.7722772277227723,0.6384672289617853
0.7920792079207921,0.584383016859741
0.8118811881188118,0.529801793355863
0.8316831683168316,0.47480287017642275
0.8514851485148516,0.41947987452190444
0.8712871287128713,0.3639513393165135
0.891089108910891,0.30838278504334715
0.9108910891089109,0.25303761259546487
0.9306930693069307,0.19841090170322997
0.9504950495049505,0.14564860789759668
0.9702970297029703,0.09818118991629446
0.99009900990099,0.06849024306596325
1.00990099009901,0.07992308105064196
1.0297029702970297,0.12134266228554956
1.0495049504950495,0.17224448078334934
1.0693069306930694,0.22619124393734158
1.0891089108910892,0.2812896036449099
1.108910891089109,0.33681425409919563
1.1287128712871286,0.39241463133843874
1.1485148514851484,0.44788669651888197
1.1683168316831685,0.503092774187627
1.188118811881188,0.5579287898692368
1.2079207920792079,0.612309260166132
1.227722772277228,0.6661597851175821
1.2475247524752475,0.7194130261192081
1.2673267326732673,0.7720064311461916
1.2871287128712872,0.8238808921195502
1.3069306930693068,0.8749799259591815
1.3267326732673268,0.9252491629617823
1.3465346534653466,0.9746360223444294
1.3663366336633662,1.0230895054467344
1.3861386138613863,1.0705600649301754
1.405940594059406,1.1169995242106354
1.4257425742574257,1.1623610307418317
1.4455445544554455,1.2065990324703049
1.4653465346534653,1.249669270341953
1.4851485148514851,1.2915287820136716
1.504950495049505,1.332135913409288
1.5247524752475248,1.371450335747781
1.5445544554455446,1.4094330663412638
1.5643564356435644,1.446046491923222
1.5841584158415842,1.4812543935896652
1.6039603960396038,1.5150219726659633
1.6237623762376237,1.5473158769769444
1.6435643564356437,1.5781042271178118
1.6633663366336633,1.6073566424129455
1.683168316831683,1.6350442663147298
1.7029702970297032,1.6611397910455523
1.7227722772277227,1.6856174813235638
1.7425742574257426,1.708453197042602
1.7623762376237624,1.7296244147995603
1.782178217821782,1.7491102481809135
1.801980198019802,1.7668914667342528
1.8217821782178218,1.7829505135630657
1.8415841584158414,1.797271521492138
1.8613861386138615,1.8098403277597532
1.881188118811881,1.8206444871989198
1.900990099009901,1.8296732838765564
1.920792079207921,1.8369177411641218
1.9405940594059405,1.842370630218226
1.9603960396039604,1.8460264768535826
1.98019801980198,1.8478815667947075
2.0,1.8479339492963378
2.01980198019802,1.8461834391257328
2.0396039603960396,1.842631616903727
2.0594059405940595,1.8372818278044172
2.0792079207920793,1.8301391786165802
2.099009900990099,1.8212105331735235
2.118811881188119,1.8105045061615024
2.1386138613861387,1.7980314553201366
2.1584158415841586,1.783803472052908
2.1782178217821784,1.7678343704693922
2.1980198019801978,1.7501396748862128
2.217821782178218,1.730736605818944
2.237623762376238,1.709644064503371
2.257425742574257,1.6868826159917993
2.2772277227722775,1.6624744708789487
2.297029702970297,1.6364434657218678
2.3168316831683167,1.6088150422315712
2.336633663366337,1.5796162253291781
2.3564356435643563,1.5488756001790625
2.376237623762376,1.5166232883366202
2.3960396039603964,1.4828909231792717
2.4158415841584158,1.4477116248311668
2.4356435643564356,1.4111199748455259
2.455445544554456,1.37315199098007
2.4752475247524752,1.3338451024969018
2.495049504950495,1.2932381265479047
2.514851485148515,1.2513712463852547
2.5346534653465347,1.2082859923847316
2.5544554455445545,1.1640252272186273
2.5742574257425743,1.118633137015267
2.594059405940594,1.072155231066555
2.6138613861386135,1.0246383537155588
2.633663366336634,0.9761307136627042
2.6534653465346536,0.9266819383923965
2.673267326732673,0.876343165274195
2.6930693069306932,0.825167187070659
2.712871287128713,0.7732086797464692
2.7326732673267324,0.7205245576996749
2.7524752475247527,0.6671745317145856
2.7722772277227725,0.6132219998420188
2.792079207920792,0.5587355057126302
2.811881188118812,0.5037912070661165
2.8316831683168315,0.44847723822826824
2.8514851485148514,0.3929018508209766
2.8712871287128716,0.337209684952939
2.891089108910891,0.28161726545647536
2.910891089108911,0.22649973379298832
2.9306930693069306,0.17263688555673384
2.9504950495049505,0.12205975722553945
2.9702970297029703,0.0815345424710043
2.99009900990099,0.07131551404624052
3.00990099009901,0.10109924523958008
3.0297029702970297,0.14844396732418708
3.0495049504950495,0.20121070592728754
3.0693069306930694,0.2559330660649656
3.089108910891089,0.3114292629561505
3.108910891089109,0.36718446913882197
3.128712871287129,0.4229243339630638
3.148514851485148,0.47847686926607425
3.1683168316831685,0.5337194536993464
3.1881188118811883,0.5885557047618497
3.2079207920792077,0.6429043405936296
3.227722772277228,0.6966933880003092
3.2475247524752473,0.7498569824163293
3.267326732673267,0.8023335128956182
3.2871287128712874,0.8540645054398476
3.3069306930693068,0.9049939311983769
3.3267326732673266,0.9550677691330588
3.346534653465347,1.0042337263834717
3.366336633663366,1.0524410592692781
3.386138613861386,1.0996404601450984
3.4059405940594063,1.145783988272715
3.4257425742574257,1.1908250306408872
3.4455445544554455,1.2347182834506363
3.4653465346534653,1.2774197480096428
3.485148514851485,1.3188867367358388
3.504950495049505,1.359077886260607
3.5247524752475248,1.3979531754898262
3.5445544554455446,1.4354739470737727
3.564356435643564,1.4716029311496428
3.5841584158415842,1.506304270510401
3.603960396039604,1.5395435465616394
3.6237623762376234,1.5712878055783763
3.6435643564356437,1.6015055848841522
3.6633663366336635,1.6301669386563011
3.683168316831683,1.6572434631227582
3.702970297029703,1.682708320962492
3.722772277227723,1.7065362647570288
3.7425742574257423,1.728703659368772
3.762376237623762,1.74918850314317
3.7821782178217824,1.7679704478493674
3.801980198019802,1.785030817287914
3.8217821782178216,1.8003526245053303
3.841584158415842,1.8139205875648219
3.8613861386138613,1.8257211438304426
3.881188118811881,1.83574246272845
3.9009900990099013,1.8439744569556253
3.9207920792079207,1.8504087921094872
3.9405940594059405,1.8550388947196765
3.96039603960396,1.8578599586643008
3.98019801980198,1.858868949958612
4.0,1.8580646099073308
4.01980198019802,1.8554474566151953
4.03960396039604,1.8510197848541146
4.0594059405940595,1.8447856642884544
4.079207920792079,1.836750936063681
4.099009900990099,1.8269232077672124
4.118811881188119,1.8153118467740648
4.138613861386139,1.8019279719942647
4.158415841584159,1.786784444042923
4.178217821782178,1.7698958538596352
4.198019801980198,1.7512785098086745
4.217821782178218,1.7309504232985247
4.237623762376238,1.7089312929663647
4.257425742574258,1.685242487482211
4.2772277227722775,1.6599070270380518
4.297029702970297,1.6329495636001252
4.316831683168317,1.6043963600185236
4.336633663366336,1.5742752681082064
4.356435643564357,1.5426157058405094
4.376237623762377,1.509448633816474
4.3960396039603955,1.4748065312342429
4.415841584158416,1.4387233716173091
4.435643564356436,1.4012345986410437
4.455445544554455,1.3623771024903122
4.475247524752476,1.3221891973087874
4.4950495049504955,1.2807106004757214
4.514851485148514,1.2379824146874694
4.534653465346535,1.1940471141596767
4.554455445544555,1.148948536745839
4.574257425742574,1.1027318844598843
4.594059405940594,1.055443735902339
4.613861386138614,1.0071320755954387
4.633663366336633,0.9578463475166762
4.653465346534653,0.9076375436550076
4.673267326732674,0.8565583440091302
4.693069306930693,0.8046633335273367
4.712871287128713,0.7520093366383203
4.732673267326733,0.6986559360996984
4.752475247524752,0.6446662893825665
4.772277227722772,0.5901084420877492
4.792079207920793,0.5350575055406465
4.811881188118812,0.47959940938496703
4.8316831683168315,0.4238376901835871
4.851485148514852,0.3679065417788835
4.871287128712871,0.3119978970174768
4.891089108910891,0.2564233776994744
4.910891089108912,0.20177500512785515
4.930693069306931,0.14941525682291548
4.9504950495049505,0.10326631875790965
4.97029702970297,0.07602393977749212
4.99009900990099,0.08772139422656083
5.00990099009901,0.12808826883426738
5.02970297029703,0.17856160510358743
5.0495049504950495,0.2325327087871212
5.069306930693069,0.28789844733436
5.089108910891089,0.34382811722903966
5.108910891089109,0.39991761937127346
5.128712871287129,0.4559335328754529
5.148514851485149,0.5117207668634155
5.1683168316831685,0.5671641972992818
5.188118811881188,0.6221708986957688
5.207920792079208,0.6766611858691349
5.227722772277227,0.7305637840858884
5.247524752475248,0.7838130819055384
5.267326732673268,0.83634750051072
5.2871287128712865,0.8881084927310007
5.306930693069307,0.9390399127935152
5.326732673267327,0.9890876124855821
5.346534653465346,1.0381991800144807
5.366336633663367,1.0863237712719542
5.3861386138613865,1.1334120023426706
5.405940594059405,1.1794158834120019
5.425742574257426,1.224288781120785
5.445544554455446,1.267985400722211
5.465346534653465,1.3104617821535185
5.485148514851486,1.351675305937226
5.504950495049505,1.3915847060283288
5.524752475247524,1.4301500875384572
5.544554455445545,1.467332947830783
5.564356435643565,1.503096199872307
5.584158415841584,1.5374041970104704
5.603960396039604,1.5702227585413173
5.623762376237624,1.6015191955837667
5.643564356435643,1.631262336882114
5.663366336633663,1.6594225542395729
5.683168316831684,1.6859717873467455
5.702970297029703,1.7108835678150027
5.7227722772277225,1.734133042260486
5.742574257425743,1.7556969943126501
5.762376237623762,1.7755538654428247
5.782178217821782,1.793683774526364
5.801980198019803,1.8100685360653166
5.821782178217822,1.8246916770111985
5.841584158415841,1.837538452136043
5.861386138613861,1.8485958579089206
5.881188118811881,1.8578526448412642
5.900990099009901,1.8652993282710517
5.920792079207921,1.8709281975607828
5.9405940594059405,1.8747333236892045
5.96039603960396,1.8767105652211065
5.98019801980198,1.8768575726436103
6.0,1.8751737910614523
6.01980198019802,1.8716604612473773
6.03960396039604,1.866320619047741
6.0594059405940595,1.8591590931472044
6.079207920792079,1.8501825012003645
6.099009900990099,1.8393992443422669
6.118811881188119,1.826819500094353
6.138613861386139,1.812455213687078
6.158415841584159,1.796320087825858
6.178217821782178,1.7784295709333613
6.198019801980198,1.7588008439074208
6.217821782178218,1.7374528054428757
6.237623762376237,1.7144060559745526
6.257425742574258,1.6896828803103014
6.2772277227722775,1.6633072290370607
6.297029702970296,1.6353046988000475
6.316831683168317,1.6057025115765513
6.336633663366337,1.5745294930925675
6.356435643564356,1.5418160505651457
6.376237623762377,1.5075941499969636
6.396039603960396,1.4718972933072312
6.415841584158415,1.4347604956583544
6.435643564356436,1.3962202634370966
6.455445544554456,1.3563145734844353
6.475247524752475,1.3150828543488833
6.495049504950495,1.272565970590049
6.514851485148515,1.228806211505729
6.534653465346534,1.1838472861480611
6.554455445544554,1.1377343271945204
6.574257425742575,1.0905139072583265
6.594059405940594,1.0422340727239938
6.6138613861386135,0.9929444024487414
6.633663366336634,0.942696102122681
6.653465346534653,0.8915421504795344
6.673267326732673,0.8395375221949039
6.693069306930694,0.78673952651702
6.712871287128713,0.7332083247186246
6.732673267326732,0.6790077314994742
6.752475247524753,0.6242064817638724
6.772277227722772,0.5688802886469728
6.792079207920792,0.5131153058494383
6.811881188118813,0.4570142117066807
6.8316831683168315,0.4007074922873367
6.851485148514851,0.3443758142375516
6.871287128712871,0.28829826233013495
6.891089108910891,0.23296794677504143
6.910891089108911,0.17940846354370174
6.930693069306931,0.13018346385856466
6.9504950495049505,0.0928452149754612
6.97029702970297,0.08510636348590081
6.99009900990099,0.11325804706035934
7.00990099009901,0.15923882065211184
7.02970297029703,0.2116334129147953
7.0495049504950495,0.26655630166809924
7.069306930693069,0.32256897185261246
7.089108910891089,0.3790261760126201
7.108910891089109,0.4355839479412341
7.128712871287128,0.4920303175824817
7.148514851485149,0.5482180701397716
7.1683168316831685,0.6040347507036531
7.188118811881187,0.6593879976647528
7.207920792079208,0.7141978281089264
7.227722772277228,0.7683923349275281
7.247524752475247,0.8219051705842767
7.267326732673268,0.8746740186281355
7.287128712871287,0.9266396368568037
7.306930693069306,0.9777452444973815
7.326732673267327,1.0279361234855402
7.346534653465347,1.077159356909828
7.366336633663366,1.125363657563335
7.3861386138613865,1.1724992569811943
7.405940594059406,1.2185178358328246
7.425742574257425,1.2633724830245745
7.445544554455446,1.307017674978506
7.465346534653466,1.349409269216123
7.485148514851485,1.3905045081350818
7.504950495049505,1.4302620300529325
7.524752475247524,1.4686418854023684
7.544554455445544,1.5056055565272897
7.564356435643565,1.5411159799270169
7.584158415841584,1.5751375700807886
7.603960396039604,1.6076362441907492
7.623762376237624,1.6385794473333644
7.643564356435643,1.6679361776207056
7.663366336633663,1.6956770110575452
7.683168316831684,1.721774125844005
7.702970297029703,1.7462013259219256
7.7227722772277225,1.7689340636013384
7.742574257425743,1.789949461132754
7.762376237623762,1.8092263311146104
7.782178217821782,1.8267451956437137
7.801980198019803,1.8424883041318318
7.821782178217822,1.8564396497242888
7.841584158415841,1.8685849842661872
7.861386138613862,1.8789118317714064
7.881188118811881,1.8874095003563716
7.900990099009901,1.8940690926075454
7.92079207920792,1.898883514357338
7.9405940594059405,1.9018474818483382
7.96039603960396,1.9029575272706
7.980198019801979,1.9022120026615932
8.0,1.8996110821624126
8.01980198019802,1.8951567626286399
8.03960396039604,1.8888528625981946
8.05940594059406,1.8807050196233872
8.07920792079208,1.8707206859787706
8.099009900990099,1.8589091227616135
8.118811881188119,1.845281392407046
8.138613861386139,1.8298503496464138
8.158415841584159,1.812630630943511
8.178217821782178,1.7936386424521586
8.198019801980198,1.772892546546785
8.217821782178218,1.7504122469892882
8.237623762376238,1.7262193728079551
8.257425742574258,1.7003372609802216
8.277227722772277,1.6727909380303219
8.297029702970297,1.6436071006772017
8.316831683168317,1.612814095697908
8.336633663366337,1.5804418992107028
8.356435643564357,1.5465220956308785
8.376237623762377,1.5110878566166253
8.396039603960396,1.4741739204055024
8.415841584158416,1.435816572053043
8.435643564356436,1.396053625232297
8.455445544554456,1.3549244064532364
8.475247524752476,1.312469742832922
8.495049504950495,1.2687319549246328
8.514851485148515,1.2237548566418506
8.534653465346535,1.1775837650613747
8.554455445544555,1.130265523968197
8.574257425742575,1.0818485465812964
8.594059405940595,1.0323828852439692
8.613861386138613,0.9819203394149101
8.633663366336634,0.9305146187873091
8.653465346534654,0.8782215870423918
8.673267326732672,0.8250996258023663
8.693069306930694,0.7712101817493228
8.712871287128714,0.7166186000384861
8.732673267326732,0.6613954184699188
8.752475247524753,0.6056184286258038
8.772277227722773,0.5493760645642224
8.792079207920791,0.4927731967224727
8.811881188118813,0.4359415242671239
8.831683168316832,0.3790593403018251
8.85148514851485,0.3223919290086927
8.871287128712872,0.2663817961854726
8.891089108910892,0.21187328825692225
8.91089108910891,0.1607449587974999
8.930693069306932,0.11784387040605591
8.950495049504951,0.09533773547821635
8.97029702970297,0.10710572969799417
8.990099009900991,0.14502615347470688
9.00990099009901,0.19427411078578294
9.029702970297029,0.2480796785310716
9.04950495049505,0.3038922302803968
9.06930693069307,0.3606251453558229
9.089108910891088,0.41773643091297963
9.10891089108911,0.4749145950667303
9.12871287128713,0.5319574982062515
9.148514851485148,0.5887199442866069
9.16831683168317,0.6450887447141807
9.188118811881187,0.7009699012169701
9.207920792079207,0.7562815913956767
9.227722772277229,0.8109501283101275
9.247524752475247,0.8649075337284404
9.267326732673267,0.9180900301672907
9.287128712871288,0.9704370780658442
9.306930693069306,1.021890748069405
9.326732673267326,1.0723953057397355
9.346534653465348,1.1218969345655354
9.366336633663366,1.1703435511275635
9.386138613861386,1.2176846829154666
9.405940594059407,1.2638713894773843
9.425742574257425,1.3088562139755908
9.445544554455445,1.3525931563262776
9.465346534653467,1.395037661793453
9.485148514851485,1.4361466207057267
9.504950495049505,1.4758783761881549
9.524752475247526,1.51419273764649
9.544554455445544,1.55105099833404
9.564356435643564,1.586415955752977
9.584158415841586,1.6202519339452128
9.603960396039604,1.6525248069497949
9.623762376237623,1.6832020228667306
9.643564356435645,1.712252628088903
9.663366336633663,1.7396472913556738
9.683168316831683,1.7653583273514806
9.702970297029704,1.7893597196266446
9.722772277227723,1.81162714265916
9.742574257425742,1.8321379829093296
9.762376237623764,1.8508713587449652
9.782178217821782,1.8678081391358345
9.801980198019802,1.8829309610330545
9.821782178217823,1.8962242453631322
9.841584158415841,1.9076742115778091
9.861386138613861,1.9172688907110307
9.881188118811881,1.924998136902628
9.900990099009901,1.9308536373557454
9.92079207920792,1.9348289207017402
9.94059405940594,1.9369193637523532
9.96039603960396,1.9371221966243053
9.98019801980198,1.935436506227161
10.0,1.9318632381102014
10.01980198019802,1.926405196669355
10.03960396039604,1.9190670437204937
10.05940594059406,1.9098552954508432
10.07920792079208,1.8987783177661977
10.099009900990099,1.8858463200579445
10.118811881188119,1.8710713474209477
10.138613861386139,1.8544672713614874
10.158415841584159,1.8360497790434331
10.178217821782178,1.8158363611317776
10.198019801980198,1.7938462983051497
10.217821782178218,1.7701006465243077
10.237623762376238,1.7446222211620817
10.257425742574258,1.7174355801229428
10.277227722772277,1.688567006108574
10.297029702970297,1.6580444882213792
10.316831683168317,1.6258977031424402
10.336633663366337,1.5921579961780676
10.356435643564357,1.5568583625431816
10.376237623762377,1.5200334293460596
10.396039603960396,1.4817194388669148
10.415841584158416,1.441954233891412
10.435643564356436,1.4007772460880026
10.455445544554454,1.3582294887273354
10.475247524752476,1.3143535554665382
10.495049504950495,1.2691936275121076
10.514851485148514,1.2227954923083277
10.534653465346535,1.1752065780870342
10.554455445544555,1.1264760103404656
10.574257425742573,1.0766546988200343
10.594059405940595,1.025795467476398
10.613861386138614,0.9739532455813448
10.633663366336632,0.9211853473648539
10.653465346534654,0.8675518820206685
