Frequency (Hz),Amplitude
0.0,3.981209336429333
0.01993355481727575,3.9792919650955416
0.0398671096345515,3.9735418240244487
0.059800664451827246,3.963964831079532
0.079734219269103,3.9505708462973677
0.09966777408637874,3.9333736673612267
0.11960132890365449,3.9123910234220207
0.13953488372093023,3.8876445674299496
0.159468438538206,3.8591598671967744
0.17940199335548174,3.8269663954713686
0.19933554817275748,3.7910975193847323
0.21926910299003324,3.75159048970609
0.23920265780730898,3.708486430454687
0.25913621262458475,3.6618303295351837
0.27906976744186046,3.6116710312155975
0.29900332225913623,3.5580612314523927
0.318936877076412,3.501057477298513
0.3388704318936877,3.440720171919005
0.3588039867109635,3.377113587104247
0.37873754152823924,3.310305885635254
0.39867109634551495,3.240369156450692
0.4186046511627907,3.1673794663349413
0.4385382059800665,3.0914169328475722
0.4584717607973422,3.0125658245293385
0.47840531561461797,2.930914696160602
0.49833887043189373,2.846556569172155
0.5182724252491695,2.759589170442294
0.5382059800664452,2.670115246979633
0.5581395348837209,2.5782429798580573
0.5780730897009968,2.4840865289279326
0.5980066445182725,2.387766751301934
0.6179401993355482,2.2894121529505402
0.637873754152824,2.1891601563054257
0.6578073089700996,2.0871588012207267
0.6777408637873754,1.9835690477437475
0.6976744186046512,1.87856792609791
0.717607973421927,1.7723528969880205
0.7375415282392027,1.6651479683120312
0.7574750830564785,1.5572124034165176
0.7774086378737541,1.448853319785877
0.7973421926910299,1.340444231216948
0.8172757475083057,1.2324528242619177
0.8372093023255814,1.125483291231547
0.8571428571428572,1.0203418127762052
0.877076411960133,0.9181387202251552
0.8970099667774087,0.8204469747128973
0.9169435215946844,0.7295388753168903
0.9368770764119602,0.6487006394710159
0.9568106312292359,0.5825177903701523
0.9767441860465116,0.5367403414010018
0.9966777408637875,0.5170140583852811
1.0166112956810631,0.5263545237485914
1.036544850498339,0.5632843991098606
1.0564784053156147,0.6227898851796067
1.0764119601328903,0.6989327818257272
1.0963455149501662,0.7866480097368715
1.1162790697674418,0.8822026892194941
1.1362126245847177,0.9829966689286018
1.1561461794019936,1.0872358691840203
1.176079734219269,1.193664513774049
1.196013289036545,1.3013806092094096
1.2159468438538206,1.409715977816369
1.2358803986710964,1.5181593788359544
1.255813953488372,1.6263070121651568
1.275747508305648,1.7338302293787753
1.2956810631229239,1.8404541159456784
1.3156146179401993,1.9459430311465926
1.3355481727574752,2.050090673984153
1.3554817275747508,2.152713144943585
1.3754152823920267,2.2536440256453205
1.3953488372093024,2.352730840815174
1.4152823920265782,2.449832482493667
1.435215946843854,2.544817314224821
1.4551495016611296,2.6375617625430543
1.4750830564784054,2.7279492622316575
1.495016611295681,2.815869461492548
1.514950166112957,2.9012176201583704
1.5348837209302328,2.983894152701412
1.5548172757475083,3.063804280813757
1.5747508305647842,3.140857769549771
1.5946843853820598,3.21496872762396
1.6146179401993357,3.2860554572379943
1.6345514950166113,3.3540403423106144
1.6544850498338872,3.4188497665708897
1.6744186046511629,3.480414054905764
1.6943521594684385,3.5386674328066827
1.7142857142857144,3.5935479998638336
1.73421926910299,3.6449977141023613
1.754152823920266,3.692962384607067
1.7740863787375416,3.7373916703902252
1.7940199335548175,3.778239083854787
1.8139534883720931,3.815461997519691
1.8338870431893688,3.8490216529241708
1.8538205980066447,3.878883170828809
1.8737541528239203,3.905015561993294
1.893687707641196,3.9273917379438004
1.9136212624584719,3.9459885212520036
1.9335548172757475,3.9607866549394046
1.9534883720930232,3.971770810697584
1.9734219269102993,3.978929595681563
1.993355481727575,3.9822555576915164
2.0132890365448506,3.9817451886099304
2.0332225913621262,3.977398926009087
2.0531561461794023,3.9692211528886956
2.073089700996678,3.957220195546882
2.0930232558139537,3.9414083196319956
2.1129568106312293,3.9218017244675853
2.132890365448505,3.8984205357915087
2.1528239202657806,3.871288797102894
2.1727574750830567,3.8404344598702203
2.1926910299003324,3.8058893729221093
2.212624584717608,3.7676892714218044
2.2325581395348837,3.7258737659209578
2.25249169435216,3.6804863321018604
2.2724252491694354,3.6315743019549673
2.292358803986711,3.579188857308066
2.312292358803987,3.5233850268329654
2.332225913621263,3.4642216879175187
2.352159468438538,3.4017615751204024
2.3720930232558137,3.33607129734459
2.39202657807309,3.2672213663999594
2.4119601328903655,3.195286240314947
2.431893687707641,3.1203443856514617
2.4518272425249172,3.0424783642491366
2.471760797342193,2.9617749513709386
2.4916943521594686,2.8783252942813826
2.511627906976744,2.7922251230560695
2.5315614617940203,2.7035750291760534
2.551495016611296,2.6124808326078357
2.5714285714285716,2.519054065201268
2.5913621262458477,2.42341260823147
2.611295681063123,2.3256815360850713
2.6312292358803986,2.2259942384518077
2.6511627906976742,2.1244939230278765
2.6710963455149503,2.021335644518683
2.691029900332226,1.9166890713659228
2.7109634551495017,1.8107423015816604
2.7308970099667778,1.7037071937902468
2.7508305647840534,1.5958269230463464
2.770764119601329,1.4873868604024094
2.7906976744186047,1.3787305074600855
2.810631229235881,1.2702832561163724
2.8305647840531565,1.1625884604208412
2.850498338870432,1.0563631206150514
2.870431893687708,0.9525849134848404
2.8903654485049834,0.852628508699161
2.910299003322259,0.7584746661849743
2.9302325581395348,0.6730077754664631
2.950166112956811,0.6003528049952176
2.9700996677740865,0.5459855714928151
2.990033222591362,0.5159610643854007
3.0099667774086383,0.5146815346227464
3.029900332225914,0.5423570451094899
3.0498338870431896,0.5948658975003532
3.0697674418604657,0.6661891149365984
3.089700996677741,0.7507518100568588
3.1096345514950166,0.8443097890158427
3.129568106312292,0.9438842483305827
3.1495016611295683,1.047429235962631
3.169435215946844,1.1535270833845628
3.1893687707641196,1.2611719517046809
3.2093023255813957,1.3696281979524625
3.2292358803986714,1.4783398916841513
3.249169435215947,1.5868729622788509
3.2691029900332227,1.6948777706949176
3.289036544850499,1.8020644938113763
3.3089700996677744,1.9081866417575444
3.32890365448505,2.0130298212708904
3.3488372093023258,2.1164039430940362
3.3687707641196014,2.218137731148963
3.388704318936877,2.3180747970663353
3.4086378737541527,2.4160707970437594
3.428571428571429,2.5119913488061876
3.4485049833887045,2.6057104901803085
3.46843853820598,2.6971095288203877
3.4883720930232562,2.786076177937361
3.508305647840532,2.872503903527425
3.5282392026578075,2.9562914296178375
3.548172757475083,3.0373423626656346
3.5681063122923593,3.115564906540012
3.588039867109635,3.190871646858822
3.60797342192691,3.2631793887414102
3.6279069767441863,3.3324090358973
3.647840531561462,3.3984855018104985
3.6677740863787376,3.461337645890669
3.6877076411960132,3.5208982290470034
3.7076411960132893,3.57710388433986
3.727574750830565,3.6298950992809575
3.7475083056478407,3.6792162070569963
3.7674418604651168,3.7250153844984726
3.787375415282392,3.767244655042121
3.807308970099668,3.8058598952718476
3.8272425249169437,3.840820843890011
3.8471760797342194,3.8720911121842345
3.867109634551495,3.899638195227212
3.887043189368771,3.9234334831870346
3.9069767441860463,3.9434522722405574
3.9269102990033224,3.959673774678168
3.9468438538205985,3.972081127868341
3.9667774086378738,3.9806614018194355
3.98671096345515,3.985405605135442
4.0066445182724255,3.9863086892154667
4.026578073089701,3.9833695505945412
4.046511627906977,3.9765910313681587
4.0664451827242525,3.965979917685649
4.086378737541528,3.951546936340071
4.106312292358805,3.9333067495257152
4.1262458471760795,3.9112779478797677
4.146179401993356,3.8854830419743878
4.166112956810632,3.8559484524805514
4.186046511627907,3.822704499287271
4.205980066445183,3.785785389932954
4.225913621262459,3.7452292077907727
4.245847176079734,3.7010779005526766
4.26578073089701,3.6533772696801274
4.2857142857142865,3.6021769616415487
4.305647840531561,3.5475304619430537
4.325581395348838,3.4894950931921893
4.345514950166113,3.4281320187266995
4.365448504983389,3.363506253710355
4.385382059800665,3.2956866860697227
4.40531561461794,3.224746110252399
4.425249169435216,3.150761277572534
4.445182724252492,3.0738129679355852
4.465116279069767,2.993986089084686
4.485049833887043,2.9113698113050557
4.50498338870432,2.826057747927104
4.524916943521594,2.7381481952220352
4.544850498338871,2.647744449730065
4.5647840531561465,2.554955227202902
4.584717607973422,2.4598952159217484
4.604651162790698,2.36268580928087
4.624584717607974,2.2634560798909167
4.644518272425249,2.162344082652166
4.664451827242526,2.059498611330128
4.6843853820598005,1.9550815885700046
4.704318936877076,1.849271353383977
4.724252491694353,1.7422672399274404
4.7441860465116275,1.6342960451127537
4.764119601328904,1.525621307994152
4.78405315614618,1.4165568523001018
4.803986710963455,1.3074869146151689
4.823920265780731,1.1988966321372316
4.8438538205980075,1.0914190858469508
4.863787375415282,0.9859090625461525
4.883720930232559,0.8835597851093219
4.9036544850498345,0.7860864193286781
4.92358803986711,0.6960023160511684
4.943521594684386,0.6169815040691944
4.963455149501661,0.5541501321006956
4.983388704318937,0.5137697022930487
5.003322259136213,0.501467044852697
5.023255813953488,0.5192920781424684
5.043189368770764,0.5643372474168522
5.063122923588041,0.6306489364140108
5.083056478405315,0.7120967552608621
5.102990033222592,0.803829895355095
5.122923588039868,0.9024182504157918
5.142857142857143,1.005522058722595
5.162790697674419,1.1115407183734722
5.182724252491695,1.2193551600845944
5.20265780730897,1.328158831598215
5.222591362126246,1.4373505184090003
5.242524916943522,1.5464665561266004
5.262458471760797,1.6551374832755825
5.282392026578074,1.7630598549436478
5.3023255813953485,1.8699775683689852
5.322259136212625,1.9756692551040735
5.342192691029901,2.0799396139537336
5.362126245847176,2.1826133520527664
5.382059800664452,2.2835308838311534
5.4019933554817285,2.3825452355372483
5.421926910299003,2.4795197901234585
5.44186046511628,2.5743266268893854
5.4617940199335555,2.66684528801299
5.48172757475083,2.756961855466465
5.501661129568107,2.84456825629194
5.5215946843853825,2.9295617377014143
5.541528239202658,3.011844469695479
5.561461794019934,3.0913232442583776
5.5813953488372094,3.167909248244136
5.601328903654485,3.2415178928472224
5.621262458471762,3.312068686744159
5.641196013289036,3.379485143065765
5.661129568106313,3.443694712634849
5.681063122923589,3.5046287376052443
5.700996677740864,3.5622224209201776
5.72093023255814,3.616414807983791
5.740863787375416,3.6671487776876064
5.760797342192691,3.714371040512253
5.780730897009967,3.7580321418751192
5.800664451827243,3.7980864692486986
5.820598006644518,3.83449226185398
5.840531561461795,3.8672116219565655
5.8604651162790695,3.896210526972439
5.880398671096346,3.921458841735858
5.900332225913622,3.942930330400637
5.920265780730897,3.960602667544784
5.940199335548173,3.97445744813049
5.960132890365449,3.984480196041421
5.980066445182724,3.9906603709796302
6.0,3.9929913735571363
6.0199335548172765,3.991470548464769
6.039867109634551,3.9860991856448087
6.059800664451828,3.9768825194353234
6.0797342192691035,3.9638297256946795
6.099667774086379,3.9469539169555876
6.119601328903655,3.9262721357005126
6.139534883720931,3.9018053458957906
6.159468438538206,3.8735784229718533
6.179401993355482,3.8416201424934084
6.1993355481727574,3.8059631678282724
6.219269102990033,3.7666440371996615
6.23920265780731,3.723703150597088
6.259136212624584,3.6771847571298593
6.279069767441861,3.627136943539794
6.299003322259137,3.5736116247529477
6.318936877076412,3.5166645375527223
6.338870431893688,3.4563552387101106
6.3588039867109645,3.392747109227419
6.378737541528239,3.3259073667585244
6.398671096345516,3.25590708879127
6.418604651162791,3.182821249852221
6.438538205980066,3.1067287768731315
6.458471760797343,3.0277126280132967
6.4784053156146175,2.945859901762023
6.498338870431894,2.8612619851912435
6.51827242524917,2.774014752989437
6.538205980066445,2.684218832672356
6.558139534883721,2.591979956552102
6.578073089700998,2.497409428271426
6.598006644518272,2.400624741897114
6.617940199335549,2.3017504061101968
6.6378737541528245,2.2009190470769626
6.6578073089701,2.098272894476968
6.677740863787376,1.9939658012012225
6.6976744186046515,1.8881660169531844
6.717607973421927,1.7810600433734032
6.737541528239203,1.6728580666834307
6.7574750830564785,1.563801732724425
6.777408637873754,1.4541754666561115
6.797342192691031,1.3443232638591445
6.8172757475083055,1.2346740966259373
6.837209302325582,1.1257811502182604
6.857142857142858,1.0183836089045537
6.877076411960133,0.9135054841148649
6.897009966777409,0.8126145658518414
6.9169435215946855,0.7178733963850359
6.93687707641196,0.6325061714939347
6.956810631229236,0.5612165812663775
6.9767441860465125,0.510274558171308
6.996677740863787,0.4863442318329102
7.016611295681064,0.49347125752993737
7.036544850498339,0.5303837690241461
7.056478405315615,0.5914106128608412
7.076411960132891,0.6697977858000429
7.096345514950166,0.7599420923776864
7.116279069767442,0.8578548624079352
7.136212624584719,0.9608444457708305
7.156146179401993,1.0671007336586384
7.17607973421927,1.1753812304534832
7.196013289036546,1.2848059586775862
7.21594684385382,1.3947292074979205
7.235880398671097,1.5046597414900003
7.2558139534883725,1.6142106006161676
7.275747508305648,1.7230669472970213
7.295681063122924,1.83096505333398
7.3156146179402,1.937678285698822
7.335548172757475,2.0430075771399165
7.355481727574752,2.1467748287596446
7.3754152823920265,2.248818267042649
7.395348837209303,2.348989128004766
7.415282392026579,2.44714925821073
7.435215946843854,2.5431693594849705
7.45514950166113,2.636927692278749
7.475083056478406,2.7283091103261783
7.495016611295681,2.817204337583841
7.514950166112956,2.9035094243710446
7.5348837209302335,2.987125337404088
7.554817275747508,3.067957650778375
7.574750830564784,3.1459163136602983
7.5946843853820605,3.2209154766606822
7.614617940199336,3.2928733633418172
7.634551495016611,3.3617121765781293
7.6544850498338874,3.427358031898161
7.674418604651163,3.4897409117272837
7.694352159468439,3.548794635796494
7.714285714285715,3.604456844001665
7.73421926910299,3.656668988776965
7.754152823920266,3.7053763346460546
7.774086378737542,3.750527963080701
7.794019933554818,3.7920767811607763
7.813953488372093,3.829979532817463
7.83388704318937,3.864196811669585
7.853820598006645,3.8946930746461788
7.8737541528239205,3.921436655736255
7.893687707641197,3.9443997793271515
7.913621262458472,3.9635585726921057
7.9335548172757475,3.9788930772703894
7.953488372093024,3.9903872584527686
7.9734219269103,3.998029013645086
7.9933554817275745,4.001810178434371
8.013289036544851,4.001726530728359
8.033222591362128,3.997777792781434
8.053156146179402,3.98996763105924
8.073089700996679,3.978303653932545
8.093023255813954,3.962797407228271
8.11295681063123,3.943464367704807
8.132890365448505,3.9203239345592027
8.152823920265782,3.8933994191186954
8.172757475083056,3.8627180329184436
8.192691029900331,3.8283108744239227
8.21262458471761,3.7902129147223
8.232558139534884,3.748462982584654
8.252491694352159,3.703103749393995
8.272425249169435,3.654181714546886
8.292358803986712,3.6017471920747552
8.312292358803987,3.545854299401933
8.332225913621263,3.4865609493713574
8.352159468438538,3.423928846937435
8.372093023255815,3.3580234922670655
8.392026578073091,3.2889141924261365
8.411960132890366,3.216674084391741
8.43189368770764,3.141380172861964
8.451827242524917,3.063113387294145
8.471760797342194,2.9819586638704476
8.491694352159469,2.8980050597811253
8.511627906976745,2.8113459094944706
8.53156146179402,2.7220790357809714
8.551495016611296,2.630307032519996
8.571428571428573,2.5361376422391326
8.591362126245848,2.4396842596674455
8.611295681063122,2.341066604452374
8.6312292358804,2.2404116233275695
8.651162790697676,2.137854707123533
8.67109634551495,2.0335413453584774
8.691029900332227,1.9276293976182437
8.710963455149502,1.8202922478332002
8.730897009966778,1.7117232437771872
8.750830564784053,1.6021420418435255
8.77076411960133,1.4918038322908054
8.790697674418604,1.381013011430937
8.81063122923588,1.2701438714249804
8.830564784053157,1.1596726135840532
8.850498338870432,1.0502280223520892
8.870431893687707,0.9426734117991372
8.890365448504983,0.8382412807191356
8.91029900332226,0.7387549490104767
8.930232558139535,0.6469812392867383
8.950166112956811,0.5671242953002824
8.970099667774086,0.5052526945525984
8.990033222591363,0.4688299762663309
9.00996677740864,0.4640460522237772
9.029900332225914,0.4918489468839863
9.049833887043189,0.5472051193929914
9.069767441860467,0.6226344447337719
9.089700996677742,0.7115450736049641
9.109634551495017,0.8092236934262976
9.129568106312293,0.9125445094006137
9.14950166112957,1.0194551916678394
9.169435215946844,1.1285804643918738
9.189368770764121,1.2389672523199462
9.209302325581396,1.3499291200210535
9.22923588039867,1.4609518413294929
9.249169435215949,1.5716353207187277
9.269102990033224,1.681657136913949
9.289036544850498,1.7907491356600738
9.308970099667773,1.8986820589490823
9.328903654485051,2.0052552342559125
9.348837209302326,2.110289520996045
9.368770764119601,2.213622398793095
9.388704318936878,2.315104492596048
9.408637873754152,2.414597079844312
9.428571428571429,2.5119702804849737
9.448504983388705,2.6071017293675336
9.46843853820598,2.6998755943624655
9.488372093023255,2.790181845547197
9.508305647840533,2.877915708905905
9.528239202657808,2.962977257090471
9.548172757475083,3.0452711029646644
9.56810631229236,3.1247061708667023
9.588039867109636,3.201195527050941
9.60797342192691,3.274656255448047
9.627906976744187,3.345009368276106
9.647840531561462,3.4121797435213352
9.667774086378738,3.476096083148747
9.687707641196015,3.5366908872785445
9.70764119601329,3.5939004406032833
9.727574750830565,3.6476648081097713
9.747508305647841,3.69792783777676
9.767441860465118,3.7446371683876647
9.787375415282392,3.7877442409638884
9.807308970099669,3.8272043126108715
9.827242524916944,3.8629764717973964
9.84717607973422,3.895023654269324
9.867109634551497,3.9233126589461564
9.887043189368772,3.947814163266732
9.906976744186046,3.9685027375481905
9.926910299003321,3.9853568580028216
9.9468438538206,3.998358918125094
9.966777408637874,4.007495238218766
9.986710963455149,4.012756072883506
10.006644518272426,4.0141356163247455
10.026578073089702,4.011632005389527
10.046511627906977,4.0052473202679515
10.066445182724253,3.994987582834344
10.086378737541528,3.9808627526363534
10.106312292358805,3.9628867205745384
10.126245847176081,3.94107730035045
10.146179401993356,3.915456217800075
10.16611295681063,3.886049098271168
10.186046511627907,3.852885452250948
10.205980066445184,3.8159986595053
10.225913621262459,3.775425952054957
10.245847176079735,3.731208396390477
10.26578073089701,3.6833908754201996
10.285714285714286,3.6320220707577153
10.305647840531563,3.577154446094149
10.325581395348838,3.5188442325731124
10.345514950166113,3.4571514173024696
10.36544850498339,3.392139736411649
10.385382059800666,3.3238766744123427
10.40531561461794,3.252433472071039
10.425249169435217,3.1778851455849915
10.445182724252492,3.1003105206171577
10.465116279069768,3.0197922857528887
10.485049833887045,2.9364170712827877
10.50498338870432,2.850275561019443
10.524916943521594,2.7614626473039174
10.544850498338871,2.6700776427173407
10.564784053156147,2.57622456667397
10.584717607973422,2.480012531617661
10.604651162790697,2.381556262851911
10.624584717607974,2.280976799453451
10.64451827242525,2.1784024433497864
10.664451827242525,2.0739700528087304
10.684385382059801,1.967826820659996
10.704318936877076,1.8601327453712506
10.724252491694353,1.7510641094459243
10.74418604651163,1.640818449889368
10.764119601328904,1.5296217841981883
