Frequency (Hz),Amplitude
0.0,0.6522577552536686
0.019801980198019802,0.6523021392044442
0.039603960396039604,0.652435122012801
0.0594059405940594,0.652656197412829
0.07920792079207921,0.6529645245067351
0.09900990099009901,0.6533589320543717
0.1188118811881188,0.6538379244222091
0.13861386138613863,0.6543996891366326
0.15841584158415842,0.6550421059721475
0.1782178217821782,0.655762757492692
0.19801980198019803,0.6565589409524821
0.21782178217821782,0.6574276814530801
0.2376237623762376,0.6583657462453926
0.25742574257425743,0.6593696600586422
0.27722772277227725,0.6604357213340503
0.297029702970297,0.6615600192379057
0.31683168316831684,0.6627384513278204
0.33663366336633666,0.6639667417463063
0.3564356435643564,0.6652404598180228
0.37623762376237624,0.6665550389304435
0.39603960396039606,0.6679057955822386
0.4158415841584158,0.6692879484894931
0.43564356435643564,0.6706966376463701
0.45544554455445546,0.6721269432439969
0.4752475247524752,0.6735739043592033
0.495049504950495,0.6750325373326678
0.5148514851485149,0.6764978537643348
0.5346534653465347,0.6779648780621962
0.5544554455445545,0.6794286644886096
0.5742574257425742,0.6808843136563582
0.594059405940594,0.6823269884341092
0.613861386138614,0.6837519292282693
0.6336633663366337,0.6851544686148081
0.6534653465346534,0.6865300453010434
0.6732673267326733,0.6878742174028757
0.6930693069306931,0.6891826750282417
0.7128712871287128,0.690451252161976
0.7326732673267327,0.6916759378514618
0.7524752475247525,0.6928528866956795
0.7722772277227723,0.6939784286433683
0.7920792079207921,0.6950490781083567
0.8118811881188118,0.6960615424120385
0.8316831683168316,0.6970127295644849
0.8514851485148516,0.697899755396819
0.8712871287128713,0.6987199500580819
0.891089108910891,0.699470863890318
0.9108910891089109,0.7001502726954215
0.9306930693069307,0.7007561824074957
0.9504950495049505,0.701286833183508
0.9702970297029703,0.7017407029247537
0.99009900990099,0.7021165102405704
1.00990099009901,0.7024132168648711
1.0297029702970297,0.7026300295348061
1.0495049504950495,0.702766401339734
1.0693069306930694,0.7028220325473353
1.0891089108910892,0.7027968709121987
1.108910891089109,0.7026911114710827
1.1287128712871286,0.7025051958272386
1.1485148514851484,0.7022398109250214
1.1683168316831685,0.7018958873145573
1.188118811881188,0.7014745969046169
1.2079207920792079,0.7009773502009284
1.227722772277228,0.7004057930253611
1.2475247524752475,0.6997618027108911
1.2673267326732673,0.6990474837655472
1.2871287128712872,0.698265162998175
1.3069306930693068,0.6974173840978127
1.3267326732673268,0.6965069016578992
1.3465346534653466,0.6955366746364228
1.3663366336633662,0.6945098592426879
1.3861386138613863,0.6934298012418066
1.405940594059406,0.6923000276682336
1.4257425742574257,0.6911242379406811
1.4455445544554455,0.6899062943715328
1.4653465346534653,0.6886502120658057
1.4851485148514851,0.6873601482061069
1.504950495049505,0.6860403907228165
1.5247524752475248,0.6846953463512685
1.5445544554455446,0.6833295280808034
1.5643564356435644,0.6819475420047284
1.5841584158415842,0.6805540735839101
1.6039603960396038,0.6791538733417464
1.6237623762376237,0.6777517420132018
1.6435643564356437,0.676352515176242
1.6633663366336633,0.6749610473999937
1.683168316831683,0.673582195950133
1.7029702970297032,0.6722208040988567
1.7227722772277227,0.6708816840933012
1.7425742574257426,0.6695695998436318
1.7623762376237624,0.668289249398546
1.782178217821782,0.6670452472832505
1.801980198019802,0.6658421067812103
1.8217821782178218,0.6646842222476991
1.8415841584158414,0.6635758515485649
1.8613861386138615,0.66252109872301
1.881188118811881,0.6615238969734029
1.900990099009901,0.6605879920885941
1.920792079207921,0.6597169264093229
1.9405940594059405,0.6589140234455996
1.9603960396039604,0.6581823732554053
1.98019801980198,0.657524818692679
2.0,0.6569439426291266
2.01980198019802,0.656442056249935
2.0396039603960396,0.6560211885172428
2.0594059405940595,0.6556830768876674
2.0792079207920793,0.6554291593610359
2.099009900990099,0.6552605679275292
2.118811881188119,0.6551781234685735
2.1386138613861387,0.6551823321549567
2.1584158415841586,0.6552733833720931
2.1782178217821784,0.6554511491889519
2.1980198019801978,0.6557151853731252
2.217821782178218,0.6560647339404893
2.237623762376238,0.6564987272140772
2.257425742574257,0.6570157933534471
2.2772277227722775,0.6576142633030682
2.297029702970297,0.6582921790964541
2.3168316831683167,0.6590473034419206
2.336633663366337,0.6598771305064975
2.3564356435643563,0.6607788978060536
2.376237623762376,0.6617495991032298
2.3960396039603964,0.6627859982093657
2.4158415841584158,0.6638846435829395
2.4356435643564356,0.6650418836148081
2.455445544554456,0.6662538824897901
2.4752475247524752,0.66751663651475
2.495049504950495,0.6688259908052288
2.514851485148515,0.6701776562257823
2.5346534653465347,0.6715672264833
2.5544554455445545,0.6729901952774318
2.5742574257425743,0.674441973418284
2.594059405940594,0.6759179058274284
2.6138613861386135,0.6774132883454822
2.633663366336634,0.6789233842761666
2.6534653465346536,0.6804434406041826
2.673267326732673,0.6819687038314015
2.6930693069306932,0.6834944353829774
2.712871287128713,0.68501592654199
2.7326732673267324,0.6865285128780095
2.7524752475247527,0.688027588141157
2.7722772277227725,0.689508617599485
2.792079207920792,0.6909671508027889
2.811881188118812,0.6923988337613347
2.8316831683168315,0.6937994205323312
2.8514851485148514,0.695164784211415
2.8712871287128716,0.6964909273297814
2.891089108910891,0.6977739916609607
2.910891089108911,0.699010267443898
2.9306930693069306,0.7001962020312015
2.9504950495049505,0.7013284079733487
2.9702970297029703,0.702403670551016
2.99009900990099,0.7034189547688003
3.00990099009901,0.7043714118243046
3.0297029702970297,0.705258385067017
3.0495049504950495,0.7060774154614611
3.0693069306930694,0.7068262465690313
3.089108910891089,0.7075028290625152
3.108910891089109,0.7081053247867641
3.128712871287129,0.7086321103781659
3.148514851485148,0.7090817804547052
3.1683168316831685,0.7094531503872575
3.1881188118811883,0.7097452586616773
3.2079207920792077,0.7099573688398401
3.227722772277228,0.7100889711264902
3.2475247524752473,0.7101397835472025
3.267326732673267,0.7101097527413786
3.2871287128712874,0.709999054372471
3.3069306930693068,0.7098080931561241
3.3267326732673266,0.7095375025052618
3.346534653465347,0.7091881437895033
3.366336633663366,0.7087611052046663
3.386138613861386,0.7082577002464399
3.4059405940594063,0.7076794657807935
3.4257425742574257,0.7070281597020547
3.4455445544554455,0.7063057581681081
3.4653465346534653,0.7055144524007723
3.485148514851485,0.7046566450380718
3.504950495049505,0.7037349460238644
3.5247524752475248,0.7027521680192851
3.5445544554455446,0.7017113213195134
3.564356435643564,0.7006156082586282
3.5841584158415842,0.6994684170849469
3.603960396039604,0.6982733152888034
3.6237623762376234,0.6970340423649765
3.6435643564356437,0.6957545019921832
3.6633663366336635,0.6944387536129356
3.683168316831683,0.6930910033979636
3.702970297029703,0.6917155945812486
3.722772277227723,0.6903169971534359
3.7425742574257423,0.6888997969041711
3.762376237623762,0.6874686838067008
3.7821782178217824,0.686028439741921
3.801980198019802,0.6845839255630239
3.8217821782178216,0.6831400675067772
3.841584158415842,0.6817018429626986
3.8613861386138613,0.6802742656173698
3.881188118811881,0.6788623699975905
3.9009900990099013,0.6774711954429293
3.9207920792079207,0.6761057695457984
3.9405940594059405,0.6747710911049429
3.96039603960396,0.6734721126462735
3.98019801980198,0.6722137225734961
4.0,0.6710007270191037
4.01980198019802,0.6698378314749865
4.03960396039604,0.6687296222896826
4.0594059405940595,0.6676805481273315
4.079207920792079,0.6666949014904112
4.099009900990099,0.6657768004148091
4.118811881188119,0.6649301704514156
4.138613861386139,0.6641587270527023
4.158415841584159,0.6634659584860632
4.178217821782178,0.662855109397288
4.198019801980198,0.6623291651479001
4.217821782178218,0.6618908370484725
4.237623762376238,0.6615425486069166
4.257425742574258,0.6612864229057519
4.2772277227722775,0.6611242712157295
4.297029702970297,0.6610575829445411
4.316831683168317,0.6610875170096191
4.336633663366336,0.6612148947121492
4.356435643564357,0.6614401941768818
4.376237623762377,0.6617635464081845
4.3960396039603955,0.6621847329981109
4.415841584158416,0.6627031855068198
4.435643564356436,0.6633179865200246
4.455445544554455,0.6640278723724445
4.475247524752476,0.664831237510937
4.4950495049504955,0.6657261404558853
4.514851485148514,0.6667103113057701
4.534653465346535,0.6677811607165292
4.554455445544555,0.6689357902759936
4.574257425742574,0.6701710041831734
4.594059405940594,0.6714833221337174
4.613861386138614,0.6728689933058314
4.633663366336633,0.6743240113356692
4.653465346534653,0.6758441301676461
4.673267326732674,0.6774248806633786
4.693069306930693,0.6790615878524721
4.712871287128713,0.680749388709891
4.732673267326733,0.682483250347132
4.752475247524752,0.6842579885082133
4.772277227722772,0.6860682862666386
4.792079207920793,0.6879087128251531
4.811881188118812,0.6897737423266731
4.8316831683168315,0.6916577725919894
4.851485148514852,0.6935551437071652
4.871287128712871,0.695460156391336
4.891089108910891,0.6973670900834363
4.910891089108912,0.6992702206939669
4.930693069306931,0.7011638379756082
4.9504950495049505,0.7030422624736273
4.97029702970297,0.7048998620240104
4.99009900990099,0.7067310677738085
5.00990099009901,0.7085303897039626
5.02970297029703,0.7102924316407623
5.0495049504950495,0.7120119057466044
5.069306930693069,0.7136836464856128
5.089108910891089,0.7153026240631202
5.108910891089109,0.7168639573416759
5.128712871287129,0.7183629262388654
5.148514851485149,0.7197949836145868
5.1683168316831685,0.7211557666572446
5.188118811881188,0.7224411077795952
5.207920792079208,0.7236470450359938
5.227722772277227,0.7247698320733527
5.247524752475248,0.725805947627973
5.267326732673268,0.7267521045806129
5.2871287128712865,0.7276052585813563
5.306930693069307,0.7283626162550159
5.326732673267327,0.7290216429969435
5.346534653465346,0.7295800703675326
5.366336633663367,0.7300359030921098
5.3861386138613865,0.730387425671463
5.405940594059405,0.7306332086056693
5.425742574257426,0.7307721142322297
5.445544554455446,0.7308033021767382
5.465346534653465,0.7307262344119956
5.485148514851486,0.730540679918539
5.504950495049505,0.7302467189367721
5.524752475247524,0.7298447467977538
5.544554455445545,0.7293354773164646
5.564356435643565,0.7287199457279997
5.584158415841584,0.727999511143589
5.603960396039604,0.7271758584996352
5.623762376237624,0.7262509999693102
5.643564356435643,0.7252272758021057
5.663366336633663,0.724107354553046
5.683168316831684,0.722894232658908
5.702970297029703,0.7215912333150593
5.7227722772277225,0.7202020046021771
5.742574257425743,0.7187305168083914
5.762376237623762,0.7171810588884101
5.782178217821782,0.7155582339975963
5.801980198019803,0.7138669540357686
5.821782178217822,0.7121124331323856
5.841584158415841,0.7103001800026469
5.861386138613861,0.7084359891020208
5.881188118811881,0.7065259305060531
5.900990099009901,0.7045763384421803
5.920792079207921,0.702593798401417
5.9405940594059405,0.7005851327603765
5.96039603960396,0.6985573848478503
5.98019801980198,0.6965178013960761
6.0,0.6944738133240088
6.01980198019802,0.6924330148098137
6.03960396039604,0.6904031406212198
6.0594059405940595,0.6883920416866743
6.079207920792079,0.6864076589066854
6.099009900990099,0.6844579952234441
6.118811881188119,0.6825510859885656
6.138613861386139,0.6806949676920183
6.158415841584159,0.6788976451414984
6.178217821782178,0.6771670572088939
6.198019801980198,0.6755110412898386
6.217821782178218,0.6739372966524795
6.237623762376237,0.6724533468821461
6.257425742574258,0.6710665016590388
6.2772277227722775,0.6697838181352836
6.297029702970296,0.6686120622053321
6.316831683168317,0.6675576699881849
6.336633663366337,0.666626709861152
6.356435643564356,0.6658248454012757
6.376237623762377,0.6651572996016588
6.396039603960396,0.6646288207350001
6.415841584158415,0.6642436502348329
6.435643564356436,0.664005492956023
6.455445544554456,0.6639174901599216
6.475247524752475,0.6639821955457309
6.495049504950495,0.6642015546189033
6.514851485148515,0.6645768876499312
6.534653465346534,0.6651088764336496
6.554455445544554,0.6657975550108877
6.574257425742575,0.666642304462461
6.594059405940594,0.6676418518311799
6.6138613861386135,0.6687942731721898
6.633663366336634,0.6700970006771377
6.653465346534653,0.6715468337645412
6.673267326732673,0.6731399539789842
6.693069306930694,0.67487194349621
6.712871287128713,0.6767378069911145
6.732673267326732,0.6787319965917479
6.752475247524753,0.6808484396152648
6.772277227722772,0.6830805687615842
6.792079207920792,0.6854213544277011
6.811881188118813,0.6878633387993295
6.8316831683168315,0.6903986713774047
6.851485148514851,0.6930191456033583
6.871287128712871,0.6957162362593983
6.891089108910891,0.6984811373364614
6.910891089108911,0.7013048000831528
6.930693069306931,0.70417797097235
6.9504950495049505,0.7070912293476846
6.97029702970297,0.7100350245390326
6.99009900990099,0.7129997122634711
7.00990099009901,0.7159755901556816
7.02970297029703,0.7189529322982687
7.0495049504950495,0.7219220226482644
7.069306930693069,0.724873187279967
7.089108910891089,0.7277968253866316
7.108910891089109,0.7306834390038729
7.128712871287128,0.7335236614356476
7.148514851485149,0.7363082843799419
7.1683168316831685,0.7390282837648645
7.188118811881187,0.7416748443179768
7.207920792079208,0.7442393829010587
7.227722772277228,0.7467135706507568
7.247524752475247,0.74908935397143
7.267326732673268,0.7513589744312604
7.287128712871287,0.7535149876156616
7.306930693069306,0.755550280993998
7.326732673267327,0.7574580908562154
7.346534653465347,0.7592320183758612
7.366336633663366,0.7608660448547012
7.3861386138613865,0.7623545462023984
7.405940594059406,0.7636923067021911
7.425742574257425,0.7648745321104806
7.445544554455446,0.7658968621347176
7.465346534653466,0.7667553823301223
7.485148514851485,0.7674466354514615
7.504950495049505,0.767967632291461
7.524752475247524,0.7683158620326267
7.544554455445544,0.7684893021338688
7.564356435643565,0.7684864277678518
7.584158415841584,0.7683062208191046
7.603960396039604,0.7679481784466458
7.623762376237624,0.7674123212082486
7.643564356435643,0.7666992007363977
7.663366336633663,0.7658099069484472
7.683168316831684,0.7647460747653257
7.702970297029703,0.7635098903045529
7.7227722772277225,0.7621040965039401
7.742574257425743,0.7605319981223354
7.762376237623762,0.7587974660530323
7.782178217821782,0.756904940873948
7.801980198019803,0.7548594355462702
7.821782178217822,0.7526665371601922
7.841584158415841,0.7503324076124077
7.861386138613862,0.7478637830852797
7.881188118811881,0.7452679721823839
7.900990099009901,0.742552852559123
7.92079207920792,0.7397268658710229
7.9405940594059405,0.7367990108460108
7.96039603960396,0.7337788342708752
7.980198019801979,0.7306764196669238
8.0,0.727502373415577
8.01980198019802,0.7242678080824089
8.03960396039604,0.7209843226782818
8.05940594059406,0.7176639795899968
8.07920792079208,0.7143192779108
8.099009900990099,0.7109631229045051
8.118811881188119,0.7076087913471271
8.138613861386139,0.7042698925074758
8.158415841584159,0.7009603245550412
8.178217821782178,0.6976942262202389
8.198019801980198,0.694485923579957
8.217821782178218,0.6913498719015503
8.237623762376238,0.6883005925504401
8.257425742574258,0.685352605052053
8.277227722772277,0.6825203544959616
8.297029702970297,0.6798181345788813
8.316831683168317,0.6772600067015323
8.336633663366337,0.6748597156601105
8.356435643564357,0.672630602602256
8.376237623762377,0.6705855160472836
8.396039603960396,0.6687367218946935
8.415841584158416,0.6670958134597952
8.435643564356436,0.6656736226740545
8.455445544554456,0.6644801336652247
8.475247524752476,0.6635243999832319
8.495049504950495,0.6628144667569007
8.514851485148515,0.6623572990506098
8.534653465346535,0.6621587176365135
8.554455445544555,0.662223343305817
8.574257425742575,0.6625545507138394
8.594059405940595,0.6631544325902916
8.613861386138613,0.6640237749540084
8.633663366336634,0.6651620437567765
8.653465346534654,0.6665673831513607
8.673267326732672,0.6682366253437055
8.693069306930694,0.6701653117572005
8.712871287128714,0.6723477250167783
8.732673267326732,0.674776931060644
8.752475247524753,0.6774448305142542
8.772277227722773,0.6803422183201094
8.792079207920791,0.6834588505114657
8.811881188118813,0.6867835169495011
8.831683168316832,0.6903041188120737
8.85148514851485,0.694007749625167
8.871287128712872,0.6978807786630901
8.891089108910892,0.7019089356052702
8.91089108910891,0.7060773954216512
8.930693069306932,0.7103708625594911
8.950495049504951,0.7147736536165786
8.97029702970297,0.7192697778043549
8.990099009900991,0.723843014624777
9.00990099009901,0.728476988302468
9.029702970297029,0.7331552386263791
9.04950495049505,0.7378612879592684
9.06930693069307,0.7425787042681169
9.089108910891088,0.7472911601121587
9.10891089108911,0.7519824875974747
9.12871287128713,0.7566367293678596
9.148514851485148,0.7612381857515327
9.16831683168317,0.7657714582224718
9.188118811881187,0.7702214893650767
9.207920792079207,0.7745735995522064
9.227722772277229,0.778813520560409
9.247524752475247,0.7829274263538754
9.267326732673267,0.7869019612707662
9.287128712871288,0.7907242658433787
9.306930693069306,0.7943820004782381
9.326732673267326,0.7978633672138302
9.346534653465348,0.801157129763607
9.366336633663366,0.8042526320403195
9.386138613861386,0.8071398153454932
9.405940594059407,0.8098092343948377
9.425742574257425,0.8122520723376108
9.445544554455445,0.8144601549150265
9.465346534653467,0.8164259638902145
9.485148514851485,0.8181426498702647
9.504950495049505,0.8196040446290466
9.524752475247526,0.8208046730285282
9.544554455445544,0.8217397646256278
9.564356435643564,0.8224052650414101
9.584158415841586,0.8227978471597942
9.603960396039604,0.8229149222131776
9.623762376237623,0.822754650803326
9.643564356435645,0.8223159538962151
9.663366336633663,0.8215985238202574
9.683168316831683,0.8206028352873015
9.702970297029704,0.8193301564454283
9.722772277227723,0.8177825599614003
9.742574257425742,0.8159629341182548
9.762376237623764,0.8138749938999992
9.782178217821782,0.8115232920201735
9.801980198019802,0.8089132298338447
9.821782178217823,0.806051068053115
9.841584158415841,0.8029439371642983
9.861386138613861,0.7995998474196501
9.881188118811881,0.7960276982481144
9.900990099009901,0.792237286897455
9.92079207920792,0.7882393160836663
9.94059405940594,0.7840454003830631
9.96039603960396,0.7796680710571706
9.98019801980198,0.7751207789507278
10.0,0.7704178950486783
10.01980198019802,0.7655747082191966
10.03960396039604,0.7606074196075175
10.05940594059406,0.7555331330798943
10.07920792079208,0.7503698410504965
10.099009900990099,0.7451364049576923
10.118811881188119,0.7398525295930882
10.138613861386139,0.7345387304296599
10.158415841584159,0.7292162930485838
10.178217821782178,0.723907223732767
10.198019801980198,0.7186341902841396
10.217821782178218,0.713420452137795
10.237623762376238,0.7082897788963071
10.257425742574258,0.703266356498743
10.277227722772277,0.6983746803783917
10.297029702970297,0.6936394351575056
10.316831683168317,0.6890853606808571
10.336633663366337,0.6847371045062471
10.356435643564357,0.6806190613477971
10.376237623762377,0.6767552004035902
10.396039603960396,0.6731688819826638
10.415841584158416,0.6698826653632814
10.435643564356436,0.6669181103440762
10.455445544554454,0.6642955754660566
10.475247524752476,0.6620340163563634
10.495049504950495,0.6601507880409012
10.514851485148514,0.6586614553588427
10.534653465346535,0.6575796157567417
10.554455445544555,0.6569167387180386
10.574257425742573,0.6566820258787395
10.594059405940595,0.6568822954871222
10.613861386138614,0.6575218942924695
10.633663366336632,0.6586026392174604
10.653465346534654,0.6601237903155359
