Time (s),Filtered Signal
0.0,-0.01861590156033595
0.03337004405286344,0.17080124939291255
0.06674008810572687,0.3128175819882271
0.10011013215859031,0.3778649477123546
0.13348017621145375,0.36290045358285483
0.16685022026431717,0.28706067561996035
0.20022026431718062,0.1776163000214331
0.23359030837004408,0.05503064079736535
0.2669603524229075,-0.07387806244571969
0.3003303964757709,-0.21110584799597915
0.33370044052863435,-0.35525219202167824
0.3670704845814978,-0.4913908790646422
0.40044052863436125,-0.5913230818764593
0.43381057268722467,-0.6255252834828453
0.46718061674008815,-0.5798779992902855
0.5005506607929515,-0.4663790706155299
0.533920704845815,-0.32021484972730585
0.5672907488986785,-0.18380368934493513
0.6006607929515418,-0.0864948344597863
0.6340308370044053,-0.03145769092990991
0.6674008810572687,0.0027896908664197997
0.7007709251101322,0.04726569563265309
0.7341409691629956,0.12267954430349587
0.767511013215859,0.22622523080952314
0.8008810572687225,0.3322593082784978
0.834251101321586,0.4059530246108801
0.8676211453744493,0.4217379722433056
0.9009911894273128,0.37616786214999887
0.9343612334801763,0.28867994785449036
0.9677312775330397,0.1909923222330506
1.001101321585903,0.11202267232142935
1.0344713656387665,0.06678019290794428
1.06784140969163,0.054239297953892304
1.1012114537444935,0.06338578293806364
1.134581497797357,0.08222195579521248
1.1679515418502202,0.10397623158570873
1.2013215859030837,0.12777076336614412
1.2346916299559472,0.15502554288462655
1.2680616740088106,0.1851666965261226
1.3014317180616741,0.21368047381907446
1.3348017621145374,0.23322945041673554
1.3681718061674009,0.23639983445810528
1.4015418502202643,0.21803287713119737
1.4349118942731278,0.17597805009238554
1.4682819383259913,0.11048813869956062
1.5016519823788548,0.023336277988563296
1.535022026431718,-0.08232840869597668
1.5683920704845815,-0.20112176833554657
1.601762114537445,-0.32419523559246355
1.6351321585903085,-0.4387808673524324
1.668502202643172,-0.5294724843706633
1.7018722466960352,-0.5813786278677952
1.7352422907488987,-0.5842321023721995
1.7686123348017622,-0.5358512803948049
1.8019823788546256,-0.44344416089826394
1.8353524229074891,-0.32212176451460073
1.8687224669603526,-0.19118273091797933
1.9020925110132159,-0.06959683985039321
1.9354625550660793,0.027777719828470104
1.9688325991189428,0.09230919154478516
2.002202643171806,0.12197962189200333
2.0355726872246698,0.12066267991202143
2.068942731277533,0.09712961477485654
2.1023127753303967,0.06431051165633501
2.13568281938326,0.03855983790853715
2.1690528634361232,0.03780162874722671
2.202422907488987,0.07726790908301776
2.23579295154185,0.16285022478330263
2.269162995594714,0.28457449153651854
2.302533039647577,0.4146415655362973
2.3359030837004404,0.5137076727189087
2.369273127753304,0.5450308742556877
2.4026431718061674,0.49084203975980406
2.436013215859031,0.3624266625882624
2.4693832599118943,0.19747539933442834
2.5027533039647576,0.04466396236295904
2.5361233480176213,-0.05746766101947636
2.5694933920704845,-0.09676440123573975
2.6028634361233483,-0.09056787728027504
2.6362334801762115,-0.07427713489208825
2.6696035242290748,-0.08149153026684505
2.7029735682819385,-0.12603441878610352
2.7363436123348017,-0.19491190736882566
2.7697136563876654,-0.2555109193110026
2.8030837004405287,-0.2731669025668829
2.8364537444933924,-0.23018936625438327
2.8698237885462556,-0.13685849444478856
2.903193832599119,-0.028914225106878032
2.9365638766519826,0.04742111795183021
2.969933920704846,0.056011303311081895
3.0033039647577096,-0.012354529031467413
3.036674008810573,-0.13432348881669984
3.070044052863436,-0.26202260191793403
3.1034140969162998,-0.34150760597570573
3.136784140969163,-0.33415877049549186
3.1701541850220267,-0.2323949815305929
3.20352422907489,-0.063215270550932
3.2368942731277532,0.12218331832384921
3.270264317180617,0.2687071028066266
3.30363436123348,0.33906663290386774
3.337004405286344,0.3273212409672095
3.370374449339207,0.2581769614066671
3.4037444933920704,0.17270345657763417
3.437114537444934,0.10787797316318044
3.4704845814977974,0.08034267074573029
3.503854625550661,0.08211650553822034
3.5372246696035243,0.08918589683603054
3.5705947136563876,0.07694952427200374
3.6039647577092513,0.033474152491529456
3.6373348017621145,-0.03610214956013127
3.6707048458149782,-0.11482698543886753
3.7040748898678415,-0.1841589259331167
3.737444933920705,-0.23251541929243222
3.7708149779735685,-0.257755346439409
3.8041850220264317,-0.26370160635831913
3.8375550660792954,-0.2544405957874804
3.8709251101321587,-0.23075153506066762
3.9042951541850224,-0.19067731659819914
3.9376651982378856,-0.13294153074532017
3.971035242290749,-0.060047293736976384
4.004405286343612,0.021396168007221786
4.037775330396476,0.10310006780048772
4.0711453744493395,0.17806660670354918
4.104515418502203,0.24166637886033446
4.137885462555066,0.29017772589868246
4.171255506607929,0.31843886530785764
4.2046255506607935,0.3192267512971354
4.237995594713657,0.28586499803389664
4.27136563876652,0.21719857179641705
4.304735682819383,0.12211096380929996
4.3381057268722465,0.020460259649676314
4.371475770925111,-0.06120550819787062
4.404845814977974,-0.09837057828675726
4.438215859030837,-0.07867877530921019
4.4715859030837,-0.009222555744133732
4.504955947136564,0.08288556072687864
4.538325991189428,0.15839421743521587
4.571696035242291,0.1804560864208588
4.605066079295154,0.13044185731386868
4.638436123348018,0.01790476187046581
4.671806167400881,-0.12078266528360655
4.705176211453745,-0.2357638830982578
4.738546255506608,-0.2838358291557443
4.7719162995594715,-0.24657491105210333
4.805286343612335,-0.13831870709028007
4.838656387665198,-0.0006129711271097647
4.872026431718062,0.11402140599748145
4.905396475770925,0.1616799362804347
4.938766519823789,0.12206741128320257
4.972136563876652,0.003894732495594712
5.005506607929515,-0.1598393188753067
5.038876651982379,-0.3235938933964727
5.072246696035243,-0.443494606896849
5.105616740088106,-0.4898262361085099
5.138986784140969,-0.4548181351524811
5.172356828193832,-0.35392827545946565
5.2057268722466965,-0.22005322741177485
5.23909691629956,-0.09180510409022574
5.272466960352423,0.0007386054904941811
5.305837004405286,0.047515426441775414
5.3392070484581495,0.06191118554933422
5.372577092511014,0.07371932685678007
5.405947136563877,0.11405919861442675
5.43931718061674,0.19906026525796888
5.4726872246696034,0.32029734816334926
5.506057268722468,0.44688884827038117
5.539427312775331,0.538338051516386
5.572797356828194,0.5618486070917377
5.606167400881057,0.5059591383795231
5.639537444933921,0.3847640911679202
5.672907488986785,0.2319767277450635
5.706277533039648,0.08859264498235929
5.739647577092511,-0.01035632785596389
5.7730176211453745,-0.045662154306294396
5.806387665198238,-0.018580113418376742
5.839757709251102,0.04974122873570869
5.873127753303965,0.12346178225554481
5.9064977973568284,0.16129092177385215
5.939867841409692,0.1286071671145716
5.973237885462555,0.00984825176256778
6.006607929515419,-0.18293390509155624
6.039977973568282,-0.4096015463412209
6.073348017621146,-0.611670008003981
6.106718061674009,-0.7304074472534344
6.140088105726872,-0.7273360217485252
6.173458149779736,-0.5990980289102146
6.2068281938325995,-0.38001341394328547
6.240198237885463,-0.1302996432860125
6.273568281938326,0.08593099054233594
6.306938325991189,0.22389013216487152
6.3403083700440535,0.272456510998263
6.373678414096917,0.2532940462210328
6.40704845814978,0.20559471538667895
6.440418502202643,0.1645009202709881
6.4737885462555065,0.14456603621463215
6.507158590308371,0.1368555334208563
6.540528634361234,0.12057815347532794
6.573898678414097,0.0816168683877507
6.60726872246696,0.026066345428069636
6.640638766519824,-0.020218167653915098
6.674008810572688,-0.026398815165311767
6.707378854625551,0.023081811512771045
6.740748898678414,0.11542981651295209
6.774118942731278,0.21221566582602236
6.807488986784141,0.26701579973865425
6.840859030837005,0.24826836100547828
6.874229074889868,0.15478298863407947
6.9075991189427315,0.01589276445815157
6.940969162995595,-0.12298585811832395
6.974339207048458,-0.22096311674509572
7.007709251101322,-0.2576523915324671
7.041079295154185,-0.2373666503544986
7.074449339207049,-0.18146085662931843
7.107819383259912,-0.11500655006019728
7.141189427312775,-0.05601814344647983
7.174559471365639,-0.01248235898844476
7.207929515418503,0.013320084692207761
7.241299559471366,0.01846461144322351
7.274669603524229,-0.0029848966832799043
7.308039647577092,-0.055877283378310015
7.3414096916299565,-0.13614525485185014
7.37477973568282,-0.225284783714133
7.408149779735683,-0.29233922584459765
7.441519823788546,-0.3041384656401253
7.47488986784141,-0.2393212239852096
7.508259911894274,-0.09892801485757012
7.541629955947137,0.09221858682839322
7.575,0.29435358782856397
7.608370044052863,0.46746094125691434
7.641740088105728,0.5844975558762805
7.675110132158591,0.6369143438517132
7.708480176211454,0.630716184320588
7.741850220264317,0.5766505237858404
7.775220264317181,0.48128622904872825
7.808590308370045,0.34487151803135546
7.841960352422908,0.16737847462191452
7.875330396475771,-0.04136622968882864
7.9087004405286345,-0.25480523110670966
7.942070484581498,-0.4322413954186394
7.975440528634362,-0.5319784233089259
8.008810572687224,-0.5296982593329165
8.042180616740088,-0.43273852334113033
8.075550660792953,-0.2817835796177212
8.108920704845815,-0.1371253339930108
8.142290748898679,-0.05438127230528926
8.175660792951541,-0.06043078812835489
8.209030837004406,-0.14117427718136608
8.24240088105727,-0.24776108149987153
8.275770925110132,-0.3192829607696902
8.309140969162996,-0.3117123213469289
8.342511013215859,-0.21930885448505616
8.375881057268723,-0.07797326075627975
8.409251101321587,0.051240819646797116
8.44262114537445,0.11046688137708759
8.475991189427313,0.07160516114364217
8.509361233480176,-0.05102047719322393
8.54273127753304,-0.20670036669647762
8.576101321585904,-0.32887722481321363
8.609471365638766,-0.3602183892425735
8.64284140969163,-0.2720345138722199
8.676211453744493,-0.07215035139144153
8.709581497797357,0.1990554639549732
8.742951541850221,0.4808445561173398
8.776321585903084,0.7079645300176199
8.809691629955948,0.8265668467272848
8.84306167400881,0.8077967192419507
8.876431718061674,0.6568127296847108
8.909801762114538,0.41441727600715766
8.9431718061674,0.14865911646234384
8.976541850220265,-0.06387406812454027
9.009911894273127,-0.16291890246620966
9.043281938325991,-0.12699200774886402
9.076651982378856,0.01644868361455579
9.110022026431718,0.1993321516046138
9.143392070484582,0.33817847029272236
9.176762114537445,0.3663608603853225
9.210132158590309,0.25958045809610786
9.243502202643173,0.04347106610428596
9.276872246696035,-0.21934017845434445
9.3102422907489,-0.4557310195797317
9.343612334801762,-0.6093642453276785
9.376982378854626,-0.6569297173351977
9.41035242290749,-0.608285805237695
9.443722466960352,-0.4939059422938101
9.477092511013216,-0.3484975339551895
9.510462555066079,-0.1995530406929748
9.543832599118943,-0.06481456842164338
9.577202643171807,0.043380802321519925
9.61057268722467,0.11255377853501455
9.643942731277534,0.1286451206550793
9.677312775330396,0.0805172132044698
9.71068281938326,-0.03193020771834447
9.744052863436124,-0.19084087404652578
9.777422907488987,-0.35926174941975225
9.81079295154185,-0.4878931381128454
9.844162995594713,-0.5284845228289768
9.877533039647577,-0.44976709797090125
9.910903083700441,-0.25034665306917064
9.944273127753304,0.03664498032240087
9.977643171806168,0.3500403846365178
10.01101321585903,0.6173873341912519
10.044383259911895,0.7770154989042914
10.077753303964759,0.7978298499676466
10.111123348017621,0.6894012475381095
10.144493392070485,0.4981510249819537
10.177863436123348,0.29061240814113065
10.211233480176212,0.12983809094767174
10.244603524229076,0.05384573270275151
10.277973568281938,0.06424725179612661
10.311343612334802,0.12911491663128963
10.344713656387665,0.1983972896596316
10.378083700440529,0.2252088948702498
10.411453744493393,0.1841261271168724
10.444823788546255,0.07913471542683764
10.47819383259912,-0.061470039399160195
10.511563876651982,-0.2000376773204561
10.544933920704846,-0.3067035086390379
10.57830396475771,-0.3702740769484384
10.611674008810573,-0.39798258842360934
10.645044052863437,-0.40545966641744136
10.678414096916299,-0.40373775936196615
10.711784140969163,-0.391573786302035
10.745154185022027,-0.3577870184592562
10.77852422907489,-0.29174373156275285
10.811894273127754,-0.19470014307299557
10.845264317180618,-0.08400816057167791
10.87863436123348,0.013247555409356924
10.912004405286345,0.07372696377304068
10.945374449339207,0.09027260030469869
10.978744493392071,0.07566218154158516
11.012114537444935,0.05531497721350031
11.045484581497798,0.05320590940567037
11.078854625550662,0.07910363934308692
11.112224669603524,0.12422670343145194
11.145594713656388,0.1674172686470874
11.178964757709252,0.18803813059813726
11.212334801762115,0.17825548846202924
11.245704845814979,0.14788508622884416
11.279074889867841,0.11907687294088287
11.312444933920705,0.11358280876755948
11.34581497797357,0.1393835890077272
11.379185022026432,0.1839793936317763
11.412555066079296,0.21838267284768526
11.445925110132158,0.21043953323055475
11.479295154185023,0.14130171013117143
11.512665198237887,0.017070047278706712
11.546035242290749,-0.1303431897947779
11.579405286343613,-0.2542754339782
11.612775330396476,-0.3120792624382776
11.64614537444934,-0.28377097740900664
11.679515418502204,-0.1823713621483681
11.712885462555066,-0.05082043152542265
11.74625550660793,0.05419965108431986
11.779625550660793,0.0854362567576558
11.812995594713657,0.025550089843072124
11.846365638766521,-0.10425942860954132
11.879735682819383,-0.25181772703725464
11.913105726872248,-0.35486371836875635
11.94647577092511,-0.3662887049387668
11.979845814977974,-0.2728084315447813
12.013215859030838,-0.09932339554456891
12.0465859030837,0.10220980634306524
12.079955947136565,0.27391276623006744
12.113325991189427,0.3738894351367748
12.146696035242291,0.3900926042457346
12.180066079295155,0.34125870653328555
12.213436123348018,0.2654902359977113
12.246806167400882,0.2019233663229328
12.280176211453744,0.1734362136224588
12.313546255506608,0.17765451362086926
12.346916299559473,0.18984652387807965
12.380286343612335,0.1761149979451189
12.413656387665199,0.11080352572930578
12.447026431718061,-0.009748234918643702
12.480396475770926,-0.16323929246646415
12.51376651982379,-0.3089710255482998
12.547136563876652,-0.40364305393472244
12.580506607929516,-0.4186322621462337
12.613876651982379,-0.35152676653140663
12.647246696035243,-0.22722618834655636
12.680616740088107,-0.08829585801819252
12.71398678414097,0.021368590133710157
12.747356828193833,0.0729021093219077
12.780726872246696,0.062326140102574944
12.81409691629956,0.010104087269667817
12.847466960352424,-0.04918705251807228
12.880837004405286,-0.08259390722397834
12.91420704845815,-0.07313841009788995
12.947577092511013,-0.026446230398324742
12.980947136563877,0.03340770794816126
13.014317180616741,0.07697618911759298
13.047687224669604,0.08516563804766271
13.081057268722468,0.05968758639821701
13.11442731277533,0.02259489559929159
13.147797356828194,0.004683279713802917
13.181167400881058,0.02845818820584585
13.21453744493392,0.09457820190431422
13.247907488986785,0.17923491287350432
13.281277533039647,0.24437256270318145
13.314647577092511,0.25590107258924294
13.348017621145376,0.20079163868293257
13.381387665198238,0.09447900934640398
13.414757709251102,-0.025061874720196217
13.448127753303964,-0.11362089514292378
13.481497797356829,-0.13972150021253565
13.514867841409693,-0.09772423223814783
13.548237885462555,-0.009636137967121674
13.58160792951542,0.08463941984559344
13.614977973568282,0.1440790901633289
13.648348017621146,0.14322775627470988
13.68171806167401,0.08204009647376802
13.715088105726872,-0.014968932122406643
13.748458149779736,-0.1097813945448052
13.781828193832599,-0.16747923161736722
13.815198237885463,-0.1713126628042784
13.848568281938327,-0.1296356298878699
13.88193832599119,-0.07155121259104258
13.915308370044054,-0.03320421290984533
13.948678414096916,-0.041108332802882154
13.98204845814978,-0.10042388193897685
14.015418502202644,-0.19366417517776685
14.048788546255507,-0.2898995225185566
14.08215859030837,-0.3589841874171705
14.115528634361233,-0.38290714217407745
14.148898678414097,-0.35867233855787867
14.182268722466961,-0.2927968289667147
14.215638766519824,-0.1928813869653068
14.249008810572688,-0.0631372293326871
14.28237885462555,0.09273693027965625
14.315748898678414,0.2638922903329277
14.349118942731279,0.42664936170751155
14.382488986784141,0.5469583188611293
14.415859030837005,0.5919964963056726
14.449229074889868,0.5455737532805426
14.482599118942732,0.4187281860436692
14.515969162995596,0.2488550172911709
14.549339207048458,0.08677511355347867
14.582709251101322,-0.022332470166593912
14.616079295154185,-0.05503051817014546
14.649449339207049,-0.015476979925957148
14.682819383259913,0.07069144847838131
14.716189427312775,0.1701042702491146
14.74955947136564,0.2553463648628597
14.782929515418502,0.3118467640060922
14.816299559471366,0.3357168776248217
14.84966960352423,0.32579514466974513
14.883039647577093,0.27656487875148017
14.916409691629957,0.1778429698496556
14.94977973568282,0.022441304723355333
14.983149779735683,-0.18286976327422122
15.016519823788547,-0.4110089550761826
15.04988986784141,-0.6189243586345938
15.083259911894274,-0.7625317161706159
15.116629955947138,-0.8153161831076088
15.15,-0.7805244378019681
15.183370044052865,-0.6896538506078779
15.216740088105727,-0.5872301545453791
15.250110132158591,-0.5094367308560479
15.283480176211455,-0.46757729276398946
15.316850220264318,-0.444657829378589
15.350220264317182,-0.4062210603156304
15.383590308370044,-0.3191405409941587
15.416960352422908,-0.16850138675487872
15.450330396475772,0.03540304532650915
15.483700440528635,0.2621390117940121
15.517070484581499,0.4743191613593443
15.550440528634361,0.6417187332121044
15.583810572687225,0.749922730663475
15.61718061674009,0.8007988588209366
15.650550660792952,0.8063433565500442
15.683920704845816,0.7801462403407752
15.717290748898678,0.730944757457018
15.750660792951543,0.6608780230429548
15.784030837004407,0.5683379557452833
15.817400881057269,0.45306335537369
15.850770925110133,0.3202625946089063
15.884140969162996,0.18132378566618132
15.91751101321586,0.05062459990632666
15.950881057268724,-0.059895805925477025
15.984251101321586,-0.14548926649938176
16.01762114537445,-0.21006168247111504
16.050991189427315,-0.26340878388477734
16.084361233480177,-0.31544585885410636
16.11773127753304,-0.3702164029105985
16.151101321585905,-0.42270541055040123
16.184471365638768,-0.46026632748069873
16.21784140969163,-0.46827301527840454
16.251211453744492,-0.437421858223979
16.284581497797358,-0.36909650045266845
16.31795154185022,-0.27604576254060964
16.351321585903083,-0.17795391149435835
16.38469162995595,-0.09401983820123216
16.41806167400881,-0.03601715897944255
16.451431718061674,-0.0048626678516613805
16.48480176211454,0.008089374395925391
16.518171806167402,0.015927098676745473
16.551541850220264,0.029582992696527696
16.584911894273127,0.05245088370582325
16.618281938325993,0.07828096553107554
16.651651982378855,0.09322126380245263
16.685022026431717,0.08150960979989588
16.718392070484583,0.03305277530991912
16.751762114537446,-0.04980833837529302
16.785132158590308,-0.1493145715239317
16.818502202643174,-0.23524654874008127
16.851872246696036,-0.27398152323746194
16.8852422907489,-0.2411164076425235
16.91861233480176,-0.13290258593063037
16.951982378854627,0.02873918981570367
16.98535242290749,0.20092922519042053
17.01872246696035,0.3337117640949571
17.052092511013218,0.38833198964432897
17.08546255506608,0.3525501234109027
17.118832599118942,0.2461679112499812
17.152202643171808,0.11367047586936005
17.18557268722467,0.006354725918909259
17.218942731277533,-0.03885947591711467
