Frequency (Hz),Amplitude
0.0,0.66060472630934
0.019801980198019802,0.6631529276217021
0.039603960396039604,0.6707295829132807
0.0594059405940594,0.6831383866475008
0.07920792079207921,0.700075378505377
0.09900990099009901,0.7211578847309893
0.1188118811881188,0.745955742509186
0.13861386138613863,0.7740197773430882
0.15841584158415842,0.8049045068718776
0.1782178217821782,0.838184099789576
0.19801980198019803,0.8734620927159973
0.21782178217821782,0.9103761147489432
0.2376237623762376,0.9485990449152639
0.25742574257425743,0.9878378734099185
0.27722772277227725,1.0278312533609608
0.297029702970297,1.0683464377548129
0.31683168316831684,1.1091760518248925
0.33663366336633666,1.1501349692342784
0.3564356435643564,1.1910574353143282
0.37623762376237624,1.2317945000873787
0.39603960396039606,1.2722117751059894
0.4158415841584158,1.312187500809193
0.43564356435643564,1.3516108973856424
0.45544554455445546,1.3903807666981398
0.4752475247524752,1.4284043121505985
0.495049504950495,1.4655961452464432
0.5148514851485149,1.5018774506474342
0.5346534653465347,1.5371752850048237
0.5544554455445545,1.5714219882654388
0.5742574257425742,1.6045546893317122
0.594059405940594,1.6365148907826192
0.613861386138614,1.6672481198173479
0.6336633663366337,1.6967036346811364
0.6534653465346534,1.7248341776045453
0.6732673267326733,1.7515957667741755
0.6930693069306931,1.7769475210941288
0.7128712871287128,1.8008515125313804
0.7326732673267327,1.8232726416975131
0.7524752475247525,1.844178533034453
0.7722772277227723,1.8635394465663209
0.7920792079207921,1.881328203675234
0.8118811881188118,1.8975201247728677
0.8316831683168316,1.9120929770866077
0.8514851485148516,1.9250269310704744
0.8712871287128713,1.9363045241981378
0.891089108910891,1.9459106311044447
0.9108910891089109,1.9538324392217348
0.9306930693069307,1.9600594292122437
0.9504950495049505,1.9645833596334539
0.9702970297029703,1.967398255393149
0.99009900990099,1.9685003996590325
1.00990099009901,1.96788832898654
1.0297029702970297,1.9655628315210223
1.0495049504950495,1.961526948219641
1.0693069306930694,1.9557859771252395
1.0891089108910892,1.9483474808130106
1.108910891089109,1.939221297222064
1.1287128712871286,1.9284195541810312
1.1485148514851484,1.9159566880422545
1.1683168316831685,1.9018494669555663
1.188118811881188,1.8861170194440977
1.2079207920792079,1.8687808690936052
1.227722772277228,1.8498649763404587
1.2475247524752475,1.8293957885437553
1.2673267326732673,1.8074022997639876
1.2871287128712872,1.7839161219495454
1.3069306930693068,1.7589715695639423
1.3267326732673268,1.7326057600819158
1.3465346534653466,1.704858733255571
1.3663366336633662,1.6757735926184887
1.3861386138613863,1.6453966733774064
1.405940594059406,1.613777741659752
1.4257425742574257,1.5809702310709484
1.4455445544554455,1.5470315236980041
1.4653465346534653,1.5120232841148757
1.4851485148514851,1.476011856637224
1.504950495049505,1.4390687380817742
1.5247524752475248,1.4012711406426568
1.5445544554455446,1.36270266222423
1.5643564356435644,1.3234540846566654
1.5841584158415842,1.2836243235928808
1.6039603960396038,1.2433215573624268
1.6237623762376237,1.2026645652693173
1.6435643564356437,1.161784308087315
1.6633663366336633,1.1208257836485283
1.683168316831683,1.0799501864839502
1.7029702970297032,1.0393373893324436
1.7227722772277227,0.9991887411820377
1.7425742574257426,0.9597301342906341
1.7623762376237624,0.9212152216131864
1.782178217821782,0.8839285540274048
1.801980198019802,0.848188240868871
1.8217821782178218,0.814347509399618
1.8415841584158414,0.7827942566186405
1.8613861386138615,0.7539473927796305
1.881188118811881,0.7282485722898075
1.900990099009901,0.7061479740872756
1.920792079207921,0.6880833679648476
1.9405940594059405,0.674452981344297
1.9603960396039604,0.6655846183864882
1.98019801980198,0.6617055836630534
2.0,0.662919273185824
2.01980198019802,0.6691938274934172
2.0396039603960396,0.6803656984449585
2.0594059405940595,0.6961572158068794
2.0792079207920793,0.7162038746095981
2.099009900990099,0.7400854639705978
2.118811881188119,0.7673556235021237
2.1386138613861387,0.7975662315281716
2.1584158415841586,0.8302851476238858
2.1782178217821784,0.865107489122063
2.1980198019801978,0.9016615533033461
2.217821782178218,0.9396108018507264
2.237623762376238,0.9786532363300056
2.257425742574257,1.0185192299391952
2.2772277227722775,1.058968583957365
2.297029702970297,1.0997873181572586
2.3168316831683167,1.1407845061694089
2.336633663366337,1.1817893277654592
2.3564356435643563,1.222648418947533
2.376237623762376,1.2632235446586968
2.3960396039603964,1.3033895867251364
2.4158415841584158,1.3430328228629282
2.4356435643564356,1.382049465306191
2.455445544554456,1.4203444258967937
2.4752475247524752,1.4578302757994437
2.495049504950495,1.4944263708227548
2.514851485148515,1.5300581167208862
2.5346534653465347,1.5646563523064656
2.5544554455445545,1.5981568314552388
2.5742574257425743,1.6304997880020253
2.594059405940594,1.6616295700778714
2.6138613861386135,1.6914943326254572
2.633663366336634,1.7200457786830228
2.6534653465346536,1.7472389415845475
2.673267326732673,1.7730320015260093
2.6930693069306932,1.7973861310328298
2.712871287128713,1.8202653647660914
2.7326732673267324,1.841636489856093
2.7524752475247527,1.8614689535759406
2.7722772277227725,1.8797347856886766
2.792079207920792,1.8964085332350746
2.811881188118812,1.9114672058935251
2.8316831683168315,1.9248902303484214
2.8514851485148514,1.9366594123615888
2.8712871287128716,1.946758905460175
2.891089108910891,1.9551751853414472
2.910891089108911,1.9618970292563243
2.9306930693069306,1.9669154997738463
2.9504950495049505,1.9702239324528443
2.9702970297029703,1.9718179270578953
2.99009900990099,1.971695342058083
3.00990099009901,1.9698562922411165
3.0297029702970297,1.9663031493652758
3.0495049504950495,1.961040545859398
3.0693069306930694,1.954075381669147
3.089108910891089,1.9454168344383052
3.108910891089109,1.9350763733097074
3.128712871287129,1.923067776733286
3.148514851485148,1.9094071547826381
3.1683168316831685,1.8941129766088194
3.1881188118811883,1.8772061038047754
3.2079207920792077,1.8587098306207321
3.227722772277228,1.838649932164418
3.2475247524752473,1.817054721947037
3.267326732673267,1.7939551204037605
3.2871287128712874,1.7693847363349433
3.3069306930693068,1.743379963592404
3.3267326732673266,1.7159800957871145
3.346534653465347,1.6872274623359769
3.366336633663366,1.6571675898156037
3.386138613861386,1.625849393372152
3.4059405940594063,1.5933254038756097
3.4257425742574257,1.5596520376352419
3.4455445544554455,1.5248899168454237
3.4653465346534653,1.4891042505469196
3.485148514851485,1.4523652878068745
3.504950495049505,1.414748857078918
3.5247524752475248,1.376337008325838
3.5445544554455446,1.3372187774707391
3.564356435643564,1.2974910960315906
3.5841584158415842,1.2572598722399475
3.603960396039604,1.2166412732311997
3.6237623762376234,1.1757632404341025
3.6435643564356437,1.1347672710488743
3.6633663366336635,1.093810495762459
3.683168316831683,1.0530680738264848
3.702970297029703,1.012735907011295
3.722772277227723,0.9730336373509045
3.7425742574257423,0.9342078310370071
3.762376237623762,0.8965351507437536
3.7821782178217824,0.8603251682311109
3.801980198019802,0.8259222583643264
3.8217821782178216,0.7937057470501832
3.841584158415842,0.764087190418988
3.8613861386138613,0.7375034249650076
3.881188118811881,0.7144040064677638
3.9009900990099013,0.6952320753755757
3.9207920792079207,0.680398766745813
3.9405940594059405,0.6702530622733515
3.96039603960396,0.6650510973598741
3.98019801980198,0.6649305411919098
4.0,0.6698957309582879
4.01980198019802,0.6798172248611483
4.03960396039604,0.6944458857912978
4.0594059405940595,0.7134380062184289
4.079207920792079,0.736385853934868
4.099009900990099,0.7628479677023307
4.118811881188119,0.7923750743140722
4.138613861386139,0.8245296107109336
4.158415841584159,0.858898647396945
4.178217821782178,0.8951011314624098
4.198019801980198,0.9327908202040236
4.217821782178218,0.9716562735357478
4.237623762376238,1.011419043467245
4.257425742574258,1.05183090447269
4.2772277227722775,1.0926706974155918
4.297029702970297,1.1337411455656479
4.316831683168317,1.1748658476442426
4.336633663366336,1.21588655025552
4.356435643564357,1.2566607376967218
4.376237623762377,1.297059539318074
4.3960396039603955,1.3369659341990532
4.415841584158416,1.3762732233965342
4.435643564356436,1.4148837369913074
4.455445544554455,1.4527077437616425
4.475247524752476,1.4896625337720335
4.4950495049504955,1.5256716474188659
4.514851485148514,1.5606642279136291
4.534653465346535,1.5945744774814172
4.554455445544555,1.6273412005501904
4.574257425742574,1.6589074198445608
4.594059405940594,1.689220053573169
4.613861386138614,1.7182296438327331
4.633663366336633,1.7458901279821473
4.653465346534653,1.772158646104927
4.673267326732674,1.7969953788171182
4.693069306930693,1.8203634106263247
4.712871287128713,1.842228614836063
4.732673267326733,1.8625595566461381
4.752475247524752,1.8813274116464673
4.772277227722772,1.8985058973579874
4.792079207920793,1.9140712158560567
4.811881188118812,1.9280020058322833
4.8316831683168315,1.9402793027209544
4.851485148514852,1.9508865057453775
4.871287128712871,1.9598093509348353
4.891089108910891,1.9670358893311324
4.910891089108912,1.9725564697496316
4.930693069306931,1.9763637255882658
4.9504950495049505,1.9784525652923663
4.97029702970297,1.978820166187358
4.99009900990099,1.9774659714874787
5.00990099009901,1.9743916903799021
5.02970297029703,1.969601301172334
5.0495049504950495,1.9631010575801748
5.069306930693069,1.9548994983195767
5.089108910891089,1.9450074602676442
5.108910891089109,1.9334380955519312
5.128712871287129,1.9202068930434202
5.148514851485149,1.9053317048506195
5.1683168316831685,1.888832778553544
5.188118811881188,1.8707327960774325
5.207920792079208,1.8510569202931788
5.227722772277227,1.8298328506501622
5.247524752475248,1.807090889404606
5.267326732673268,1.7828640203113695
5.2871287128712865,1.7571880020095778
5.306930693069307,1.730101478765163
5.326732673267327,1.7016461117512223
5.346534653465346,1.6718667346682496
5.366336633663367,1.640811538252115
5.3861386138613865,1.6085322891139098
5.405940594059405,1.5750845894318015
5.425742574257426,1.540528185304697
5.445544554455446,1.5049273331184583
5.465346534653465,1.4683512351060766
5.485148514851486,1.430874557440422
5.504950495049505,1.3925780467089244
5.524752475247524,1.353549263487244
5.544554455445545,1.3138834549124607
5.564356435643565,1.2736845915291803
5.584158415841584,1.2330665969754913
5.603960396039604,1.1921548017757937
5.623762376237624,1.1510876537093313
5.643564356435643,1.1100187154005954
5.663366336633663,1.0691189724586299
5.683168316831684,1.0285794588192583
5.702970297029703,0.9886141741399848
5.7227722772277225,0.9494632129580736
5.742574257425743,0.9113959360521693
5.762376237623762,0.8747138785603996
5.782178217821782,0.8397528960141156
5.801980198019803,0.8068837970141864
5.821782178217822,0.7765104221760675
5.841584158415841,0.7490638712881471
5.861386138613861,0.7249914909645805
5.881188118811881,0.7047395219744936
5.900990099009901,0.6887291961561157
5.920792079207921,0.6773276678533515
5.9405940594059405,0.6708172227715419
5.96039603960396,0.6693680086375393
5.98019801980198,0.6730200622908834
6.0,0.6816789483195197
6.01980198019802,0.6951261105848722
6.03960396039604,0.7130413471832715
6.0594059405940595,0.7350322336665962
6.079207920792079,0.7606647269648995
6.099009900990099,0.7894903634838476
6.118811881188119,0.8210674877569698
6.138613861386139,0.8549758711863794
6.158415841584159,0.8908253856532758
6.178217821782178,0.9282600115637302
6.198019801980198,0.9669585613049825
6.217821782178218,1.0066333182350677
6.237623762376237,1.0470275087877525
6.257425742574258,1.0879122467690214
6.2772277227722775,1.1290833604602597
6.297029702970296,1.1703583448701327
6.316831683168317,1.2115735666519625
6.336633663366337,1.2525817756661781
6.356435643564356,1.2932499329332603
6.376237623762377,1.3334573400666037
6.396039603960396,1.3730940430635112
6.415841584158415,1.4120594786634457
6.435643564356436,1.4502613311391102
6.455445544554456,1.4876145693383933
6.475247524752475,1.5240406368116766
6.495049504950495,1.559466771217981
6.514851485148515,1.5938254325105845
6.534653465346534,1.6270538224550775
6.554455445544554,1.6590934807471613
6.574257425742575,1.6898899453533387
6.594059405940594,1.719392466710228
6.6138613861386135,1.7475537671204877
6.633663366336634,1.7743298381117154
6.653465346534653,1.799679769719253
6.673267326732673,1.8235656066491424
6.693069306930694,1.8459522271064426
6.712871287128713,1.8668072407641956
6.732673267326732,1.8861009029230678
6.752475247524753,1.9038060423916545
6.772277227722772,1.919898001018502
6.792079207920792,1.934354583143914
6.811881188118813,1.9471560135231412
6.8316831683168315,1.9582849025128732
6.851485148514851,1.9677262175176813
6.871287128712871,1.9754672598688192
6.891089108910891,1.9814976464599878
6.910891089108911,1.9858092955983406
6.930693069306931,1.9883964166474901
6.9504950495049505,1.9892555031467756
6.97029702970297,1.9883853291894462
6.99009900990099,1.9857869489358317
7.00990099009901,1.9814636992271228
7.02970297029703,1.9754212053541889
7.0495049504950495,1.9676673901262685
7.069306930693069,1.9582124864782826
7.089108910891089,1.9470690539558768
7.108910891089109,1.9342519995268466
7.128712871287128,1.9197786032888027
7.148514851485149,1.9036685497803374
7.1683168316831685,1.8859439657594932
7.188118811881187,1.8666294654944875
7.207920792079208,1.8457522048232067
7.227722772277228,1.8233419454859459
7.247524752475247,1.7994311315293043
7.267326732673268,1.7740549799275003
7.287128712871287,1.7472515879821093
7.306930693069306,1.7190620605577496
7.326732673267327,1.689530660804918
7.346534653465347,1.6587049887344822
7.366336633663366,1.6266361928633293
7.3861386138613865,1.5933792211772444
7.405940594059406,1.5589931188859867
7.425742574257425,1.5235413819132566
7.445544554455446,1.4870923768075806
7.465346534653466,1.4497198398152018
7.485148514851485,1.4115034702497242
7.504950495049505,1.372529636033757
7.524752475247524,1.3328922123412454
7.544554455445544,1.2926935775295187
7.564356435643565,1.2520457937814173
7.584158415841584,1.211072002628746
7.603960396039604,1.169908066996719
7.623762376237624,1.1287044902384948
7.643564356435643,1.087628636614711
7.663366336633663,1.046867263360889
7.683168316831684,1.0066293466739784
7.702970297029703,0.9671491351875712
7.7227722772277225,0.9286892848423545
7.742574257425743,0.8915438066398811
7.762376237623762,0.8560403824113376
7.782178217821782,0.8225413693180954
7.801980198019803,0.7914425367096587
7.821782178217822,0.7631683136481179
7.841584158415841,0.7381621879823586
7.861386138613862,0.7168710758272818
7.881188118811881,0.6997231971381307
7.900990099009901,0.6871003902837037
7.92079207920792,0.6793077380675359
7.9405940594059405,0.676545274854649
7.96039603960396,0.6788874515010361
7.980198019801979,0.6862751230329545
8.0,0.6985220507329316
8.01980198019802,0.7153342890219724
8.03960396039604,0.7363379042279228
8.05940594059406,0.7611093523067667
8.07920792079208,0.7892035912309698
8.099009900990099,0.8201768442421541
8.118811881188119,0.8536028988176502
8.138613861386139,0.8890832913013531
8.158415841584159,0.926252510257656
8.178217821782178,0.9647795752164944
8.198019801980198,1.0043672333812899
8.217821782178218,1.044749758796294
8.237623762376238,1.0856900597470527
8.257425742574258,1.1269765605502
8.277227722772277,1.1684201417787583
8.297029702970297,1.209851295592625
8.316831683168317,1.2511175694017342
8.336633663366337,1.292081319658739
8.356435643564357,1.33261776798282
8.376237623762377,1.3726133363647908
8.396039603960396,1.411964231492315
8.415841584158416,1.4505752466574502
8.435643564356436,1.4883587509553886
8.455445544554456,1.5252338381260344
8.475247524752476,1.5611256105799562
8.495049504950495,1.5959645774071323
8.514851485148515,1.6296861482369835
8.534653465346535,1.6622302075839779
8.554455445544555,1.6935407567353853
8.574257425742575,1.7235656123209815
8.594059405940595,1.7522561524736464
8.613861386138613,1.7795671029806093
8.633663366336634,1.8054563570742148
8.653465346534654,1.8298848235544283
8.673267326732672,1.8528162988052461
8.693069306930694,1.8742173589921378
8.712871287128714,1.894057269331984
8.732673267326732,1.9123079078316372
8.752475247524753,1.928943701313226
8.772277227722773,1.9439415718985837
8.792079207920791,1.9572808924233782
8.811881188118813,1.968943449503891
8.831683168316832,1.9789134131941937
8.85148514851485,1.987177312355616
8.871287128712872,1.9937240150195494
8.891089108910892,1.9985447131640288
8.91089108910891,2.0016329114476656
8.930693069306932,2.0029844195557556
8.950495049504951,2.0025973479149095
8.97029702970297,2.0004721066282136
8.990099009900991,1.9966114075740298
9.00990099009901,1.9910202697016623
9.029702970297029,1.9837060276478968
9.04950495049505,1.9746783438922637
9.06930693069307,1.9639492247686352
9.089108910891088,1.9515330407588722
9.10891089108911,1.937446551613644
9.12871287128713,1.9217089369796694
9.148514851485148,1.9043418333657127
9.16831683168317,1.8853693784556693
9.188118811881187,1.86481826398196
9.207920792079207,1.8427177986127525
9.227722772277229,1.819099982589262
9.247524752475247,1.7939995961850954
9.267326732673267,1.7674543044583548
9.287128712871288,1.739504781243229
9.306930693069306,1.7101948558970286
9.326732673267326,1.6795716870001967
9.346534653465348,1.647685968023401
9.366336633663366,1.6145921709542668
9.386138613861386,1.5803488350459407
9.405940594059407,1.5450189092446704
9.425742574257425,1.5086701585087072
9.445544554455445,1.4713756461792968
9.465346534653467,1.4332143068335277
9.485148514851485,1.3942716266453088
9.504950495049505,1.3546404511774914
9.524752475247526,1.314421943629815
9.544554455445544,1.2737267196630861
9.564356435643564,1.2326761876057213
9.584158415841586,1.191404124404623
9.603960396039604,1.1500585168930082
9.623762376237623,1.1088036928369598
9.643564356435645,1.0678227536931735
9.663366336633663,1.0273202963908816
9.683168316831683,0.9875253680219563
9.702970297029704,0.9486945260325572
9.722772277227723,0.911114766371189
9.742574257425742,0.8751059221744386
9.762376237623764,0.8410219204329757
9.782178217821782,0.8092500240224535
9.801980198019802,0.7802069248503586
9.821782178217823,0.7543303881563465
9.841584158415841,0.7320652428782763
9.861386138613861,0.7138430782685984
9.881188118811881,0.7000562050284229
9.900990099009901,0.6910282123320057
9.92079207920792,0.6869853459650154
9.94059405940594,0.6880341045823604
9.96039603960396,0.6941500361520551
9.98019801980198,0.7051804497638176
10.0,0.7208603658741378
10.01980198019802,0.7408379243671129
10.03960396039604,0.7647038869096
10.05940594059406,0.7920201441305127
10.07920792079208,0.822343700255878
10.099009900990099,0.8552445355294002
10.118811881188119,0.8903173259263357
10.138613861386139,0.9271879434609144
10.158415841584159,0.9655160195943461
10.178217821782178,1.0049948257791328
10.198019801980198,1.0453495074728874
10.217821782178218,1.0863344394993233
10.237623762376238,1.1277302255416382
10.257425742574258,1.1693406710185872
10.277227722772277,1.2109899192124571
10.297029702970297,1.252519846825019
10.316831683168317,1.2937877558400814
10.336633663366337,1.334664363333631
10.356435643564357,1.3750320715653006
10.376237623762377,1.4147834914415633
10.396039603960396,1.4538201892607259
10.415841584158416,1.4920516269204613
10.435643564356436,1.5293942678459849
10.455445544554454,1.565770823783293
10.475247524752476,1.6011096207168702
10.495049504950495,1.635344065196298
10.514851485148514,1.6684121951318662
10.534653465346535,1.70025630158092
10.554455445544555,1.7308226101820594
10.574257425742573,1.7600610127200786
10.594059405940595,1.7879248408503783
10.613861386138614,1.8143706753118267
10.633663366336632,1.8393581850462581
10.653465346534654,1.8628499915531513
10.673267326732674,1.8848115545677993
