Time (s),Filtered Signal
0.0,0.03242200040223885
0.03337004405286344,0.03034234220704356
0.06674008810572687,0.03984864536101181
0.10011013215859031,0.0587138235661601
0.13348017621145375,0.06591786850540038
0.16685022026431717,0.03165180252157985
0.20022026431718062,-0.06385497750253742
0.23359030837004408,-0.21397443673380315
0.2669603524229075,-0.38206141786331743
0.3003303964757709,-0.5137245473306703
0.33370044052863435,-0.5593247950596167
0.3670704845814978,-0.4956410330388678
0.40044052863436125,-0.3363197374620991
0.43381057268722467,-0.12652259479273945
0.46718061674008815,0.07534828628857071
0.5005506607929515,0.22049902853254316
0.533920704845815,0.2874386743701334
0.5672907488986785,0.28752678720406327
0.6006607929515418,0.2567143331323328
0.6340308370044053,0.23752978001038078
0.6674008810572687,0.25925198993046145
0.7007709251101322,0.32474826516694155
0.7341409691629956,0.40939171866902824
0.767511013215859,0.47211854856563473
0.8008810572687225,0.4734479297178434
0.834251101321586,0.3925136670184259
0.8676211453744493,0.23596804741096652
0.9009911894273128,0.0354395372800656
0.9343612334801763,-0.16479496710694977
0.9677312775330397,-0.3243221027608875
1.001101321585903,-0.42036913110671176
1.0344713656387665,-0.45357364542852346
1.06784140969163,-0.4441189993311397
1.1012114537444935,-0.4205403743250873
1.134581497797357,-0.4061418286819765
1.1679515418502202,-0.4085034612440206
1.2013215859030837,-0.4160921247381423
1.2346916299559472,-0.4032195049024568
1.2680616740088106,-0.34148616191492714
1.3014317180616741,-0.21339974950765903
1.3348017621145374,-0.02286401290184351
1.3681718061674009,0.20189882340303922
1.4015418502202643,0.4148736593185169
1.4349118942731278,0.5666121132268227
1.4682819383259913,0.6215576263937119
1.5016519823788548,0.5717460033999655
1.535022026431718,0.44103871977338505
1.5683920704845815,0.2773404196150982
1.601762114537445,0.13504647608472442
1.6351321585903085,0.05433574268219984
1.668502202643172,0.04582998135864518
1.7018722466960352,0.08740504182860925
1.7352422907488987,0.13494810689853914
1.7686123348017622,0.14263202931666222
1.8019823788546256,0.0837248428113828
1.8353524229074891,-0.037527685744817955
1.8687224669603526,-0.18829031070777294
1.9020925110132159,-0.32230076589865186
1.9354625550660793,-0.4002050117440051
1.9688325991189428,-0.4052848047366333
2.002202643171806,-0.3476408039061041
2.0355726872246698,-0.2561023403326421
2.068942731277533,-0.1632484418343308
2.1023127753303967,-0.09169425447508053
2.13568281938326,-0.04801677896022364
2.1690528634361232,-0.025764524639645302
2.202422907488987,-0.013947086948385439
2.23579295154185,-0.00505100089395816
2.269162995594714,0.0019941842901338973
2.302533039647577,0.004577782380113527
2.3359030837004404,0.0017446939880896755
2.369273127753304,-0.0024463887821071654
2.4026431718061674,-0.0003310915241148149
2.436013215859031,0.014039597128976561
2.4693832599118943,0.039562260016954474
2.5027533039647576,0.06698441890486788
2.5361233480176213,0.08362791638018115
2.5694933920704845,0.08147033844758343
2.6028634361233483,0.06341388834382626
2.6362334801762115,0.043177802718652514
2.6696035242290748,0.038040510565350905
2.7029735682819385,0.058321652503234005
2.7363436123348017,0.09998388230852986
2.7697136563876654,0.1452915976303648
2.8030837004405287,0.17182673458677336
2.8364537444933924,0.16510900443276447
2.8698237885462556,0.12765279826778697
2.903193832599119,0.07898793289121696
2.9365638766519826,0.046060297174229485
2.969933920704846,0.048799340008400714
3.0033039647577096,0.08851701144085881
3.036674008810573,0.14556011953087897
3.070044052863436,0.1878721511795176
3.1034140969162998,0.18635350479817273
3.136784140969163,0.1292475935374198
3.1701541850220267,0.02822410535964967
3.20352422907489,-0.08684571489226627
3.2368942731277532,-0.1815689202508447
3.270264317180617,-0.23208703412106918
3.30363436123348,-0.23405923441604526
3.337004405286344,-0.20166896659849284
3.370374449339207,-0.15812908069659068
3.4037444933920704,-0.12337663838925603
3.437114537444934,-0.10550902329589057
3.4704845814977974,-0.09981944614824236
3.503854625550661,-0.09482615233373116
3.5372246696035243,-0.0810654645327502
3.5705947136563876,-0.05751761333515362
3.6039647577092513,-0.032509045689197894
3.6373348017621145,-0.019306043738002265
3.6707048458149782,-0.029319250725487585
3.7040748898678415,-0.06650979170815786
3.737444933920705,-0.12525601523591076
3.7708149779735685,-0.1917939326219386
3.8041850220264317,-0.2478126153121758
3.8375550660792954,-0.27459724239298045
3.8709251101321587,-0.256927930500573
3.9042951541850224,-0.18674310728435875
3.9376651982378856,-0.06650990756295645
3.971035242290749,0.08867360328520926
4.004405286343612,0.25206728602728395
4.037775330396476,0.39082932319492386
4.0711453744493395,0.4755909195534209
4.104515418502203,0.4908242418603796
4.137885462555066,0.4410951272075672
4.171255506607929,0.3492701107313447
4.2046255506607935,0.2464631216594741
4.237995594713657,0.15810325791516042
4.27136563876652,0.09313405370552313
4.304735682819383,0.042090562414450174
4.3381057268722465,-0.01488673076931142
4.371475770925111,-0.09445692314816999
4.404845814977974,-0.19822521970365403
4.438215859030837,-0.30884844982712656
4.4715859030837,-0.3959712605460608
4.504955947136564,-0.4288575366630991
4.538325991189428,-0.38956537172201716
4.571696035242291,-0.2807411504950967
4.605066079295154,-0.1250138270689044
4.638436123348018,0.04316670575085162
4.671806167400881,0.18937643790635506
4.705176211453745,0.2897757496365308
4.738546255506608,0.3364039631940988
4.7719162995594715,0.3357564385745564
4.805286343612335,0.302162077201099
4.838656387665198,0.24964750183958334
4.872026431718062,0.18637218899435984
4.905396475770925,0.11413931722139269
4.938766519823789,0.03266522528247472
4.972136563876652,-0.05438295210794506
5.005506607929515,-0.13568659825372806
5.038876651982379,-0.1938504317277542
5.072246696035243,-0.21218605821371264
5.105616740088106,-0.18335829252978236
5.138986784140969,-0.11495470341291127
5.172356828193832,-0.02830845633569871
5.2057268722466965,0.049474456815826975
5.23909691629956,0.0964365391624622
5.272466960352423,0.10400368917146015
5.305837004405286,0.07834131557197123
5.3392070484581495,0.03444794751061569
5.372577092511014,-0.013459620719539813
5.405947136563877,-0.05983697882674917
5.43931718061674,-0.1096486250043474
5.4726872246696034,-0.17320084428513083
5.506057268722468,-0.2568493082367322
5.539427312775331,-0.3547542454530241
5.572797356828194,-0.4464664882992385
5.606167400881057,-0.5022801440946865
5.639537444933921,-0.49442734096273555
5.672907488986785,-0.4092167821975616
5.706277533039648,-0.2545483361187774
5.739647577092511,-0.05917287172599088
5.7730176211453745,0.13629896150597784
5.806387665198238,0.2929961523839093
5.839757709251102,0.38640618306670793
5.873127753303965,0.4130572023067809
5.9064977973568284,0.38913696979283774
5.939867841409692,0.34248857331452115
5.973237885462555,0.3019569592929151
6.006607929515419,0.2884292309770094
6.039977973568282,0.31021897602802845
6.073348017621146,0.36291850096470335
6.106718061674009,0.4320408693042
6.140088105726872,0.49658346312651935
6.173458149779736,0.5327468000345943
6.2068281938325995,0.5182268508976691
6.240198237885463,0.43761111817587484
6.273568281938326,0.28822689290926184
6.306938325991189,0.08420656732616173
6.3403083700440535,-0.14407326224469963
6.373678414096917,-0.35677606073747525
6.40704845814978,-0.5164065891430909
6.440418502202643,-0.6004748334808732
6.4737885462555065,-0.609537125762902
6.507158590308371,-0.5664832910299773
6.540528634361234,-0.5066427836282399
6.573898678414097,-0.46263917896646917
6.60726872246696,-0.45068727893975635
6.640638766519824,-0.4646021428710805
6.674008810572688,-0.4801784036815686
6.707378854625551,-0.46756376340610495
6.740748898678414,-0.405447379170405
6.774118942731278,-0.290352161807297
6.807488986784141,-0.13724698403741906
6.840859030837005,0.02770307590134394
6.874229074889868,0.17778350595785347
6.9075991189427315,0.2944768660347387
6.940969162995595,0.3710386912338219
6.974339207048458,0.410912260188768
7.007709251101322,0.42343532372102377
7.041079295154185,0.41967329475430504
7.074449339207049,0.4098212885242606
7.107819383259912,0.40184992976503225
7.141189427312775,0.40032120782566827
7.174559471365639,0.4049556664173011
7.207929515418503,0.40978186901881725
7.241299559471366,0.4042665205313458
7.274669603524229,0.3770116786215184
7.308039647577092,0.3208669283638866
7.3414096916299565,0.23692276920199778
7.37477973568282,0.13497981693500483
7.408149779735683,0.029854921697067417
7.441519823788546,-0.06476405489677428
7.47488986784141,-0.1417821194982679
7.508259911894274,-0.2027549949571183
7.541629955947137,-0.2557293789917703
7.575,-0.31022702410259245
7.608370044052863,-0.3719175135683593
7.641740088105728,-0.4392616847113076
7.675110132158591,-0.5031685916244549
7.708480176211454,-0.5493888617545302
7.741850220264317,-0.5626091606050861
7.775220264317181,-0.5310607449992593
7.808590308370045,-0.4505421325836292
7.841960352422908,-0.3267938102660973
7.875330396475771,-0.17526794799588072
7.9087004405286345,-0.017871745623973766
7.942070484581498,0.12264565285415645
7.975440528634362,0.2287779120305613
8.008810572687224,0.2923855517264874
8.042180616740088,0.3151148682769474
8.075550660792953,0.30513673428490556
8.108920704845815,0.27216718171892756
8.142290748898679,0.2236493393307742
8.175660792951541,0.16417390668786144
8.209030837004406,0.09804535730482392
8.24240088105727,0.032696189929088106
8.275770925110132,-0.020078285755167877
8.309140969162996,-0.04672494962949779
8.342511013215859,-0.03738701171907367
8.375881057268723,0.008936688266359134
8.409251101321587,0.0828042314434052
8.44262114537445,0.16753954730264958
8.475991189427313,0.245554435046377
8.509361233480176,0.3042429723671829
8.54273127753304,0.33829523753865526
8.576101321585904,0.3476354987207948
8.609471365638766,0.33299428131909375
8.64284140969163,0.2925826978311371
8.676211453744493,0.22250805407097593
8.709581497797357,0.12095057502775833
8.742951541850221,-0.006627865982228517
8.776321585903084,-0.14504826656158534
8.809691629955948,-0.27217128481050645
8.84306167400881,-0.3661872052935993
8.876431718061674,-0.4138904130101449
8.909801762114538,-0.41550214219928516
8.9431718061674,-0.3833266318651791
8.976541850220265,-0.33488727785404854
9.009911894273127,-0.2842513879051981
9.043281938325991,-0.23625925895734964
9.076651982378856,-0.18674649131535775
9.110022026431718,-0.12847876002950426
9.143392070484582,-0.059255336138732295
9.176762114537445,0.01272013720306246
9.210132158590309,0.06977810367066212
9.243502202643173,0.092258649884811
9.276872246696035,0.06911982211021554
9.3102422907489,0.006260749246215484
9.343612334801762,-0.07216397372498508
9.376982378854626,-0.13102212311208425
9.41035242290749,-0.13755693390395496
9.443722466960352,-0.07522583214751996
9.477092511013216,0.048098930707605916
9.510462555066079,0.20141338275738213
9.543832599118943,0.3411869420149761
9.577202643171807,0.427232950739145
9.61057268722467,0.437654971831025
9.643942731277534,0.37703676668414954
9.677312775330396,0.27456993273166713
9.71068281938326,0.1725078159655578
9.744052863436124,0.10898484396640275
9.777422907488987,0.10168335954572744
9.81079295154185,0.13909757239110324
9.844162995594713,0.18375359617941897
9.877533039647577,0.18714009355031996
9.910903083700441,0.11089370038433834
9.944273127753304,-0.05465500172169802
9.977643171806168,-0.2830849053231796
10.01101321585903,-0.519539366072025
10.044383259911895,-0.7004259323822021
10.077753303964759,-0.776473203034871
10.111123348017621,-0.7291433177422195
10.144493392070485,-0.5741399390327673
10.177863436123348,-0.35224790998664157
10.211233480176212,-0.1132403515272862
10.244603524229076,0.0996323360275531
10.277973568281938,0.2591573403127555
10.311343612334802,0.3562186150229401
10.344713656387665,0.39624507253872465
10.378083700440529,0.39316291553280835
10.411453744493393,0.363422870475921
10.444823788546255,0.3214648559510219
10.47819383259912,0.2771051604601312
10.511563876651982,0.23497549996391512
10.544933920704846,0.19587262188768234
10.57830396475771,0.15931961792221636
10.611674008810573,0.1260015696846964
10.645044052863437,0.0986483461057189
10.678414096916299,0.08078450751578414
10.711784140969163,0.07417638046342026
10.745154185022027,0.07680700025837846
10.77852422907489,0.08297998225955291
10.811894273127754,0.08572339108900208
10.845264317180618,0.07997567316669979
10.87863436123348,0.06430776990707097
10.912004405286345,0.0398032983264001
10.945374449339207,0.00673529695765564
10.978744493392071,-0.03847107556699729
11.012114537444935,-0.103179692949044
11.045484581497798,-0.19427056205828636
11.078854625550662,-0.31139834924552207
11.112224669603524,-0.4417859625509083
11.145594713656388,-0.5605663702267086
11.178964757709252,-0.6380559403796243
11.212334801762115,-0.6513653278981067
11.245704845814979,-0.5947662448643909
11.279074889867841,-0.4832062485476905
11.312444933920705,-0.3465908663032497
11.34581497797357,-0.21722791876367453
11.379185022026432,-0.11643181032265469
11.412555066079296,-0.04666903113852465
11.445925110132158,0.007318193985414251
11.479295154185023,0.06944814956159219
11.512665198237887,0.1598892174887781
11.546035242290749,0.2849325075830194
11.579405286343613,0.43325144157546247
11.612775330396476,0.5796902673013243
11.64614537444934,0.6947072825018041
11.679515418502204,0.7555258241442525
11.712885462555066,0.7544533023919989
11.74625550660793,0.7009253290112321
11.779625550660793,0.616408073336247
11.812995594713657,0.524467734443104
11.846365638766521,0.4406383613490889
11.879735682819383,0.36686815291475317
11.913105726872248,0.2930230859594759
11.94647577092511,0.20430580087710148
11.979845814977974,0.09047756157552292
12.013215859030838,-0.04790760433073756
12.0465859030837,-0.19912378950692677
12.079955947136565,-0.3452915595079356
12.113325991189427,-0.46957908384061847
12.146696035242291,-0.5617084773953791
12.180066079295155,-0.6194846595591189
12.213436123348018,-0.6466791036326909
12.246806167400882,-0.6494784068323373
12.280176211453744,-0.633771575771512
12.313546255506608,-0.6040917241318646
12.346916299559473,-0.5634056353289769
12.380286343612335,-0.5125220158849604
12.413656387665199,-0.4489717921250953
12.447026431718061,-0.36676815068846247
12.480396475770926,-0.2588834912910497
12.51376651982379,-0.12275033167622804
12.547136563876652,0.03361112002236893
12.580506607929516,0.18908815055698225
12.613876651982379,0.31402663199412845
12.647246696035243,0.38164780827788974
12.680616740088107,0.3816062051202512
12.71398678414097,0.3283814764636614
12.747356828193833,0.258596377715753
12.780726872246696,0.2165509091139133
12.81409691629956,0.23374279275507173
12.847466960352424,0.3123066699413167
12.880837004405286,0.4214557994129585
12.91420704845815,0.5100428685749911
12.947577092511013,0.5301049149522696
12.980947136563877,0.46014023031748413
13.014317180616741,0.3164229718410345
13.047687224669604,0.14640539961592164
13.081057268722468,0.007226728575259503
13.11442731277533,-0.060244035726329505
13.147797356828194,-0.049414686763492324
13.181167400881058,0.010152499631921766
13.21453744493392,0.06718594774220954
13.247907488986785,0.07211033762318708
13.281277533039647,-0.0015027317088364195
13.314647577092511,-0.14659887506728603
13.348017621145376,-0.3268361204407271
13.381387665198238,-0.4920381962034181
13.414757709251102,-0.5971795880110609
13.448127753303964,-0.6167729635585055
13.481497797356829,-0.5498691506840747
13.514867841409693,-0.4158540752564975
13.548237885462555,-0.2451363663708754
13.58160792951542,-0.06983573908212644
13.614977973568282,0.08231104693048225
13.648348017621146,0.19073395490694256
13.68171806167401,0.24352471488328148
13.715088105726872,0.2394447456362251
13.748458149779736,0.1901436582578791
13.781828193832599,0.1201620837225653
13.815198237885463,0.06207899491390444
13.848568281938327,0.04644987506927921
13.88193832599119,0.08971498409153313
13.915308370044054,0.18569476949904706
13.948678414096916,0.3057246412433577
13.98204845814978,0.4087491266560957
14.015418502202644,0.457619292488714
14.048788546255507,0.4342291806387449
14.08215859030837,0.34614643730334627
14.115528634361233,0.2212745535376468
14.148898678414097,0.09298323385202331
14.182268722466961,-0.016894789610688205
14.215638766519824,-0.10835349468816201
14.249008810572688,-0.2009546488726894
14.28237885462555,-0.3194589996146939
14.315748898678414,-0.4743825099279586
14.349118942731279,-0.6480048051660547
14.382488986784141,-0.7945387862628888
14.415859030837005,-0.8564277792187908
14.449229074889868,-0.7902140079539997
14.482599118942732,-0.5896140290651362
14.515969162995596,-0.29377651188536186
14.549339207048458,0.02453130383276336
14.582709251101322,0.2861697648337876
14.616079295154185,0.43588733132303464
14.649449339207049,0.46171788388089297
14.682819383259913,0.39521188766527204
14.716189427312775,0.2936435810486016
14.74955947136564,0.2135685395554101
14.782929515418502,0.18810099937599162
14.816299559471366,0.21715674981645766
14.84966960352423,0.272978714980531
14.883039647577093,0.3163432459723236
14.916409691629957,0.3150778542779128
14.94977973568282,0.25698947857137217
14.983149779735683,0.1529677444426466
15.016519823788547,0.030688045471926988
15.04988986784141,-0.0771181069050089
15.083259911894274,-0.14457276394444785
15.116629955947138,-0.16041278191553326
15.15,-0.1295356352261203
15.183370044052865,-0.06876639263655517
15.216740088105727,0.000814343281368651
15.250110132158591,0.06176552945769732
15.283480176211455,0.1054299409129148
15.316850220264318,0.13258169520593466
15.350220264317182,0.14969335967032285
15.383590308370044,0.16282635152388292
15.416960352422908,0.17228671047997046
15.450330396475772,0.17094493330189428
15.483700440528635,0.14740313598305893
15.517070484581499,0.09268266891564901
15.550440528634361,0.007048488581804672
15.583810572687225,-0.09682806526579371
15.61718061674009,-0.19654634861871062
15.650550660792952,-0.26776198069597573
15.683920704845816,-0.2936767030306773
15.717290748898678,-0.27182912032812256
15.750660792951543,-0.21498609016364562
15.784030837004407,-0.14570583771050352
15.817400881057269,-0.08708629725506216
15.850770925110133,-0.05391070800133772
15.884140969162996,-0.048092376813670006
15.91751101321586,-0.06019845746689638
15.950881057268724,-0.0759329871348913
15.984251101321586,-0.0841721851020048
16.01762114537445,-0.08256078820607125
16.050991189427315,-0.07804080243252802
16.084361233480177,-0.08225412915105465
16.11773127753304,-0.1042231680306288
16.151101321585905,-0.14391108098043134
16.184471365638768,-0.1897787592829957
16.21784140969163,-0.22168820793037863
16.251211453744492,-0.2182897877664079
16.284581497797358,-0.16618553773891145
16.31795154185022,-0.06723987723358182
16.351321585903083,0.059274686420092516
16.38469162995595,0.18137568137938415
16.41806167400881,0.26494880329583637
16.451431718061674,0.28647033705087455
16.48480176211454,0.24255716967693228
16.518171806167402,0.15177308271866904
16.551541850220264,0.047309478876344076
16.584911894273127,-0.0365146965378025
16.618281938325993,-0.07776151586651106
16.651651982378855,-0.07400851523728913
16.685022026431717,-0.03989546243528163
16.718392070484583,0.003157229161249825
16.751762114537446,0.039234288694088196
16.785132158590308,0.0655348978389421
16.818502202643174,0.09148962268866208
16.851872246696036,0.13051831698819355
16.8852422907489,0.18972274471775374
16.91861233480176,0.2637657603970231
16.951982378854627,0.3364578602990406
16.98535242290749,0.3888877610827003
17.01872246696035,0.40915581063201323
17.052092511013218,0.3980919732878004
17.08546255506608,0.36798262272098226
17.118832599118942,0.3355088000675694
17.152202643171808,0.3132226755889244
17.18557268722467,0.30418114043209404
17.218942731277533,0.3019008334279208
17.2523127753304,0.2944000762659217
