Frequency (Hz),Amplitude
0.0,1.192406750826012
0.019867549668874173,1.1919060961406724
0.039735099337748346,1.1904048540469434
0.059602649006622516,1.1879051916659054
0.07947019867549669,1.184410725009571
0.09933774834437085,1.1799265253009086
0.11920529801324503,1.1744591280338537
0.13907284768211922,1.168016544991059
0.15894039735099338,1.1606082795080732
0.17880794701986755,1.152245345350125
0.1986754966887417,1.1429402896542085
0.2185430463576159,1.132707220485794
0.23841059602649006,1.1215618396703149
0.2582781456953642,1.1095214816850647
0.27814569536423844,1.096605159543216
0.2980132450331126,1.0828336187690655
0.31788079470198677,1.0682294007588025
0.33774834437086093,1.0528169170473782
0.3576158940397351,1.0366225362647787
0.3774834437086093,1.0196746858704446
0.3973509933774834,1.0020039711070934
0.4172185430463576,0.9836433140222719
0.4370860927152318,0.9646281158705675
0.45695364238410596,0.944996446736028
0.4768211920529801,0.9247892668010917
0.49668874172185434,0.9040506843284745
0.5165562913907285,0.8828282560983175
0.5364238410596026,0.8611733367178097
0.5562913907284769,0.8391414838335924
0.5761589403973509,0.8167929267232489
0.5960264900662252,0.7941931058556185
0.6158940397350993,0.7714132905340547
0.6357615894039735,0.7485312802847017
0.6556291390728477,0.72563219265769
0.6754966887417219,0.7028093347658333
0.695364238410596,0.680165147085759
0.7152317880794702,0.6578121943394807
0.7350993377483444,0.6358741578858125
0.7549668874172186,0.6144867550466948
0.7748344370860927,0.5937984715170636
0.7947019867549668,0.5739709429825914
0.8145695364238411,0.5551787635765022
0.8344370860927152,0.5376084392268659
0.8543046357615894,0.5214561586009232
0.8741721854304636,0.506924048672326
0.8940397350993378,0.4942146504796838
0.9139072847682119,0.4835235292701207
0.9337748344370861,0.47503024132502614
0.9536423841059603,0.46888829440899576
0.9735099337748344,0.4652151726354658
0.9933774834437087,0.4640838015797276
1.0132450331125828,0.46551684526506226
1.033112582781457,0.4694848651196586
1.0529801324503312,0.4759086899295772
1.0728476821192052,0.48466554987272426
1.0927152317880795,0.4955978781784392
1.1125827814569538,0.5085233703072419
1.1324503311258278,0.5232449501588277
1.1523178807947019,0.5395596235536881
1.1721854304635762,0.5572656379740577
1.1920529801324504,0.5761677722275159
1.2119205298013245,0.5960808716504316
1.2317880794701985,0.6168319075756644
1.2516556291390728,0.638260896862058
1.271523178807947,0.6602210047946956
1.2913907284768211,0.682578106289155
1.3112582781456954,0.7052100201905988
1.3311258278145695,0.7280055737221459
1.3509933774834437,0.750863605393079
1.370860927152318,0.7736919767427071
1.390728476821192,0.7964066354712361
1.410596026490066,0.8189307530647465
1.4304635761589404,0.8411939470233128
1.4503311258278146,0.8631315895109375
1.4701986754966887,0.8846841992545094
1.4900662251655628,0.9057969107600862
1.5099337748344372,0.9264190136151877
1.5298013245033113,0.9465035542644036
1.5496688741721854,0.9660069928149582
1.5695364238410596,0.9848889079052326
1.5894039735099337,1.0031117432959984
1.609271523178808,1.0206405905234934
1.6291390728476822,1.037443002627011
1.6490066225165563,1.053488834598799
1.6688741721854303,1.0687501067842489
1.6887417218543048,1.083200887979392
1.7086092715231789,1.0968171954307955
1.728476821192053,1.1095769093427263
1.7483443708609272,1.1214596998435558
1.7682119205298013,1.132446964663078
1.7880794701986755,1.142521776030602
1.8079470198675496,1.1516688355261049
1.8278145695364238,1.1598744358080555
1.847682119205298,1.1671264283066725
1.8675496688741722,1.1734141961142595
1.8874172185430464,1.178728631428385
1.9072847682119205,1.1830621170123838
1.9271523178807946,1.1864085112330807
1.9470198675496688,1.188763136321181
1.9668874172185429,1.1901227695762064
1.9867549668874174,1.1904856373082935
2.0066225165562916,1.189851411374331
2.0264900662251657,1.1882212082279255
2.0463576158940397,1.1855975904627114
2.066225165562914,1.1819845708879648
2.086092715231788,1.1773876192357617
2.1059602649006623,1.1718136716614993
2.1258278145695364,1.1652711432655827
2.1456953642384105,1.1577699439355742
2.165562913907285,1.149321497886018
2.185430463576159,1.1399387673603028
2.205298013245033,1.1296362810563134
2.2251655629139075,1.1184301679486106
2.2450331125827816,1.1063381973064779
2.2649006622516556,1.0933798258525989
2.2847682119205297,1.0795762531751552
2.3046357615894038,1.0649504867000383
2.324503311258278,1.0495274177545852
2.3443708609271523,1.0333339105140844
2.364238410596027,1.0163989059222436
2.384105960264901,0.9987535430221671
2.403973509933775,0.9804313005287714
2.423841059602649,0.9614681619214834
2.443708609271523,0.9419028078367231
2.463576158940397,0.9217768400905807
2.4834437086092715,0.9011350422510854
2.5033112582781456,0.8800256822834321
2.52317880794702,0.8585008633678137
2.543046357615894,0.8366169294661432
2.562913907284768,0.8144349324755364
2.5827814569536423,0.7920211676725655
2.6026490066225163,0.7694477833505292
2.622516556291391,0.7467934686789499
2.642384105960265,0.7241442202922528
2.662251655629139,0.7015941821352354
2.6821192052980134,0.6792465435754779
2.7019867549668874,0.6572144663610311
2.7218543046357615,0.6356219900424632
2.741721854304636,0.6146048363544959
2.76158940397351,0.5943109945961222
2.781456953642384,0.5749009225078853
2.801324503311258,0.5565471437299339
2.821192052980132,0.5394329719666052
2.8410596026490067,0.5237500592886583
2.8609271523178808,0.5096944761480431
2.8807947019867552,0.497461114875789
2.9006622516556293,0.4872363958462192
2.9205298013245033,0.47918955613695585
2.9403973509933774,0.47346318296485507
2.9602649006622515,0.47016403009953023
2.9801324503311255,0.4693553897666077
3.0,0.47105225174282894
3.0198675496688745,0.4752201070458433
3.0397350993377485,0.4817776176330536
3.0596026490066226,0.49060266644490835
3.0794701986754967,0.5015407487634089
3.0993377483443707,0.5144144181229594
3.119205298013245,0.5290325770566955
3.1390728476821192,0.5451987090088609
3.1589403973509933,0.5627175405965074
3.1788079470198674,0.581399982150258
3.198675496688742,0.6010664530440095
3.218543046357616,0.621548843690206
3.23841059602649,0.6426914181011465
3.2582781456953644,0.6643509511515358
3.2781456953642385,0.6863963524469144
3.2980132450331126,0.7087079752634533
3.3178807947019866,0.7311767570938632
3.3377483443708607,0.7537032940068714
3.3576158940397347,0.7761969161567873
3.3774834437086096,0.7985748059185882
3.3973509933774837,0.8207611818388095
3.4172185430463577,0.8426865592095762
3.437086092715232,0.8642870900519944
3.456953642384106,0.8855039803687994
3.47682119205298,0.9062829797195421
3.4966887417218544,0.9265739367710302
3.5165562913907285,0.9463304139737279
3.5364238410596025,0.9655093545636889
3.556291390728477,0.9840707954550734
3.576158940397351,1.00197762011807
3.596026490066225,1.0191953461338785
3.615894039735099,1.0356919427235904
3.6357615894039736,1.0514376741266116
3.6556291390728477,1.0664049652390992
3.6754966887417218,1.0805682864053072
3.695364238410596,1.093904054683312
3.7152317880794703,1.1063905492832684
3.7350993377483444,1.118007839204661
3.754966887417219,1.1287377213841048
3.774834437086093,1.1385636679118525
3.794701986754967,1.1474707810881937
3.814569536423841,1.155445755275168
3.834437086092715,1.1624768446584761
3.854304635761589,1.1685538361727692
3.8741721854304636,1.1736680269642765
3.8940397350993377,1.1778122058706102
3.9139072847682117,1.1809806384912258
3.9337748344370858,1.1831690555056216
3.9536423841059607,1.1843746439720604
3.9735099337748347,1.1845960414089372
3.993377483443709,1.183833332525766
4.013245033112583,1.1820880485322887
4.033112582781457,1.1793631690141761
4.052980132450331,1.1756631264232151
4.072847682119205,1.1709938132902533
4.0927152317880795,1.1653625923317414
4.112582781456953,1.1587783096870525
4.132450331125828,1.1512513115950433
4.152317880794702,1.1427934648964537
4.172185430463576,1.1334181818352933
4.19205298013245,1.123140449729352
4.211920529801325,1.111976866189673
4.231788079470199,1.0999456806934294
4.251655629139073,1.0870668434572075
4.271523178807947,1.0733620627210931
4.291390728476821,1.0588548717414576
4.311258278145695,1.0435707070056102
4.33112582781457,1.0275369994281536
4.3509933774834435,1.0107832805706713
4.370860927152318,0.9933413062460111
4.390728476821192,0.9752452002285205
4.410596026490066,0.9565316211917353
4.43046357615894,0.9372399564317597
4.450331125827815,0.9174125463990244
4.470198675496689,0.8970949445342478
4.490066225165563,0.8763362173548133
4.509933774834438,0.8551892901106267
4.529801324503311,0.8337113435404295
4.549668874172186,0.8119642671784705
4.569536423841059,0.7900151740940611
4.589403973509934,0.7679369806059362
4.6092715231788075,0.7458090519946753
4.629139072847682,0.7237179109753097
4.649006622516556,0.7017579989343953
4.66887417218543,0.6800324697160887
4.688741721854305,0.6586539809050638
4.708609271523179,0.6377454268667491
4.728476821192054,0.6174405302223721
4.748344370860927,0.5978841736370909
4.768211920529802,0.5792323130934486
4.788079470198675,0.5616512714917674
4.80794701986755,0.5453161763689719
4.827814569536423,0.5304082927083771
4.847682119205298,0.5171110322270585
4.867549668874172,0.5056045179232871
4.887417218543046,0.49605876498862783
4.9072847682119205,0.48862580455782684
4.927152317880794,0.4834313881883033
4.947019867549669,0.4805671898191301
4.966887417218543,0.48008456283627315
4.986754966887418,0.48199082130803095
5.006622516556291,0.48624867122684434
5.026490066225166,0.4927788920869117
5.04635761589404,0.501465813069867
5.066225165562914,0.5121647071833358
5.086092715231788,0.5247100464139883
5.105960264900662,0.5389236292294137
5.125827814569536,0.5546218348184049
5.14569536423841,0.5716215698945801
5.1655629139072845,0.5897447623919619
5.185430463576159,0.6088214700529613
5.205298013245033,0.6286917980130006
5.225165562913908,0.6492068708213304
5.245033112582782,0.6702291039568924
5.264900662251656,0.6916319904481231
5.28476821192053,0.713299576941979
5.304635761589404,0.7351257614310688
5.324503311258278,0.7570135075673019
5.344370860927152,0.7788740402476944
5.364238410596027,0.8006260640761955
5.3841059602649,0.8221950295093248
5.403973509933775,0.8435124597671346
5.4238410596026485,0.8645153437271635
5.443708609271523,0.885145594975104
5.463576158940397,0.905349574131182
5.483443708609272,0.9250776698761417
5.503311258278146,0.9442839333061096
5.52317880794702,0.9629257600273685
5.543046357615895,0.9809636145351918
5.562913907284768,0.9983607917553853
5.582781456953643,1.0150832110631136
5.602649006622516,1.031099238568379
5.622516556291391,1.0463795339317907
5.642384105960264,1.0608969184257537
5.662251655629139,1.074626261373047
5.682119205298013,1.0875443824715127
5.701986754966887,1.0996299678495272
5.7218543046357615,1.1108634979936702
5.741721854304636,1.1212271859501142
5.7615894039735105,1.1307049244285932
5.781456953642384,1.1392822406358938
5.801324503311259,1.1469462578382117
5.821192052980132,1.153685662802296
5.841059602649007,1.1594906783965737
5.860927152317881,1.1643530407489124
5.880794701986755,1.1682659804594409
5.900662251655629,1.1712242074574268
5.920529801324503,1.1732238991724804
5.940397350993377,1.1742626917643733
5.960264900662251,1.1743396742237917
5.980132450331126,1.173455385220328
6.0,1.1716118126348933
6.0198675496688745,1.168812395773172
6.039735099337749,1.165062030315847
6.059602649006623,1.1603670761211835
6.079470198675497,1.154735368057809
6.099337748344371,1.1481762301110299
6.119205298013245,1.1407004930764912
6.139072847682119,1.1323205162315626
6.158940397350993,1.123050213459413
6.178807947019867,1.1129050843945922
6.198675496688741,1.101902251264433
6.218543046357616,1.0900605022193308
6.23841059602649,1.077400342079154
6.258278145695365,1.06394405157539
6.2781456953642385,1.0497157563407506
6.298013245033113,1.0347415070929653
6.317880794701987,1.019049372678433
6.337748344370861,1.0026695478866845
6.357615894039735,0.9856344782174717
6.377483443708609,0.9679790040780503
6.397350993377484,0.9497405272031838
6.417218543046357,0.9309592024162696
6.437086092715232,0.9116781581687518
6.456953642384105,0.8919437495803775
6.47682119205298,0.8718058479108901
6.496688741721854,0.8513181704590526
6.516556291390729,0.8305386547092758
6.5364238410596025,0.8095298799883336
6.556291390728477,0.7883595387516795
6.5761589403973515,0.7671009576109161
6.596026490066225,0.7458336649606833
6.6158940397351,0.7246439970667203
6.635761589403973,0.7036257271133189
6.655629139072848,0.6828806912444869
6.675496688741721,0.6625193712920574
6.695364238410596,0.6426613750057567
6.715231788079469,0.6234357309361346
6.735099337748344,0.604980887340468
6.754966887417219,0.5874442749052341
6.774834437086093,0.5709812666142933
6.794701986754967,0.5557533531258586
6.814569536423841,0.5419253607489214
6.8344370860927155,0.5296615863868983
6.854304635761589,0.5191208234578741
6.874172185430464,0.5104504106865906
6.894039735099337,0.5037796406881111
6.913907284768212,0.49921308198998954
6.933774834437086,0.4968245376056026
6.95364238410596,0.49665241767721535
6.973509933774834,0.4986971941292964
6.993377483443709,0.5029213307824367
7.013245033112583,0.509251702134632
7.033112582781457,0.5175841298987776
7.052980132450331,0.5277893819372512
7.072847682119205,0.5397198566403998
7.0927152317880795,0.5532162203154658
7.112582781456954,0.5681134293266843
7.132450331125828,0.5842457849395628
7.152317880794702,0.601450876682403
7.172185430463576,0.6195724321967029
7.19205298013245,0.6384621953541718
7.211920529801324,0.6579810049031866
7.231788079470198,0.6779992566569979
7.251655629139073,0.6983969182586055
7.271523178807947,0.7190632393448646
7.291390728476822,0.7398962701718085
7.311258278145695,0.7608022735912604
7.33112582781457,0.7816950911591637
7.3509933774834435,0.8024955048596633
7.370860927152318,0.8231306212371227
7.390728476821192,0.8435332939878388
7.410596026490066,0.8636415934939665
7.430463576158941,0.8833983266385733
7.450331125827814,0.9027506068862122
7.470198675496689,0.9216494725388246
7.490066225165562,0.9400495498922614
7.509933774834438,0.9579087574360877
7.52980132450331,0.9751880470514702
7.549668874172186,0.9918511782220021
7.569536423841059,1.007864521480449
7.589403973509934,1.0231968876024473
7.6092715231788075,1.037819379381529
7.629139072847682,1.0517052631506014
7.649006622516557,1.0648298575356334
7.66887417218543,1.0771704372278537
7.6887417218543055,1.0887061498369632
7.708609271523178,1.0994179441370446
7.728476821192054,1.1092885082403927
7.748344370860927,1.118302216432592
7.768211920529802,1.1264450835777333
7.788079470198675,1.1337047261575783
7.80794701986755,1.1400703291451295
7.827814569536423,1.1455326180338368
7.847682119205298,1.150083835450905
7.8675496688741715,1.1537177218784112
7.887417218543046,1.1564295000916207
7.907284768211921,1.158215863001555
7.927152317880795,1.1590749646594516
7.9470198675496695,1.1590064142469991
7.966887417218543,1.1580112729377627
7.986754966887418,1.1560920535749366
8.006622516556291,1.1532527231682057
8.026490066225167,1.1494987082702772
8.046357615894038,1.1448369033517802
8.066225165562914,1.139275682353577
8.086092715231787,1.1328249136585369
8.105960264900663,1.1254959787921608
8.125827814569536,1.1173017952337292
8.14569536423841,1.1082568437988427
8.165562913907285,1.098377201140676
8.185430463576159,1.087680578013134
8.205298013245034,1.0761863640452212
8.225165562913906,1.063915679893421
8.245033112582782,1.05089143776957
8.264900662251655,1.037138411485442
8.28476821192053,1.0226833173134857
8.304635761589404,1.0075549071344185
8.324503311258278,0.9917840755260307
8.344370860927151,0.9754039826393279
8.364238410596027,0.9584501949020344
8.3841059602649,0.9409608457752189
8.403973509933774,0.92297681894973
8.42384105960265,0.904541956481039
8.443708609271523,0.8857032943872726
8.463576158940398,0.8665113281238087
8.483443708609272,0.8470203100243611
8.503311258278146,0.8272885801603027
8.52317880794702,0.8073789309772128
8.543046357615895,0.7873590043329928
8.562913907284768,0.7673017169440353
8.582781456953642,0.7472857064408148
8.602649006622515,0.7273957848803497
8.62251655629139,0.7077233792573832
8.642384105960264,0.6883669289062008
8.66225165562914,0.6694321974010812
8.682119205298013,0.6510324416307757
8.701986754966887,0.6332883636593828
8.721854304635762,0.6163277532099988
8.741721854304636,0.6002847128709174
8.76158940397351,0.585298348921276
8.781456953642383,0.5715108143814801
8.801324503311259,0.5590646152962966
8.821192052980132,0.5480991439829158
8.841059602649008,0.5387464885539793
8.86092715231788,0.5311266838071621
8.880794701986755,0.5253427007474529
8.90066225165563,0.5214755941363322
8.920529801324504,0.5195803042578359
8.940397350993377,0.5196826066927186
8.960264900662251,0.5217776041454176
8.980132450331126,0.5258299666506796
9.0,0.5317758894924182
9.019867549668875,0.5395265083866447
9.039735099337747,0.5489723427901544
9.059602649006623,0.5599882627769174
9.079470198675496,0.5724384948157808
9.099337748344372,0.5861812736390395
9.119205298013245,0.6010728756507681
9.139072847682119,0.6169709000291845
9.158940397350994,0.6337367732728982
9.178807947019868,0.6512375305851359
9.198675496688743,0.6693469727085203
9.218543046357615,0.6879463152974872
9.23841059602649,0.706924447587215
9.258278145695364,0.7261779055723591
9.27814569536424,0.7456106481132052
9.298013245033111,0.7651337064014779
9.317880794701987,0.7846647604363741
9.33774834437086,0.8041276817422591
9.357615894039736,0.8234520698567265
9.37748344370861,0.8425728010226026
9.397350993377483,0.8614296006964444
9.417218543046358,0.8799666465315354
9.437086092715232,0.8981322050045707
9.456953642384107,0.915878302480188
9.47682119205298,0.9331604299554372
9.496688741721854,0.9499372797670745
9.516556291390728,0.9661705120035453
9.536423841059603,0.9818245481083363
9.556291390728477,0.9968663890977754
9.57615894039735,1.0112654558754437
9.596026490066224,1.0249934492584316
9.6158940397351,1.0380242275062235
9.635761589403973,1.0503336993367607
9.655629139072847,1.061899730613354
9.675496688741722,1.072702063080226
9.695364238410596,1.082722243708749
9.715231788079471,1.0919435633874899
9.735099337748345,1.1003510038464788
9.754966887417218,1.1079311918486068
9.774834437086092,1.1146723598099506
9.794701986754967,1.1205643121273072
9.814569536423841,1.1255983965952645
9.834437086092716,1.1297674803897517
9.854304635761588,1.1330659301798962
9.874172185430464,1.1354895960075297
9.894039735099337,1.1370357986445432
9.913907284768213,1.1377033202037894
9.933774834437086,1.1374923978402744
9.95364238410596,1.1364047204375318
9.973509933774835,1.1344434282293974
9.993377483443709,1.131613115361861
10.013245033112582,1.1279198354531355
10.033112582781456,1.1233711102643462
10.052980132450331,1.1179759416481243
10.072847682119205,1.1117448269998336
10.09271523178808,1.104689778495614
10.112582781456952,1.0968243464649365
10.132450331125828,1.0881636473125054
10.152317880794701,1.078724396476604
10.172185430463577,1.0685249469879934
10.192052980132452,1.057585334276433
10.211920529801324,1.0459273279598944
10.2317880794702,1.0335744914448148
10.251655629139073,1.0205522502630784
10.271523178807948,1.0068879701702813
10.29139072847682,0.9926110461281795
10.311258278145695,0.9777530033856432
10.331125827814569,0.9623476119504657
10.350993377483444,0.946431015797671
10.370860927152318,0.9300418781731531
10.390728476821192,0.9132215443028587
10.410596026490065,0.8960142226781354
10.43046357615894,0.8784671858164086
10.450331125827816,0.8606309909405516
10.470198675496688,0.8425597203095858
10.490066225165563,0.8243112398786894
10.509933774834437,0.8059474734550054
10.529801324503312,0.787534687413094
10.549668874172186,0.7691437781810957
10.56953642384106,0.7508505509368784
10.589403973509933,0.7327359730969103
10.609271523178808,0.7148863801147166
10.629139072847682,0.6973936038028917
10.649006622516556,0.6803549850097246
10.66887417218543,0.6638732234796879
