Time (s),Filtered Signal
0.0,0.074495446526522
0.03337008452774715,-0.014415496605950501
0.0667401690554943,-0.09125657432154816
0.10011025358324147,-0.14718168931994782
0.1334803381109886,-0.17928550166690388
0.16685042263873576,-0.19107511636969532
0.20022050716648293,-0.19059157263377507
0.23359059169423008,-0.18667882051110485
0.2669606762219772,-0.18480752240327383
0.30033076074972437,-0.18431983957370057
0.3337008452774715,-0.17857133654488125
0.36707092980521866,-0.15821457113704027
0.40044101433296586,-0.11630160481372595
0.433811098860713,-0.05277130566067676
0.46718118338846015,0.024096942909339288
0.5005512679162073,0.10037854463575349
0.5339213524439544,0.16239058683320035
0.5672914369717016,0.202982858234233
0.6006615214994487,0.22487880324879916
0.6340316060271959,0.23887754884040735
0.667401690554943,0.2572211070161863
0.7007717750826902,0.2850992277305215
0.7341418596104373,0.31474379987645806
0.7675119441381845,0.3259422676999476
0.8008820286659317,0.2940658015627726
0.8342521131936789,0.20284469715332892
0.867622197721426,0.055864609848909515
0.9009922822491732,-0.11997911714992715
0.9343623667769203,-0.2828968644714091
0.9677324513046675,-0.3943839364027087
1.0011025358324146,-0.43893002996036534
1.0344726203601617,-0.43446359793262807
1.0678427048879089,-0.4261217386953647
1.101212789415656,-0.4643143528049022
1.1345828739434032,-0.5771175267698017
1.1679529584711503,-0.7514032474231591
1.2013230429988975,-0.9336231992630402
1.2346931275266446,-1.0511076657074327
1.2680632120543918,-1.0435058152177088
1.301433296582139,-0.8880906451980378
1.334803381109886,-0.6058179142329873
1.3681734656376332,-0.24579382429495064
1.4015435501653803,0.14189758798908
1.4349136346931275,0.5284596776529952
1.4682837192208746,0.9103821187392307
1.5016538037486218,1.2931491169373939
1.535023888276369,1.6655287182958756
1.568393972804116,1.9820160018363118
1.6017640573318634,2.16716948980603
1.6351341418596106,2.1430327160478178
1.6685042263873577,1.8667635990198639
1.7018743109151049,1.3584657807157536
1.735244395442852,0.7035533039076913
1.7686144799705992,0.02732709361168868
1.8019845644983463,-0.546202088393788
1.8353546490260935,-0.9321806103589666
1.8687247335538406,-1.1040491671019408
1.9020948180815878,-1.0895476452338198
1.935464902609335,-0.9504670383035254
1.968834987137082,-0.7584662354561927
2.002205071664829,-0.5771275464130848
2.0355751561925763,-0.45354687048169895
2.0689452407203235,-0.4162063846184564
2.1023153252480706,-0.4737137206180589
2.1356854097758178,-0.6119324234498685
2.169055494303565,-0.7922219554590358
2.202425578831312,-0.9565280988868349
2.235795663359059,-1.0429914291876878
2.2691657478868064,-1.0092885807488643
2.3025358324145535,-0.8541461008578345
2.3359059169423007,-0.6251438600199536
2.369276001470048,-0.4053557705106052
2.402646085997795,-0.2808330930735861
2.436016170525542,-0.300734381600016
2.4693862550532892,-0.4471423195890918
2.5027563395810364,-0.6296011373826529
2.5361264241087835,-0.7106089484189629
2.5694965086365307,-0.5558431596948495
2.602866593164278,-0.09152233838498812
2.636236677692025,0.6541081139336162
2.669606762219772,1.5444629387784239
2.7029768467475193,2.370207325422384
2.7363469312752664,2.9164534692234425
2.7697170158030135,3.0369733563045624
2.8030871003307607,2.7061716695280644
2.836457184858508,2.027525913576626
2.869827269386255,1.1948641232812653
2.903197353914002,0.42234682102447546
2.9365674384417493,-0.12860986249232187
2.9699375229694964,-0.39740468522431777
3.0033076074972436,-0.4311658856401777
3.0366776920249907,-0.3518527061357434
3.070047776552738,-0.30000892890111014
3.103417861080485,-0.37858371402158336
3.136787945608232,-0.6174598654652179
3.1701580301359793,-0.9692711152055593
3.203528114663727,-1.3344315384047205
3.236898199191474,-1.6028845294387473
3.270268283719221,-1.6953004149235287
3.3036383682469683,-1.5884494253182118
3.3370084527747155,-1.3170537498072183
3.3703785373024626,-0.9544714105098083
3.4037486218302098,-0.5829563625758644
3.437118706357957,-0.26728938599928187
3.470488790885704,-0.04185180445831779
3.503858875413451,0.08725664520367037
3.5372289599411983,0.13178594898165427
3.5705990444689455,0.11243839160969879
3.6039691289966926,0.057365137582419214
3.63733921352444,0.00574347441898617
3.670709298052187,0.007850756257933597
3.704079382579934,0.11378817401784287
3.7374494671076812,0.35105497614842923
3.7708195516354284,0.701355084154706
3.8041896361631755,1.0919048919963679
3.8375597206909227,1.4115684367384267
3.87092980521867,1.549249306347794
3.904299889746417,1.438628837620059
3.937669974274164,1.0879365232389822
3.9710400588019112,0.5796923210810312
4.004410143329658,0.03989921948796375
4.0377802278574055,-0.4092118094871945
4.071150312385153,-0.6918703789588899
4.1045203969129,-0.7995372068118325
4.137890481440647,-0.7835724936308743
4.171260565968394,-0.7259383829075219
4.204630650496141,-0.7019053102231683
4.238000735023888,-0.7497797530973901
4.2713708195516356,-0.8580564118445385
4.304740904079383,-0.9729918479364138
4.33811098860713,-1.022239387233218
4.371481073134877,-0.9448897137863198
4.404851157662624,-0.7162873159393173
4.438221242190371,-0.3579902062077536
4.471591326718118,0.07104670665874348
4.504961411245866,0.4981984766537806
4.538331495773613,0.8650914602181325
4.57170158030136,1.1464915768440598
4.605071664829107,1.350804364951468
4.638441749356854,1.5021119447008422
4.671811833884601,1.6140239705000643
4.7051819184123485,1.6711737335649324
4.738552002940096,1.6309510050291909
4.771922087467843,1.4468344938533084
4.80529217199559,1.1013389582320887
4.838662256523337,0.6290667835056681
4.872032341051084,0.1139442329592845
4.905402425578831,-0.34157901675381874
4.9387725101065785,-0.6611869576358967
4.972142594634326,-0.8296841445016165
5.005512679162073,-0.8985747348013408
5.03888276368982,-0.9577498288023301
5.072252848217567,-1.086942111165544
5.105622932745314,-1.3114598595097806
5.138993017273061,-1.5845812135728303
5.1723631018008085,-1.8055610026916606
5.205733186328556,-1.86487142411259
5.239103270856303,-1.695661683835776
5.27247335538405,-1.3079667241726702
5.305843439911797,-0.7902802755364904
5.339213524439544,-0.2775574981505802
5.372583608967291,0.10090102076802807
5.4059536934950385,0.27184957330331877
5.439323778022786,0.24580870752895542
5.472693862550533,0.11068265452932366
5.50606394707828,-0.005858446586594349
5.539434031606027,0.01066481690416153
5.572804116133774,0.2154547190761973
5.606174200661521,0.584219037037361
5.6395442851892685,1.0263173573176054
5.672914369717016,1.4239712952063877
5.706284454244763,1.6789659502481131
5.73965453877251,1.745983391011321
5.773024623300257,1.6395307166071147
5.806394707828004,1.415140834380284
5.839764792355751,1.137715752219407
5.873134876883499,0.8542396317306024
5.906504961411246,0.5830854776723648
5.939875045938993,0.32155123389178
5.97324513046674,0.06341776753540737
6.006615214994487,-0.1857212931432983
6.039985299522234,-0.40452766069406104
6.073355384049981,-0.5648666102987613
6.106725468577729,-0.6474164440525008
6.140095553105476,-0.654171443083655
6.173465637633223,-0.61031085153983
6.20683572216097,-0.5543029182009387
6.240205806688717,-0.5217784285894744
6.273575891216464,-0.5317785600545556
6.3069459757442115,-0.5818929529534926
6.340316060271959,-0.6531930847842783
6.373686144799706,-0.7204596272915031
6.407056229327454,-0.7613220106179664
6.440426313855201,-0.7602986422550289
6.473796398382948,-0.7081714270615035
6.507166482910695,-0.6003309680402359
6.540536567438442,-0.43761265634979346
6.5739066519661895,-0.23011183136879734
6.607276736493937,-0.00085951765476253
6.640646821021684,0.2152911252510576
6.674016905549431,0.3803200829855136
6.707386990077178,0.4674243028213068
6.740757074604925,0.47467345925176274
6.774127159132672,0.429846709681294
6.8074972436604195,0.3814651274549208
6.840867328188167,0.37789972200382144
6.874237412715914,0.44351603387729066
6.907607497243661,0.5638686370151914
6.940977581771408,0.6886400318876964
6.974347666299155,0.7525683142707822
7.007717750826902,0.7053756724399939
7.0410878353546495,0.5366824867875091
7.074457919882397,0.2837858136134629
7.107828004410144,0.017977588374132776
7.141198088937891,-0.18516763620516113
7.174568173465638,-0.27893256669089384
7.207938257993385,-0.2677241413188215
7.241308342521132,-0.20826845972482072
7.27467842704888,-0.1876467787162802
7.308048511576627,-0.2853207683300104
7.341418596104374,-0.5334871095618187
7.374788680632121,-0.8924525460124967
7.408158765159868,-1.2536610992382273
7.441528849687615,-1.4731596833592335
7.4748989342153624,-1.4258180697791545
7.50826901874311,-1.0603758638045846
7.541639103270857,-0.43209242769082246
7.575009187798604,0.30402929398357187
7.608379272326351,0.9419026827116284
7.641749356854098,1.2994643300659114
7.675119441381845,1.291137790874943
7.7084895259095925,0.966176696299416
7.74185961043734,0.4931879288121955
7.775229694965087,0.09353218545357997
7.808599779492834,-0.05013517303370998
7.841969864020581,0.1293297495361804
7.875339948548328,0.5561798571636578
7.908710033076075,1.0467852728204092
7.9420801176038225,1.391091002180801
7.97545020213157,1.4428729469484507
8.008820286659317,1.1776015808596312
8.042190371187063,0.6931102975465945
8.075560455714811,0.15618459635040088
8.108930540242557,-0.27642937000561746
8.142300624770305,-0.5236965371030065
8.175670709298052,-0.6028893851849333
8.2090407938258,-0.6026361338483747
8.242410878353546,-0.6249724790941416
8.275780962881294,-0.7288420978855888
8.30915104740904,-0.9036470509523215
8.342521131936788,-1.0829769120167203
8.375891216464534,-1.1864777862608042
8.409261300992283,-1.164323507890519
8.442631385520029,-1.0205351554619913
8.476001470047777,-0.8058305994372197
8.509371554575523,-0.5882186804474785
8.542741639103271,-0.4200339795928023
8.57611172363102,-0.31879097710688764
8.609481808158765,-0.2687631458822222
8.642851892686513,-0.23792220500449268
8.67622197721426,-0.19787674158458832
8.709592061742008,-0.13554006793491888
8.742962146269754,-0.052222675609163084
8.776332230797502,0.04626393969140812
8.809702315325248,0.1604459946979499
8.843072399852996,0.3015146131480258
8.876442484380743,0.4861261155939375
8.90981256890849,0.7242254549505527
8.943182653436237,1.0064115413439638
8.976552737963985,1.2980265839389145
9.009922822491731,1.5442797205573586
9.04329290701948,1.685584395009493
9.076662991547225,1.6772463123987431
9.110033076074973,1.5051550143126178
9.14340316060272,1.1905974329209645
9.176773245130468,0.7821942104306068
9.210143329658214,0.3389213669045055
9.243513414185962,-0.0877798403100725
9.276883498713708,-0.46477701868594984
9.310253583241456,-0.7769326978592718
9.343623667769203,-1.0178216629124146
9.37699375229695,-1.178546148910721
9.410363836824697,-1.242784612535371
9.443733921352445,-1.192576487384057
9.477104005880191,-1.0227077928562986
9.51047409040794,-0.7554734075100108
9.543844174935685,-0.44568246824327257
9.577214259463434,-0.1696856970415388
9.61058434399118,-0.0003835105292494909
9.643954428518928,0.021595053409551538
9.677324513046674,-0.09325600698781325
9.710694597574422,-0.28477307528920903
9.744064682102168,-0.465993714300392
9.777434766629916,-0.5580945952736522
9.810804851157663,-0.5217545515935416
9.84417493568541,-0.37062779119660416
9.877545020213157,-0.16112040954685602
9.910915104740905,0.035915504163410085
9.944285189268651,0.16753592138583215
9.9776552737964,0.21995522972005288
10.011025358324146,0.21997658180642898
10.044395442851894,0.21803178872133455
10.07776552737964,0.26258452442317587
10.111135611907388,0.37819126426243266
10.144505696435134,0.5558930999825675
10.177875780962882,0.7576990385135776
10.211245865490628,0.9307146929284759
10.244615950018376,1.0237643414001922
10.277986034546123,1.0005538579807287
10.31135611907387,0.846851142990349
10.344726203601617,0.5723764061320484
10.378096288129365,0.20936796949970313
10.411466372657111,-0.19102662335499923
10.44483645718486,-0.5650099003938149
10.478206541712606,-0.8462426967892164
10.511576626240354,-0.9798439185716727
10.5449467107681,-0.9377058325802279
10.578316795295848,-0.7300762987094063
10.611686879823594,-0.40787893285804794
10.645056964351342,-0.0526473233274147
10.678427048879088,0.2444944029946138
10.711797133406836,0.4086996448899286
10.745167217934583,0.4034425770597564
10.77853730246233,0.24086507245709957
10.811907386990077,-0.02348065711933741
10.845277471517825,-0.30975553841072323
10.878647556045571,-0.5398864084753535
10.91201764057332,-0.6609197403667915
10.945387725101066,-0.6571387775577643
10.978757809628814,-0.5471369524694194
11.01212789415656,-0.3685912868703367
11.045497978684308,-0.158881928266544
11.078868063212054,0.05879416794818775
11.112238147739802,0.2775230711725362
11.145608232267548,0.49729487168755654
11.178978316795297,0.7108092729370915
11.212348401323043,0.8937809391196129
11.24571848585079,1.006572039863378
11.279088570378537,1.0077625985365257
11.312458654906285,0.8737034012614616
11.345828739434031,0.6145744720333444
11.37919882396178,0.2786267098895355
11.412568908489526,-0.05864320510748393
11.445938993017274,-0.31716141219275884
11.47930907754502,-0.4386160281490754
11.512679162072768,-0.40684587858769683
11.546049246600514,-0.2549766226654351
11.579419331128262,-0.056761269738492375
11.612789415656009,0.09525418381593123
11.646159500183757,0.11824164578115652
11.679529584711503,-0.034014745452870095
11.71289966923925,-0.3537855624515104
11.746269753766997,-0.7773029114067258
11.779639838294745,-1.1997132380032893
11.813009922822491,-1.5039905708834913
11.84638000735024,-1.5959429935909266
11.879750091877986,-1.434385066501873
11.913120176405734,-1.0457800875454408
11.94649026093348,-0.5169083185607947
11.979860345461228,0.03340160433560673
12.013230429988974,0.4941928998061095
12.046600514516722,0.7991097136751548
12.079970599044469,0.9452199075866655
12.113340683572217,0.9858598415495369
12.146710768099963,1.0002846444853633
12.180080852627711,1.0531964182271298
12.213450937155457,1.1619817927075884
12.246821021683205,1.2862515216177188
12.280191106210951,1.3444503897271198
12.3135611907387,1.2504296716405214
12.346931275266446,0.9542775560779532
12.380301359794194,0.47002516978654896
12.41367144432194,-0.12141414303163686
12.447041528849688,-0.6952133904268366
12.480411613377434,-1.1220231861558538
12.513781697905182,-1.3082243482680143
12.547151782432929,-1.2225048367883395
12.580521866960677,-0.9013397641479267
12.613891951488423,-0.4350089027827617
12.647262036016171,0.05802626563629753
12.680632120543917,0.459623833883517
12.714002205071665,0.6774830447119489
12.747372289599411,0.6649253082978969
12.78074237412716,0.43275625123696987
12.814112458654908,0.04954778266040946
12.847482543182654,-0.3737732352013246
12.880852627710402,-0.7155721856842494
12.914222712238148,-0.8843090774274077
12.947592796765896,-0.8535610427485036
12.980962881293642,-0.6740220394113949
13.01433296582139,-0.4523919318301541
13.047703050349137,-0.30223925247257327
13.081073134876885,-0.2877690247480784
13.114443219404631,-0.3883700155387387
13.147813303932379,-0.5041301874299853
13.181183388460125,-0.5027470323755264
13.214553472987873,-0.2865719131202187
13.24792355751562,0.15304716495608484
13.281293642043368,0.7216420235575597
13.314663726571114,1.2555666659215776
13.348033811098862,1.5882266486113135
13.381403895626608,1.617544214608759
13.414773980154356,1.3441260502887158
13.448144064682102,0.864791544894452
13.48151414920985,0.32753610863251936
13.514884233737597,-0.12915560405021995
13.548254318265345,-0.4249990147984126
13.581624402793091,-0.5553073764288674
13.614994487320839,-0.5739945454247735
13.648364571848585,-0.5548107923431997
13.681734656376333,-0.5515281669711448
13.71510474090408,-0.5753867160336137
13.748474825431828,-0.5976214881783249
13.781844909959574,-0.5722530045553748
13.815214994487322,-0.46565656508976677
13.848585079015068,-0.27803537634195025
13.881955163542816,-0.047295776896257594
13.915325248070562,0.16534509608472825
13.94869533259831,0.30055934697529246
13.982065417126057,0.3253144306142452
14.015435501653805,0.2460575164331486
14.048805586181551,0.10577571807585102
14.082175670709299,-0.03284219515389431
14.115545755237045,-0.11044374272575604
14.148915839764793,-0.09096263545420759
14.18228592429254,0.028309532216549433
14.215656008820288,0.21846329881190368
14.249026093348034,0.4297965497602257
14.282396177875782,0.6065243245943239
14.315766262403528,0.7004289557681068
14.349136346931276,0.6806111637359181
14.382506431459023,0.538875091911018
14.41587651598677,0.29157976717844947
14.449246600514517,-0.021411718744432467
14.482616685042265,-0.34115303235851896
14.515986769570011,-0.5986829007519358
14.54935685409776,-0.7295016115706077
14.582726938625505,-0.6920869415948017
14.616097023153253,-0.485994639651654
14.649467107681,-0.16245322996023734
14.682837192208748,0.18007532266081067
14.716207276736494,0.41967391988202224
14.749577361264242,0.4512463499338665
14.782947445791988,0.23130975250832736
14.816317530319736,-0.19150612180602855
14.849687614847483,-0.6784676830095384
14.88305769937523,-1.042745769345464
14.916427783902977,-1.1207734618441567
14.949797868430725,-0.8450773505167325
14.983167952958471,-0.28454396109562724
15.01653803748622,0.37119962422001884
15.049908122013965,0.8821249471239924
15.083278206541713,1.0550054763179495
15.11664829106946,0.8248232075038606
15.150018375597208,0.2833451076871398
15.183388460124954,-0.35826738565869354
15.216758544652702,-0.8556706073578431
15.250128629180448,-1.0276522868283517
15.283498713708196,-0.8211795911328496
15.316868798235943,-0.3203784278428717
15.35023888276369,0.29879406242524853
15.383608967291437,0.8432388847805824
15.416979051819185,1.1725267794845837
15.450349136346931,1.236837149915341
15.48371922087468,1.0741468088536053
15.517089305402425,0.7766660671597697
15.550459389930174,0.44726081036233123
15.58382947445792,0.16575787968429492
15.617199558985668,-0.024656788678774196
15.650569643513414,-0.11286034198664989
15.683939728041162,-0.10719462112911073
15.717309812568908,-0.026044241508020063
15.750679897096656,0.10278231644160793
15.784049981624403,0.2366689557599999
15.81742006615215,0.31584446297026036
15.850790150679897,0.2731673355067975
15.884160235207645,0.05821205863167847
15.917530319735391,-0.33274856710459383
15.95090040426314,-0.8371814868862086
15.984270488790886,-1.3327370890749262
16.017640573318634,-1.6742347063650882
16.05101065784638,-1.7490844449985437
16.084380742374126,-1.5261668524029333
16.117750826901876,-1.0727555774982092
16.151120911429622,-0.5281787099390011
16.18449099595737,-0.04482627131892765
16.217861080485115,0.2753547788385565
16.251231165012864,0.41788120095214343
16.28460124954061,0.44908647790221284
16.317971334068357,0.47147400641328785
16.351341418596103,0.5659368736394071
16.384711503123853,0.7509577818535063
16.4180815876516,0.9780567546326994
16.451451672179346,1.1626036118172585
16.484821756707092,1.2309986542181455
16.51819184123484,1.1584489510621354
16.551561925762588,0.9785968802138935
16.584932010290334,0.7622162788596129
16.61830209481808,0.5782268068507296
16.65167217934583,0.458376274605473
16.685042263873576,0.3836763412642761
16.718412348401323,0.29845487409469906
16.75178243292907,0.1434276832409557
16.78515251745682,-0.11002288076499381
16.818522601984565,-0.4417625725790179
16.85189268651231,-0.7892226726936185
16.885262771040058,-1.0736987309195583
16.918632855567807,-1.2328734630856812
16.952002940095554,-1.244240374397745
16.9853730246233,-1.1302702796815947
17.018743109151046,-0.9458659819086613
17.052113193678796,-0.7562811400453874
17.085483278206542,-0.6156657519293677
17.11885336273429,-0.5531154539398017
17.15222344726204,-0.5679510696985783
17.185593531789785,-0.6324851927981038
17.21896361631753,-0.6999301487080576
17.252333700845277,-0.7159605915544172
17.285703785373027,-0.632622869447006
17.319073869900773,-0.4220110189964999
17.35244395442852,-0.08561680937514995
17.385814038956266,0.3444995189670552
