Frequency (Hz),Amplitude
0.0,1.3144282349450842
0.019867549668874173,1.3145843649846183
0.039735099337748346,1.315052056654893
0.059602649006622516,1.315829219283017
0.07947019867549669,1.3169123839233337
0.09933774834437085,1.3182967263962118
0.11920529801324503,1.3199760990987472
0.13907284768211922,1.3219430711579456
0.15894039735099338,1.3241889763938335
0.17880794701986755,1.3267039684705133
0.1986754966887417,1.3294770825389506
0.2185430463576159,1.3324963026177303
0.23841059602649006,1.3357486339178413
0.2582781456953642,1.339220179294286
0.27814569536423844,1.342896219000997
0.2980132450331126,1.3467612929348183
0.31788079470198677,1.3507992845775219
0.33774834437086093,1.354993505880854
0.3576158940397351,1.359326782385605
0.3774834437086093,1.3637815379203824
0.3973509933774834,1.368339878286361
0.4172185430463576,1.3729836733992358
0.4370860927152318,1.3776946374265275
0.45695364238410596,1.382454406525974
0.4768211920529801,1.387244613856911
0.49668874172185434,1.39204696160059
0.5165562913907285,1.3968432897857175
0.5364238410596026,1.4016156417715901
0.5562913907284769,1.4063463262924554
0.5761589403973509,1.4110179760125274
0.5960264900662252,1.415613602581744
0.6158940397350993,1.4201166482171523
0.6357615894039735,1.4245110338646498
0.6556291390728477,1.4287812040200525
0.6754966887417219,1.432912168308377
0.695364238410596,1.4368895399352573
0.7152317880794702,1.4406995711354074
0.7350993377483444,1.4443291857506937
0.7549668874172186,1.4477660090743238
0.7748344370860927,1.4509983950990393
0.7947019867549668,1.4540154513058874
0.8145695364238411,1.4568070611270887
0.8344370860927152,1.4593639042112783
0.8543046357615894,1.4616774746127068
0.8741721854304636,1.4637400970185679
0.8940397350993378,1.4655449411195183
0.9139072847682119,1.4670860342189647
0.9337748344370861,1.4683582721667015
0.9536423841059603,1.4693574286913387
0.9735099337748344,1.4700801631954794
0.9933774834437087,1.4705240270656341
1.0132450331125828,1.4706874685376432
1.033112582781457,1.4705698361465291
1.0529801324503312,1.4701713807776484
1.0728476821192052,1.4694932563241567
1.0927152317880795,1.4685375189436394
1.1125827814569538,1.4673071248945557
1.1324503311258278,1.4658059269210886
1.1523178807947019,1.464038669142692
1.1721854304635762,1.4620109803924561
1.1920529801324504,1.459729365936472
1.2119205298013245,1.4572011974943153
1.2317880794701985,1.454434701469105
1.2516556291390728,1.451438945284374
1.271523178807947,1.4482238217138839
1.2913907284768211,1.4448000310804516
1.3112582781456954,1.4411790611905693
1.3311258278145695,1.4373731648629557
1.3509933774834437,1.4333953349027262
1.370860927152318,1.4292592763670586
1.390728476821192,1.4249793759656029
1.410596026490066,1.4205706684374584
1.4304635761589404,1.4160487997491318
1.4503311258278146,1.4114299869629097
1.4701986754966887,1.40673097463435
1.4900662251655628,1.4019689876110406
1.5099337748344372,1.397161680122981
1.5298013245033113,1.3923270810781523
1.5496688741721854,1.387483535506246
1.5695364238410596,1.3826496421280159
1.5894039735099337,1.3778441870692757
1.609271523178808,1.3730860737857067
1.6291390728476822,1.368394249318481
1.6490066225165563,1.3637876270598353
1.6688741721854303,1.3592850062734314
1.6887417218543048,1.3549049886829685
1.7086092715231789,1.3506658925164634
1.728476821192053,1.3465856644687149
1.7483443708609272,1.3426817901205268
1.7682119205298013,1.3389712034281416
1.7880794701986755,1.3354701959677397
1.8079470198675496,1.332194326685473
1.8278145695364238,1.3291583329610446
1.847682119205298,1.3263760438398506
1.8675496688741722,1.3238602963225403
1.8874172185430464,1.3216228556196976
1.9072847682119205,1.3196743402810502
1.9271523178807946,1.31802415309197
1.9470198675496688,1.3166804185937502
1.9668874172185429,1.3156499280285312
1.9867549668874174,1.314938092434614
2.0066225165562916,1.3145489045246983
2.0264900662251657,1.314484909870304
2.0463576158940397,1.3147471877920245
2.066225165562914,1.315335342221861
2.086092715231788,1.3162475026622316
2.1059602649006623,1.3174803352223246
2.1258278145695364,1.3190290635685606
2.1456953642384105,1.3208874994871471
2.165562913907285,1.3230480826260815
2.185430463576159,1.3255019288653307
2.205298013245033,1.3282388866600252
2.2251655629139075,1.3312476006144014
2.2450331125827816,1.334515581475756
2.2649006622516556,1.3380292816887782
2.2847682119205297,1.341774175620745
2.3046357615894038,1.3457348435578347
2.324503311258278,1.3498950585797844
2.3443708609271523,1.3542378754441362
2.364238410596027,1.3587457206488178
2.384105960264901,1.3634004828920012
2.403973509933775,1.368183603207727
2.423841059602649,1.3730761641225493
2.443708609271523,1.3780589772501153
2.463576158940397,1.3831126688149877
2.4834437086092715,1.3882177626716157
2.5033112582781456,1.393354760458291
2.52317880794702,1.3985042185966423
2.543046357615894,1.4036468219143927
2.562913907284768,1.408763453731345
2.5827814569536423,1.413835262304848
2.6026490066225163,1.418843723582363
2.622516556291391,1.4237707002527844
2.642384105960265,1.4285984971268662
2.662251655629139,1.4333099129096496
2.6821192052980134,1.4378882884542494
2.7019867549668874,1.4423175516078888
2.7218543046357615,1.4465822587773929
2.741721854304636,1.450667633352925
2.76158940397351,1.454559601136898
2.781456953642384,1.4582448229288898
2.801324503311258,1.4617107244185163
2.821192052980132,1.4649455235366589
2.8410596026490067,1.4679382554114149
2.8609271523178808,1.4706787950694484
2.8807947019867552,1.4731578780157373
2.9006622516556293,1.4753671188163129
2.9205298013245033,1.4772990277983928
2.9403973509933774,1.4789470259720083
2.9602649006622515,1.4803054582656754
2.9801324503311255,1.4813696051567844
3.0,1.482135692765212
3.0198675496688745,1.4826009014658466
3.0397350993377485,1.4827633730628567
3.0596026490066226,1.4826222165552427
3.0794701986754967,1.4821775125098753
3.0993377483443707,1.4814303160445332
3.119205298013245,1.4803826584094995
3.1390728476821192,1.4790375471424648
3.1589403973509933,1.4773989647569448
3.1788079470198674,1.475471865910142
3.198675496688742,1.4732621729816135
3.218543046357616,1.470776769979136
3.23841059602649,1.4680234946735584
3.2582781456953644,1.4650111288493999
3.2781456953642385,1.4617493865433737
3.2980132450331126,1.4582489001283316
3.3178807947019866,1.4545212040861661
3.3377483443708607,1.4505787162997124
3.3576158940397347,1.4464347166812628
3.3774834437086096,1.4421033229438396
3.3973509933774837,1.4375994633121705
3.4172185430463577,1.4329388459623915
3.437086092715232,1.428137924975064
3.456953642384106,1.4232138625841522
3.47682119205298,1.4181844875070402
3.4966887417218544,1.4130682491472517
3.5165562913907285,1.4078841674736071
3.5364238410596025,1.4026517783974595
3.556291390728477,1.3973910744943647
3.576158940397351,1.3921224409483035
3.596026490066225,1.3868665866370051
3.615894039735099,1.3816444703249353
3.6357615894039736,1.3764772219881591
3.6556291390728477,1.3713860593612217
3.6754966887417218,1.3663921998713724
3.695364238410596,1.3615167682085156
3.7152317880794703,1.3567806998702194
3.7350993377483444,1.3522046411176332
3.754966887417219,1.3478088458799402
3.774834437086093,1.3436130702483535
3.794701986754967,1.3396364653043407
3.814569536423841,1.3358974691269083
3.834437086092715,1.3324136989176574
3.854304635761589,1.3292018442658797
3.8741721854304636,1.3262775626461323
3.8940397350993377,1.3236553782934757
3.9139072847682117,1.3213485856338374
3.9337748344370858,1.319369158455537
3.9536423841059607,1.3177276659913073
3.9735099337748347,1.316433197035627
3.993377483443709,1.3154932931501613
4.013245033112583,1.314913891910626
4.033112582781457,1.3146992810234355
4.052980132450331,1.3148520639919599
4.072847682119205,1.315373137844912
4.0927152317880795,1.316261683257012
4.112582781456953,1.3175151672000867
4.132450331125828,1.319129358067621
4.152317880794702,1.3210983530219687
4.172185430463576,1.323414617128238
4.19205298013245,1.3260690336667011
4.211920529801325,1.329050964861401
4.231788079470199,1.3323483221308865
4.251655629139073,1.3359476448596124
4.271523178807947,1.3398341866083892
4.291390728476821,1.3439920076295704
4.311258278145695,1.348404072526863
4.33112582781457,1.353052351900195
4.3509933774834435,1.3579179268404284
4.370860927152318,1.3629810951837564
4.390728476821192,1.368221478499305
4.410596026490066,1.3736181288611249
4.43046357615894,1.379149634544324
4.450331125827815,1.3847942238813769
4.470198675496689,1.3905298666146224
4.490066225165563,1.3963343721823127
4.509933774834438,1.402185484475176
4.529801324503311,1.408060972696232
4.549668874172186,1.4139387180472027
4.569536423841059,1.419796796047997
4.589403973509934,1.4256135543714943
4.6092715231788075,1.4313676861431195
4.629139072847682,1.4370382987131083
4.649006622516556,1.4426049779595889
4.66887417218543,1.4480478482220212
4.688741721854305,1.4533476279986195
4.708609271523179,1.4584856815675058
4.728476821192054,1.463444066711328
4.748344370860927,1.4682055787387613
4.768211920529802,1.4727537910046644
4.788079470198675,1.4770730921345558
4.80794701986755,1.481148720158828
4.827814569536423,1.484966793758915
4.847682119205298,1.4885143408207508
4.867549668874172,1.4917793244830897
4.887417218543046,1.4947506668571902
4.9072847682119205,1.4974182705829544
4.927152317880794,1.4997730383734862
4.947019867549669,1.5018068906862077
4.966887417218543,1.5035127816442508
4.986754966887418,1.5048847133168644
5.006622516556291,1.505917748452006
5.026490066225166,1.5066080217391675
5.04635761589404,1.5069527496637853
5.066225165562914,1.5069502389992568
5.086092715231788,1.506599893965669
5.105960264900662,1.5059022220678382
5.125827814569536,1.504858838608401
5.14569536423841,1.5034724698542634
5.1655629139072845,1.5017469548170514
5.185430463576159,1.499687245590088
5.205298013245033,1.4972994061656208
5.225165562913908,1.4945906096370134
5.245033112582782,1.4915691336707733
5.264900662251656,1.488244354113221
5.28476821192053,1.4846267365756716
5.304635761589404,1.4807278258212218
5.324503311258278,1.4765602327548955
5.344370860927152,1.4721376187976176
5.364238410596027,1.467474677403494
5.3841059602649,1.4625871124597445
5.403973509933775,1.4574916132892055
5.4238410596026485,1.4522058259579667
5.443708609271523,1.4467483205754184
5.463576158940397,1.441138554261925
5.483443708609272,1.4353968294513917
5.503311258278146,1.429544247192859
5.52317880794702,1.4236026551185852
5.543046357615895,1.4175945897565476
5.562913907284768,1.4115432128845298
5.582781456953643,1.405472241652204
5.602649006622516,1.3994058722380232
5.622516556291391,1.3933686968605783
5.642384105960264,1.3873856140307002
5.662251655629139,1.3814817320109904
5.682119205298013,1.3756822655451915
5.701986754966887,1.3700124260299875
5.7218543046357615,1.3644973054263985
5.741721854304636,1.3591617543455188
5.7615894039735105,1.3540302548921204
5.781456953642384,1.349126789006954
5.801324503311259,1.3444747032104831
5.821192052980132,1.340096570813475
5.841059602649007,1.336014052817617
5.860927152317881,1.332247758876813
5.880794701986755,1.3288171098206003
5.900662251655629,1.3257402033486507
5.920529801324503,1.3230336845840167
5.940397350993377,1.3207126232158581
5.960264900662251,1.3187903989659533
5.980132450331126,1.3172785970730891
6.0,1.3161869154035581
6.0198675496688745,1.3155230846642383
6.039735099337749,1.3152928030188387
6.059602649006623,1.3154996861916985
6.079470198675497,1.3161452338928632
6.099337748344371,1.3172288131206407
6.119205298013245,1.3187476586020541
6.139072847682119,1.3206968903283622
6.158940397350993,1.323069547841202
6.178807947019867,1.3258566406362637
6.198675496688741,1.329047213784563
6.218543046357616,1.3326284276346254
6.23841059602649,1.3365856502596838
6.258278145695365,1.340902561155949
6.2781456953642385,1.345561264585249
6.298013245033113,1.3505424108876933
6.317880794701987,1.3558253240669655
6.337748344370861,1.3613881339691458
6.357615894039735,1.3672079114317628
6.377483443708609,1.3732608048676187
6.397350993377484,1.3795221768617443
6.417218543046357,1.3859667394939414
6.437086092715232,1.3925686872468637
6.456953642384105,1.399301826514993
6.47682119205298,1.4061397008878027
6.496688741721854,1.4130557115358595
6.516556291390729,1.4200232321783206
6.5364238410596025,1.4270157182498628
6.556291390728477,1.4340068100142893
6.5761589403973515,1.4409704294868153
6.596026490066225,1.4478808711289324
6.6158940397351,1.4547128863665475
6.635761589403973,1.4614417620553846
6.655629139072848,1.4680433930771033
6.675496688741721,1.4744943492967573
6.695364238410596,1.4807719371476102
6.715231788079469,1.4868542561345164
6.735099337748344,1.492720250563453
6.754966887417219,1.498349756812672
6.774834437086093,1.503723546462923
6.794701986754967,1.5088233656001493
6.814569536423841,1.513631970595778
6.8344370860927155,1.5181331606577104
6.854304635761589,1.5223118074304558
6.874172185430464,1.5261538819059925
6.894039735099337,1.5296464788887627
6.913907284768212,1.5327778392387879
6.933774834437086,1.5355373700968575
6.95364238410596,1.5379156632756323
6.973509933774834,1.5399045119798118
6.993377483443709,1.541496925998061
7.013245033112583,1.5426871454890718
7.033112582781457,1.5434706534635665
7.052980132450331,1.543844187043919
7.072847682119205,1.5438057475627263
7.0927152317880795,1.5433546095411148
7.112582781456954,1.5424913285672117
7.132450331125828,1.5412177480739222
7.152317880794702,1.5395370049939718
7.172185430463576,1.5374535342476208
7.19205298013245,1.5349730719959715
7.211920529801324,1.532102657568279
7.231788079470198,1.5288506339469083
7.251655629139073,1.5252266466669266
7.271523178807947,1.5212416409598868
7.291390728476822,1.5169078569416214
7.311258278145695,1.5122388226139554
7.33112582781457,1.5072493444175257
7.3509933774834435,1.5019554950403973
7.370860927152318,1.496374598152404
7.390728476821192,1.4905252097009545
7.410596026490066,1.4844270953688277
7.430463576158941,1.4781012037606653
7.450331125827814,1.4715696348521148
7.470198675496689,1.4648556032055875
7.490066225165562,1.4579833954307817
7.509933774834438,1.450978321347507
7.52980132450331,1.4438666582954671
7.549668874172186,1.4366755880319964
7.569536423841059,1.4294331256671928
7.589403973509934,1.4221680401081458
7.6092715231788075,1.4149097655237555
7.629139072847682,1.4076883034001915
7.649006622516557,1.400534114838432
7.66887417218543,1.3934780028502756
7.6887417218543055,1.3865509845409523
7.708609271523178,1.3797841532250852
7.728476821192054,1.3732085307091662
7.748344370860927,1.3668549101865146
7.768211920529802,1.3607536904284394
7.788079470198675,1.3549347022129206
7.80794701986755,1.349427028205455
7.827814569536423,1.3442588177869104
7.847682119205298,1.3394570986025052
7.8675496688741715,1.335047586872701
7.887417218543046,1.3310544987495339
7.907284768211921,1.3275003652078061
7.927152317880795,1.3244058531174387
7.9470198675496695,1.3217895952382792
7.966887417218543,1.3196680319029894
7.986754966887418,1.3180552670974899
8.006622516556291,1.3169629415091
8.026490066225167,1.3164001248877237
8.046357615894038,1.3163732297594595
8.066225165562914,1.3168859481528894
8.086092715231787,1.3179392125571279
8.105960264900663,1.319531181844851
8.125827814569536,1.3216572523795451
8.14569536423841,1.3243100940058523
8.165562913907285,1.3274797101144937
8.185430463576159,1.3311535204993483
8.205298013245034,1.33531646530054
8.225165562913906,1.3399511279690144
8.245033112582782,1.3450378749053884
8.264900662251655,1.3505550092247343
8.28476821192053,1.3564789359824456
8.304635761589404,1.3627843361610505
8.324503311258278,1.3694443467591082
8.344370860927151,1.3764307444316435
8.364238410596027,1.3837141302970462
8.3841059602649,1.3912641137349377
8.403973509933774,1.3990494932419195
8.42384105960265,1.407038432674236
8.443708609271523,1.4151986314774787
8.463576158940398,1.4234974877735764
8.483443708609272,1.4319022534358334
8.503311258278146,1.440380180527395
8.52317880794702,1.4488986587020634
8.543046357615895,1.4574253433660074
8.562913907284768,1.4659282745722046
8.582781456953642,1.474375986766879
8.602649006622515,1.4827376096279847
8.62251655629139,1.4909829603328133
8.642384105960264,1.4990826276652343
8.66225165562914,1.507008048426937
8.682119205298013,1.5147315766520921
8.701986754966887,1.5222265461450115
8.721854304635762,1.5294673268673151
8.741721854304636,1.536429375697104
8.76158940397351,1.543089282070551
8.781456953642383,1.549424808997282
8.801324503311259,1.5554149299168158
8.821192052980132,1.561039861836218
8.841059602649008,1.5662810951590473
8.86092715231788,1.5711214205848798
8.880794701986755,1.5755449534268815
8.90066225165563,1.5795371556636282
8.920529801324504,1.583084856009973
8.940397350993377,1.5861762682620129
8.960264900662251,1.5888010081415764
8.980132450331126,1.5909501088376823
9.0,1.5926160354154084
9.019867549668875,1.5937926982362605
9.039735099337747,1.5944754655091236
9.059602649006623,1.5946611750660376
9.079470198675496,1.594348145432966
9.099337748344372,1.5935361862416364
9.119205298013245,1.5922266080043295
9.139072847682119,1.5904222312488399
9.158940397350994,1.5881273949852346
9.178807947019868,1.5853479644496615
9.198675496688743,1.5820913380419608
9.218543046357615,1.5783664533440454
9.23841059602649,1.574183792073471
9.258278145695364,1.569555383791857
9.27814569536424,1.5644948081498415
9.298013245033111,1.559017195409143
9.317880794701987,1.553139224937871
9.33774834437086,1.546879121326904
9.357615894039736,1.5402566477235153
9.37748344370861,1.5332930959230877
9.397350993377483,1.5260112727010957
9.417218543046358,1.5184354818064392
9.437086092715232,1.5105915009739683
9.456953642384107,1.5025065532500215
9.47682119205298,1.4942092718617865
9.496688741721854,1.4857296578008856
9.516556291390728,1.4770990292363289
9.536423841059603,1.4683499618255642
9.556291390728477,1.459516218957626
9.57615894039735,1.45063267094396
9.596026490066224,1.4417352021756886
9.6158940397351,1.4328606052955695
9.635761589403973,1.4240464614943618
9.655629139072847,1.415331006141671
9.675496688741722,1.40675297910464
9.695364238410596,1.398351459300443
9.715231788079471,1.3901656832744302
9.735099337748345,1.382234847896381
9.754966887417218,1.3745978976246889
9.774834437086092,1.3672932971981395
9.794701986754967,1.360358791072641
9.814569536423841,1.353831151414989
9.834437086092716,1.3477459169839918
9.854304635761588,1.3421371257521433
9.874172185430464,1.3370370446267625
9.894039735099337,1.33247590009195
9.913907284768213,1.3284816139851057
9.933774834437086,1.3250795489157952
9.95364238410596,1.3222922680048965
9.973509933774835,1.320139313644831
9.993377483443709,1.3186370098430866
10.013245033112582,1.3177982924005298
10.033112582781456,1.317632570696731
10.052980132450331,1.3181456242174556
10.072847682119205,1.3193395361865015
10.09271523178808,1.3212126657873553
10.112582781456952,1.323759659517532
10.132450331125828,1.3269715012539882
10.152317880794701,1.330835599665998
10.172185430463577,1.3353359107361462
10.192052980132452,1.3404530923781643
10.211920529801324,1.34616468750335
10.2317880794702,1.3524453314067217
10.251655629139073,1.3592669790307723
10.271523178807948,1.3665991475197694
10.29139072847682,1.3744091694928255
10.311258278145695,1.3826624526227007
10.331125827814569,1.3913227413880893
10.350993377483444,1.4003523772438013
10.370860927152318,1.4097125538988047
10.390728476821192,1.4193635648799157
10.410596026490065,1.429265041063964
10.43046357615894,1.4393761763620723
10.450331125827816,1.4496559402187774
10.470198675496688,1.4600632760317473
10.490066225165563,1.4705572849958397
10.509933774834437,1.4810973952225268
10.529801324503312,1.4916435162791177
10.549668874172186,1.5021561795328415
10.56953642384106,1.5125966648744813
10.589403973509933,1.522927114539146
10.609271523178808,1.5331106348425707
10.629139072847682,1.5431113867155972
10.649006622516556,1.5528946659526355
10.66887417218543,1.562426974097634
10.688741721854305,1.5716760808782215
10.70860927152318,1.5806110790697847
