Time (s),Filtered Signal
0.0,-0.0066307844818654805
0.033370165745856356,0.013820244943876112
0.06674033149171271,0.016269910286414883
0.10011049723756907,-0.012430090462853711
0.13348066298342542,-0.07657726675010075
0.16685082872928178,-0.16860844284117923
0.20022099447513814,-0.26872965926869313
0.2335911602209945,-0.34844026423311864
0.26696132596685085,-0.3780027213050072
0.30033149171270723,-0.3360003064579123
0.33370165745856356,-0.21756703581601236
0.3670718232044199,-0.037798136821576685
0.4004419889502763,0.1713821257460424
0.43381215469613266,0.3698154677442309
0.467182320441989,0.5198225108220165
0.5005524861878453,0.5952475887019952
0.5339226519337017,0.5864769816876632
0.5672928176795581,0.5011375946969647
0.6006629834254145,0.3614223820145395
0.6340331491712707,0.19895911648009915
0.6674033149171271,0.047700068232755403
0.7007734806629835,-0.06437687486743655
0.7341436464088398,-0.12274897394758699
0.7675138121546962,-0.1300458484767232
0.8008839779005525,-0.10371013247949981
0.8342541436464089,-0.06797492944723292
0.8676243093922653,-0.04357410437154898
0.9009944751381216,-0.04001244438163944
0.934364640883978,-0.053848560089897066
0.9677348066298344,-0.07307015295652816
1.0011049723756906,-0.08444982415588324
1.0344751381215471,-0.07974878200708992
1.0678453038674034,-0.05816896546428904
1.1012154696132597,-0.02515873092750899
1.1345856353591162,0.010434702610854812
1.1679558011049724,0.03888247418078201
1.201325966850829,0.05117607662922426
1.2346961325966852,0.04042021124676204
1.2680662983425415,0.003740003535745462
1.301436464088398,-0.05571359614346248
1.3348066298342542,-0.12814498278340428
1.3681767955801105,-0.19915341841105552
1.401546961325967,-0.2541310017507884
1.4349171270718233,-0.28296747933085364
1.4682872928176796,-0.2825359635561518
1.501657458563536,-0.2557570382376597
1.5350276243093923,-0.20830266892799176
1.5683977900552488,-0.14559702647429654
1.601767955801105,-0.07248718809556864
1.6351381215469614,0.0041649901775496915
1.6685082872928179,0.07233059405323536
1.7018784530386741,0.11469545136471822
1.7352486187845306,0.1138498630995532
1.768618784530387,0.061630458801913875
1.8019889502762432,-0.03206714338288015
1.8353591160220997,-0.13688912615289628
1.868729281767956,-0.2095618298728757
1.9020994475138122,-0.2098562392212057
1.9354696132596687,-0.11843268755253747
1.968839779005525,0.05202717243493971
2.0022099447513813,0.2585465662085966
2.0355801104972375,0.4426478174429363
2.0689502762430942,0.5520819539500261
2.1023204419889505,0.5600071101078978
2.135690607734807,0.473472964878466
2.169060773480663,0.3282126085670857
2.2024309392265193,0.1728912057027403
2.235801104972376,0.05013251745075358
2.2691712707182323,-0.01779004586454871
2.3025414364640886,-0.033497559613156
2.335911602209945,-0.0186788268452942
2.369281767955801,-0.0014526755098829215
2.402651933701658,-0.0027864355930940343
2.436022099447514,-0.02769455283906094
2.4693922651933704,-0.06465388638583476
2.5027624309392267,-0.0931664038823496
2.536132596685083,-0.09593693962171605
2.5695027624309392,-0.07002684079940022
2.602872928176796,-0.031551365442681834
2.636243093922652,-0.011121213507840145
2.6696132596685085,-0.04130059142374964
2.7029834254143648,-0.14109321569123073
2.736353591160221,-0.304139445989092
2.7697237569060777,-0.4960909152822259
2.803093922651934,-0.6630146938665801
2.8364640883977903,-0.7482018382853627
2.8698342541436466,-0.7112736777394497
2.903204419889503,-0.5424082397344547
2.936574585635359,-0.26630305520155817
2.969944751381216,0.0655273801202663
3.003314917127072,0.3909576865684943
3.0366850828729284,0.6555879742930267
3.0700552486187846,0.8263681935564648
3.103425414364641,0.8960829155304887
3.1367955801104976,0.8783755277189902
3.170165745856354,0.7968716237803014
3.20353591160221,0.6739139398332354
3.2369060773480665,0.5237375206958073
3.2702762430939227,0.35215039028882783
3.3036464088397794,0.16142753316351433
3.3370165745856357,-0.04318163099788865
3.370386740331492,-0.24921196466414822
3.4037569060773483,-0.4372659122021586
3.4371270718232045,-0.585598286794423
3.4704972375690613,-0.6767285987618027
3.5038674033149175,-0.7030495723253251
3.537237569060774,-0.6690677666598689
3.57060773480663,-0.5895129105611338
3.6039779005524863,-0.48429537628861075
3.6373480662983426,-0.37244070517300704
3.6707182320441993,-0.26729374607404793
3.7040883977900556,-0.17453586672620483
3.737458563535912,-0.09333311184900085
3.770828729281768,-0.019767856633721582
3.8041988950276244,0.0490127339866195
3.837569060773481,0.1116339995665336
3.8709392265193374,0.16162521274794378
3.9043093922651937,0.18937257620149567
3.93767955801105,0.18643809667693503
3.9710497237569062,0.15082551127760455
4.0044198895027625,0.09108681776412035
4.037790055248619,0.027038032831995615
4.071160220994475,-0.014405851482492628
4.104530386740332,-0.008001010983432241
4.1379005524861885,0.05915406578592709
4.171270718232044,0.17969969429572683
4.204640883977901,0.32545980800750846
4.238011049723757,0.456072611824744
4.271381215469614,0.5340725179944469
4.30475138121547,0.539860998654476
4.338121546961326,0.4793824985058124
4.371491712707183,0.3806122270996256
4.404861878453039,0.28049484974915134
4.438232044198895,0.20870219394291067
4.471602209944752,0.17594675832253692
4.504972375690608,0.17198502331775536
4.538342541436465,0.17342443275847277
4.5717127071823205,0.1567278847213624
4.605082872928177,0.10973702686379916
4.638453038674034,0.036397842897258934
4.67182320441989,-0.046851861405824764
4.7051933701657465,-0.1204761512483612
4.738563535911602,-0.17200054582944704
4.771933701657459,-0.20199920376382083
4.805303867403316,-0.22322224343487845
4.8386740331491715,-0.25342429000754413
4.872044198895028,-0.30533624820349103
4.905414364640884,-0.3786343431109407
4.938784530386741,-0.45811490698637297
4.972154696132597,-0.5196698227554607
5.005524861878453,-0.5419513110742413
5.03889502762431,-0.5183754191906584
5.072265193370166,-0.4630829081540182
5.105635359116023,-0.4066880732792734
5.1390055248618784,-0.38255566344454156
5.172375690607735,-0.4096710394293229
5.205745856353592,-0.48088654220322724
5.239116022099448,-0.5634555012344626
5.272486187845304,-0.612790565453822
5.30585635359116,-0.5932713068839909
5.339226519337017,-0.49558920877717155
5.372596685082874,-0.341227531634152
5.4059668508287295,-0.17107283762784553
5.439337016574586,-0.023731697829683804
5.472707182320442,0.08473890643415138
5.506077348066299,0.16800757187933596
5.5394475138121555,0.25869322938392264
5.572817679558011,0.38518647368244363
5.606187845303868,0.5498805067401262
5.639558011049724,0.7234779067928129
5.672928176795581,0.8618335732804027
5.706298342541437,0.938093435021336
5.739668508287293,0.9712306101453865
5.77303867403315,1.0301135459268544
5.806408839779006,1.2030842722792596
5.839779005524862,1.5425379951078577
5.873149171270718,2.011946850411443
5.906519337016575,2.467932120656966
5.939889502762432,2.6967991261684103
5.9732596685082875,2.497941150533257
6.006629834254144,1.779286218476811
6.04,0.618263811714321
6.073370165745857,-0.7458245372752144
6.1067403314917135,-1.9903734304535357
6.140110497237569,-2.8265558780367366
6.173480662983426,-3.103499811582474
6.206850828729282,-2.854902642347265
6.240220994475139,-2.2714717687038926
6.273591160220995,-1.616355789031892
6.306961325966851,-1.1232566894621598
6.340331491712708,-0.9190176484402955
6.373701657458564,-0.9963522931978959
6.40707182320442,-1.238452628498086
6.440441988950277,-1.4773856203404563
6.473812154696133,-1.5597587513289874
6.50718232044199,-1.3964993966876371
6.5405524861878455,-0.9840626155015191
6.573922651933702,-0.39602037500643394
6.607292817679559,0.24728292939335803
6.640662983425415,0.8188470212393058
6.674033149171271,1.2221139574060784
6.707403314917127,1.4146493889967913
6.740773480662984,1.4127191399070413
6.774143646408841,1.2771990453161588
6.8075138121546965,1.087233291117004
6.840883977900553,0.9118534809504942
6.874254143646409,0.789802974827076
6.907624309392266,0.7239299259941897
6.9409944751381225,0.6902962389806234
6.974364640883978,0.656249925233507
7.007734806629835,0.5986203397800002
7.041104972375691,0.5141083620266693
7.074475138121548,0.41822534515462584
7.107845303867403,0.33467922433021324
7.14121546961326,0.2813494816487892
7.174585635359117,0.26010252912571247
7.207955801104973,0.25536915600481613
7.241325966850829,0.2419019735918932
7.274696132596685,0.19762603043425953
7.308066298342542,0.11506520411020014
7.341436464088399,0.005567994768050706
7.3748066298342545,-0.10586348478414301
7.408176795580111,-0.19259257661388388
7.441546961325967,-0.23911870045342282
7.474917127071824,-0.24808230442334947
7.5082872928176805,-0.23804931565822876
7.541657458563536,-0.23353828870877277
7.575027624309393,-0.2527482628534255
7.608397790055249,-0.29929325910699595
7.641767955801106,-0.36168636052672376
7.675138121546962,-0.4200853586971342
7.708508287292818,-0.4563678508452355
7.741878453038675,-0.46254293658826556
7.775248618784531,-0.44385942168454734
7.808618784530387,-0.4156239483580566
7.841988950276244,-0.39537184480495347
7.8753591160221,-0.3937567745813554
7.908729281767957,-0.4080018042281523
7.9420994475138125,-0.4209751510379318
7.975469613259669,-0.40708216497246086
8.008839779005525,-0.34356860356167807
8.042209944751383,-0.22320943572553448
8.075580110497238,-0.06276546818417947
8.108950276243094,0.09786922072737339
8.14232044198895,0.2077378249211078
8.175690607734808,0.22500858303671165
8.209060773480664,0.13746856739964128
8.24243093922652,-0.02628924893699446
8.275801104972377,-0.20189564435573273
8.309171270718233,-0.3107320128988152
8.342541436464089,-0.2904571759379764
8.375911602209946,-0.12187779658176336
8.409281767955802,0.16014326870387707
8.442651933701658,0.4777727692370515
8.476022099447514,0.7396751847822778
8.509392265193371,0.8767076457051884
8.542762430939227,0.8684285254541647
8.576132596685083,0.7487522439963497
8.60950276243094,0.5881881596833011
8.642872928176796,0.4604361129058447
8.676243093922652,0.40809127754267094
8.709613259668508,0.4228334731054861
8.742983425414366,0.4494412409983622
8.776353591160222,0.41265566188774727
8.809723756906077,0.2554841465757972
8.843093922651935,-0.02848794824390548
8.87646408839779,-0.38464540648429857
8.909834254143647,-0.7153272917012841
8.943204419889504,-0.9194762631448422
8.97657458563536,-0.9361414378820634
9.009944751381216,-0.7712553201079427
9.043314917127072,-0.49464895015715965
9.07668508287293,-0.2086247490228688
9.110055248618785,-0.003206371673462478
9.143425414364641,0.08071428952157855
9.176795580110499,0.06364912065757013
9.210165745856354,0.010969865044099832
9.24353591160221,-0.0029292372233136665
9.276906077348068,0.06806829076584436
9.310276243093924,0.22021898644887897
9.34364640883978,0.4027298837982327
9.377016574585635,0.5419400131111387
9.410386740331493,0.5746066227792601
9.443756906077349,0.47512403793921165
9.477127071823205,0.26550610608805464
9.510497237569062,0.005314001349496041
9.543867403314918,-0.23269195626174438
9.577237569060774,-0.3901785465770476
9.610607734806631,-0.44298509573048356
9.643977900552487,-0.4060874860297072
9.677348066298343,-0.32327210951407864
9.710718232044199,-0.24683431034477424
9.744088397790057,-0.2158584543849084
9.777458563535912,-0.2414999656232797
9.810828729281768,-0.30453713518266834
9.844198895027626,-0.3655259421686507
9.877569060773482,-0.3829437048226884
9.910939226519337,-0.331593515998288
9.944309392265193,-0.2135479446798953
9.97767955801105,-0.05716306773714621
10.011049723756907,0.09507135685240561
10.044419889502763,0.20414405818038575
10.07779005524862,0.24958977167329563
10.111160220994476,0.23550788257170596
10.144530386740332,0.18561059447895883
10.17790055248619,0.13068411810649416
10.211270718232045,0.09514100846424757
10.244640883977901,0.08902272664927995
10.278011049723757,0.10827366521283492
10.311381215469615,0.1414806100399996
10.34475138121547,0.17816823071438506
10.378121546961326,0.2137330884403219
10.411491712707184,0.24884292530200267
10.44486187845304,0.28471981748995007
10.478232044198895,0.3180149423049582
10.511602209944753,0.3388920547279378
10.544972375690609,0.3338865316720174
10.578342541436465,0.2924346546342894
10.61171270718232,0.21398858317242855
10.645082872928178,0.11205876332267839
10.678453038674034,0.012452234251006118
10.71182320441989,-0.0548829881640688
10.745193370165747,-0.06819799632494586
10.778563535911603,-0.025704653806103435
10.811933701657459,0.04909192702036813
10.845303867403315,0.11285955802475475
10.878674033149172,0.11882610275399336
10.912044198895028,0.03856145881195164
10.945414364640884,-0.12065511667707284
10.978784530386742,-0.31271621828176027
11.012154696132598,-0.4682492201035386
11.045524861878453,-0.5242758784153849
11.078895027624311,-0.4551227950689978
11.112265193370167,-0.28903578924261647
11.145635359116023,-0.10022752180507336
11.179005524861878,0.022438175472008038
11.212375690607736,0.016758554952800472
11.245745856353592,-0.12121798931848467
11.279116022099448,-0.33166223066752726
11.312486187845305,-0.5157647412657327
11.345856353591161,-0.580178701781289
11.379226519337017,-0.4802489906571532
11.412596685082875,-0.2412481703220412
11.44596685082873,0.052677907258183
11.479337016574586,0.2965573601904208
11.512707182320442,0.41148419397388813
11.5460773480663,0.3783411960978979
11.579447513812156,0.24304162804721846
11.612817679558011,0.09171453600072994
11.646187845303869,0.008363513591986843
11.679558011049725,0.03539383305791053
11.71292817679558,0.15547170703823646
11.746298342541436,0.3025488861773982
11.779668508287294,0.3957965701359125
11.81303867403315,0.3795073671630786
11.846408839779006,0.2498246824267779
11.879779005524863,0.056215675396837944
11.91314917127072,-0.12190383179967441
11.946519337016575,-0.2113641977801775
11.979889502762433,-0.17699464951057772
12.013259668508288,-0.03487625175245881
12.046629834254144,0.15746627233583924
12.08,0.32767112377004015
12.113370165745858,0.4187025950696875
12.146740331491714,0.40909771378402615
12.18011049723757,0.315776625385442
12.213480662983427,0.18058784073058376
12.246850828729283,0.04882728398371394
12.280220994475139,-0.049625457117185884
12.313591160220996,-0.10862568594254603
12.346961325966852,-0.14154333874873498
12.380331491712708,-0.16864429316833168
12.413701657458564,-0.20377867950469425
12.447071823204421,-0.2475666829842853
12.480441988950277,-0.29002458613039644
12.513812154696133,-0.31984216760812434
12.54718232044199,-0.3335556884756665
12.580552486187846,-0.33811087574676063
12.613922651933702,-0.3447511279852744
12.64729281767956,-0.35807493958009096
12.680662983425416,-0.36771671950708545
12.714033149171271,-0.3490461342784837
12.747403314917127,-0.27409264291381585
12.780773480662985,-0.12765369317498412
12.81414364640884,0.08006144966231923
12.847513812154697,0.3116958527629004
12.880883977900554,0.5139117360927491
12.91425414364641,0.6367288541556563
12.947624309392266,0.6520191230738207
12.980994475138122,0.5626672421983666
13.01436464088398,0.39886839804210217
13.047734806629835,0.2045263904220301
13.081104972375691,0.021076114895879433
13.114475138121549,-0.1238986883180508
13.147845303867404,-0.2196313304994193
13.18121546961326,-0.268001350804149
13.214585635359118,-0.276637738211531
13.247955801104974,-0.25367808688993543
13.28132596685083,-0.20611781142488203
13.314696132596685,-0.1408666527664515
13.348066298342543,-0.06627290111925295
13.381436464088399,0.0075684467593655335
13.414806629834255,0.06991287136154192
13.448176795580112,0.11104033364474658
13.481546961325968,0.12380095815845271
13.514917127071824,0.1050674947014606
13.548287292817681,0.05740842012374202
13.581657458563537,-0.009408883699583542
13.615027624309393,-0.07854509446760696
13.648397790055249,-0.1294757195529976
13.681767955801106,-0.14479777859051798
13.715138121546962,-0.11813335568935288
13.748508287292818,-0.05902666716895468
13.781878453038676,0.008775305631765748
13.815248618784532,0.05632050216969503
13.848618784530387,0.06247521722594986
13.881988950276245,0.02508853830966069
13.9153591160221,-0.03535937303729338
13.948729281767957,-0.08222070963787032
13.982099447513813,-0.07743102509753232
14.01546961325967,0.001072518498931722
14.048839779005526,0.14650172281913143
14.082209944751382,0.3209150821570185
14.11558011049724,0.4655948789355548
14.148950276243095,0.5211005639809858
14.182320441988951,0.44965390006792744
14.215690607734807,0.2510316876468011
14.249060773480664,-0.03455246679151836
14.28243093922652,-0.3379115891396616
14.315801104972376,-0.5823355880977242
14.349171270718234,-0.7070318401944866
14.38254143646409,-0.6843772664932878
14.415911602209945,-0.5257444670983635
14.449281767955803,-0.2751332363988951
14.482651933701659,0.006021424313012186
14.516022099447515,0.25701517923113243
14.54939226519337,0.4329202316498469
14.582762430939228,0.5122907772272813
14.616132596685084,0.4965458826213169
14.64950276243094,0.403350665089028
14.682872928176797,0.2582390352480385
14.716243093922653,0.0883862889266942
14.749613259668509,-0.0798713732782709
14.782983425414367,-0.22105895017052346
14.816353591160222,-0.3111144479910168
14.849723756906078,-0.3309118233692524
14.883093922651934,-0.27272253970159605
14.916464088397792,-0.1467175732618126
14.949834254143648,0.01680187232308038
14.983204419889503,0.17264832749841424
15.016574585635361,0.27337062336041223
15.049944751381217,0.2852652700773858
15.083314917127073,0.2013616792527571
15.116685082872928,0.045460482082073754
15.150055248618786,-0.13526484933479987
15.183425414364642,-0.28673326909664837
15.216795580110498,-0.3671150929910719
15.250165745856355,-0.36105000330201265
15.283535911602211,-0.28334134455305054
15.316906077348067,-0.17096986994219907
15.350276243093925,-0.0671240198401619
15.38364640883978,-0.004135931814942652
15.417016574585636,0.0076352597490560925
15.450386740331492,-0.019100985301530576
15.48375690607735,-0.056830749103248736
15.517127071823205,-0.07601508110804785
15.550497237569061,-0.056105392037177015
15.583867403314919,0.009434180431449592
15.617237569060775,0.11421637481491365
15.65060773480663,0.24292062219773553
15.683977900552488,0.37466626311142126
15.717348066298344,0.4848327787837162
15.7507182320442,0.547364186534097
15.784088397790056,0.5401431578290721
15.817458563535913,0.4533895168972925
15.85082872928177,0.2972634962443502
15.884198895027625,0.10319004791080462
15.917569060773483,-0.08425848195531337
15.950939226519338,-0.2228403954942514
15.984309392265194,-0.28858213113017456
16.01767955801105,-0.2841775711593511
16.051049723756908,-0.23544488308341785
16.084419889502765,-0.1776862557560491
16.11779005524862,-0.13902084715791152
16.151160220994477,-0.12899911041281903
16.18453038674033,-0.1375731168760513
16.21790055248619,-0.14387306363695027
16.251270718232046,-0.12942797047677193
16.2846408839779,-0.08887956675044906
16.318011049723758,-0.03326749919503216
16.351381215469615,0.014939058457982045
16.38475138121547,0.032069474126174516
16.418121546961327,0.003945870496793252
16.451491712707185,-0.0671845480135778
16.48486187845304,-0.16166622281132212
16.518232044198896,-0.2473776286025953
16.551602209944754,-0.289051847637729
16.584972375690608,-0.25963194218484037
16.618342541436466,-0.1508013604505313
16.651712707182323,0.020625562464025374
16.685082872928177,0.21367103543292618
16.718453038674035,0.37318904464534275
16.751823204419892,0.447242131725263
16.785193370165747,0.40624575096635085
16.818563535911604,0.2559587999716484
16.851933701657458,0.037798064815257354
16.885303867403316,-0.18484822475884263
16.918674033149173,-0.34902755965163834
16.952044198895027,-0.41369640933291646
16.985414364640885,-0.37108874995929775
17.018784530386743,-0.2440258386422182
17.052154696132597,-0.07225668308040094
17.085524861878454,0.10416302668467346
17.118895027624312,0.2562535109684184
17.152265193370166,0.3683153046885545
17.185635359116024,0.43288566151960184
17.21900552486188,0.4443038719846282
17.252375690607735,0.3966097300137167
