Frequency (Hz),Amplitude
0.0,0.30191050408050135
0.019801980198019802,0.31867438888750155
0.039603960396039604,0.3643111074605382
0.0594059405940594,0.429575013888675
0.07920792079207921,0.5067399551352089
0.09900990099009901,0.5909227888355335
0.1188118811881188,0.6792520814026989
0.13861386138613863,0.7700155222706945
0.15841584158415842,0.8621441707400149
0.1782178217821782,0.9549326814209821
0.19801980198019803,1.0478886359232358
0.21782178217821782,1.1406493350208453
0.2376237623762376,1.232934222707847
0.25742574257425743,1.3245166900402432
0.27722772277227725,1.4152067887653477
0.297029702970297,1.5048403020736651
0.31683168316831684,1.593271642300922
0.33663366336633666,1.6803691226076134
0.3564356435643564,1.7660117420979489
0.37623762376237624,1.8500869599422332
0.39603960396039606,1.932489130399352
0.4158415841584158,2.0131183884769586
0.43564356435643564,2.0918798484899312
0.45544554455445546,2.16868302345032
0.4752475247524752,2.243441402601963
0.495049504950495,2.3160721436847327
0.5148514851485149,2.386495849384325
0.5346534653465347,2.4546364061638233
0.5544554455445545,2.520420869700868
0.5742574257425742,2.583779385370948
0.594059405940594,2.6446451352065123
0.613861386138614,2.7029543049076716
0.6336633663366337,2.7586460660385224
0.6534653465346534,2.8116625696873982
0.6732673267326733,2.861948948718326
0.6930693069306931,2.9094533263767985
0.7128712871287128,2.9541268294941183
0.7326732673267327,2.99592360490149
0.7524752475247525,3.0348008379474707
0.7722772277227723,3.070718772231868
0.7920792079207921,3.103640729840712
0.8118811881188118,3.1335331315026305
0.8316831683168316,3.160365516194796
0.8514851485148516,3.1841105598134876
0.8712871287128713,3.2047440925947264
0.891089108910891,3.222245115027994
0.9108910891089109,3.236595812054313
0.9306930693069307,3.2477815653798747
0.9504950495049505,3.2557909637708926
0.9702970297029703,3.2606158112254997
0.99009900990099,3.2622511329444333
1.00990099009901,3.2606951790467784
1.0297029702970297,3.2559494259990887
1.0495049504950495,3.2480185757476803
1.0693069306930694,3.2369105525650292
1.0891089108910892,3.222636497642414
1.108910891089109,3.205210761483817
1.1287128712871286,3.1846508941796428
1.1485148514851484,3.160977633665937
1.1683168316831685,3.134214892104759
1.188118811881188,3.104389740555806
1.2079207920792079,3.071532392150512
1.227722772277228,3.0356761840277846
1.2475247524752475,2.9968575583491828
1.2673267326732673,2.9551160427825582
1.2871287128712872,2.9104942309307176
1.3069306930693068,2.8630377632911648
1.3267326732673268,2.8127953094700615
1.3465346534653466,2.759818552547278
1.3663366336633662,2.7041621767113964
1.3861386138613863,2.645883859569687
1.405940594059406,2.5850442709092194
1.4257425742574257,2.5217070801726535
1.4455445544554455,2.455938975555762
1.4653465346534653,2.3878096984935095
1.4851485148514851,2.3173920984599268
1.504950495049505,2.2447622145849597
1.5247524752475248,2.169999392764409
1.5445544554455446,2.093186449965993
1.5643564356435644,2.01440990170432
1.5841584158415842,1.933760274761378
1.6039603960396038,1.8513325360795145
1.6237623762376237,1.7672266817873739
1.6435643564356437,1.6815485498337832
1.6633663366336633,1.594410949453207
1.683168316831683,1.5059352469300689
1.7029702970297032,1.4162536205519098
1.7227722772277227,1.3255123169286314
1.7425742574257426,1.2338764395608548
1.7623762376237624,1.1415371406132575
1.782178217821782,1.048722686052343
1.801980198019802,0.9557159532100887
1.8217821782178218,0.8628829626177815
1.8415841584158414,0.770720997646493
1.8613861386138615,0.679942700241009
1.881188118811881,0.5916281594747559
1.900990099009901,0.5075067258121447
1.920792079207921,0.43047451025458694
1.9405940594059405,0.36544296166876805
1.9603960396039604,0.3201437950865257
1.98019801980198,0.30375215108560005
2.0,0.3208005310508646
2.01980198019802,0.36660200890705896
2.0396039603960396,0.43196932694343476
2.0594059405940595,0.5092274938601423
2.0792079207920793,0.5935147748179027
2.099009900990099,0.6819651373366035
2.118811881188119,0.7728659151435441
2.1386138613861387,0.865146249160383
2.1584158415841586,0.9580987166165756
2.1782178217821784,1.0512290556342643
2.1980198019801978,1.1441730193998931
2.217821782178218,1.2366487663256898
2.237623762376238,1.3284286111064991
2.257425742574257,1.419321689765941
2.2772277227722775,1.5091629912554125
2.297029702970297,1.597806225132664
2.3168316831683167,1.6851190706683703
2.336633663366337,1.770979945106451
2.3564356435643563,1.8552757652028289
2.376237623762376,1.937900372835623
2.3960396039603964,2.0187534136047454
2.4158415841584158,2.0977395300805646
2.4356435643564356,2.1747677771954916
2.455445544554456,2.24975119677027
2.4752475247524752,2.3226065075230546
2.495049504950495,2.393253879842016
2.514851485148515,2.461616773386939
2.5346534653465347,2.527621821645296
2.5544554455445545,2.5911987518087294
2.5742574257425743,2.652280331342768
2.594059405940594,2.7108023347817474
2.6138613861386135,2.7667035258487207
2.633663366336634,2.819925651152234
2.6534653465346536,2.8704134425660164
2.673267326732673,2.9181146260382724
2.6930693069306932,2.9629799350611834
2.712871287128713,3.0049631274012523
2.7326732673267324,3.044021003975261
2.7524752475247527,3.0801134289778633
2.7722772277227725,3.113203350539562
2.792079207920792,3.143256821330574
2.811881188118812,3.170243018634803
2.8316831683168315,3.194134263505657
2.8514851485148514,3.2149060386863946
2.8712871287128716,3.232537005035894
2.891089108910891,3.2470090162491676
2.910891089108911,3.2583071317024013
2.9306930693069306,3.2664196272872728
2.9504950495049505,3.2713380041291744
2.9702970297029703,3.273056995111122
2.99009900990099,3.2715745691490343
3.00990099009901,3.2668919331871424
3.0297029702970297,3.2590135319037343
3.0495049504950495,3.2479470451390116
3.0693069306930694,3.233703383078784
3.089108910891089,3.216296679250466
3.108910891089109,3.1957442814127233
3.128712871287129,3.1720667404473466
3.148514851485148,3.1452877973928954
3.1683168316831685,3.1154343687953
3.1881188118811883,3.0825365305924732
3.2079207920792077,3.046627500799823
3.227722772277228,3.0077436213237894
3.2475247524752473,2.965924339303851
3.267326732673267,2.921212188474102
3.2871287128712874,2.8736527711481403
3.3069306930693068,2.8232947415726586
3.3267326732673266,2.770189791574516
3.346534653465347,2.7143926396551517
3.366336633663366,2.6559610249815466
3.386138613861386,2.594955708106488
3.4059405940594063,2.531440480753525
3.4257425742574257,2.4654821876669106
3.4455445544554455,2.3971507644139525
3.4653465346534653,2.326519296223169
3.485148514851485,2.2536641045703414
3.504950495049505,2.1786648704667275
3.5247524752475248,2.10160480652723
3.5445544554455446,2.022570894301005
3.564356435643564,1.9416542096423532
3.5841584158415842,1.858950368025612
3.603960396039604,1.7745601351425557
3.6237623762376234,1.6885902682280876
3.6435643564356437,1.6011546841987254
3.6633663366336635,1.5123760982884462
3.683168316831683,1.422388352390543
3.702970297029703,1.3313397749120661
3.722772277227723,1.239398117949225
3.7425742574257423,1.1467579662577374
3.762376237623762,1.0536521257614118
3.7821782178217824,0.9603696112317497
3.801980198019802,0.8672849321447627
3.8217821782178216,0.7749073804817753
3.841584158415842,0.6839669125599879
3.8613861386138613,0.5955687890317588
3.881188118811881,0.5114781812278046
3.9009900990099013,0.4346369759765407
3.9207920792079207,0.36999363662665635
3.9405940594059405,0.3252405060481368
3.96039603960396,0.3093520671631778
3.98019801980198,0.32664267628929033
4.0,0.3724737258229426
4.01980198019802,0.4378407131644067
4.03960396039604,0.5151683108834091
4.0594059405940595,0.5996132805298744
4.079207920792079,0.6882983319245982
4.099009900990099,0.7794944693771682
4.118811881188119,0.8721165825825532
4.138613861386139,0.9654461735447962
4.158415841584159,1.0589806214502973
4.178217821782178,1.1523493612471012
4.198019801980198,1.2452657070396602
4.217821782178218,1.3374981849792278
4.237623762376238,1.4288529021476686
4.257425742574258,1.5191623705577688
4.2772277227722775,1.608278228952651
4.297029702970297,1.6960663885649294
4.316831683168317,1.782403727385463
4.336633663366336,1.8671757981266641
4.356435643564357,1.9502752146043916
4.376237623762377,2.031600501309435
4.3960396039603955,2.1110552649670464
4.415841584158416,2.1885475935831593
4.435643564356436,2.2639896185609802
4.455445544554455,2.337297195231432
4.475247524752476,2.408389670352835
4.4950495049504955,2.47718971411598
4.514851485148514,2.543623200389737
4.534653465346535,2.6076191232822814
4.554455445544555,2.6691095411720007
4.574257425742574,2.728029541573794
4.594059405940594,2.784317221813639
4.613861386138614,2.837913681664754
4.633663366336633,2.888763024975218
4.653465346534653,2.936812367973428
4.673267326732674,2.982011852435085
4.693069306930693,3.0243146622742008
4.712871287128713,3.063677042413139
4.732673267326733,3.1000583190132285
4.752475247524752,3.1334209203252135
4.772277227722772,3.1637303975590605
4.792079207920793,3.1909554452844406
4.811881188118812,3.2150679209628876
4.8316831683168315,3.2360428632858858
4.851485148514852,3.253858509052575
4.871287128712871,3.2684963083707643
4.891089108910891,3.279940938006632
4.910891089108912,3.28818031274407
4.930693069306931,3.2932055946460035
4.9504950495049505,3.295011200137315
4.97029702970297,3.2935948048542976
4.99009900990099,3.2889573462289
5.00990099009901,3.2811030237985372
5.02970297029703,3.270039297254519
5.0495049504950495,3.255776882264858
5.069306930693069,3.2383297441310788
5.089108910891089,3.2177150893644826
5.108910891089109,3.193953355295796
5.128712871287129,3.16706819786458
5.148514851485149,3.1370864777722125
5.1683168316831685,3.1040382452260014
5.188118811881188,3.0679567235546115
5.207920792079208,3.0288782920380695
5.227722772277227,2.986842468372972
5.247524752475248,2.941891891288708
5.267326732673268,2.8940723039493945
5.2871287128712865,2.8434325389250845
5.306930693069307,2.7900245057049813
5.326732673267327,2.7339031819666384
5.346534653465346,2.6751266101262137
5.366336633663367,2.6137559010988394
5.3861386138613865,2.5498552477277023
5.405940594059405,2.483491951040564
5.425742574257426,2.414736463426574
5.445544554455446,2.3436624540855
5.465346534653465,2.2703469038154407
5.485148514851486,2.194870238564643
5.504950495049505,2.117316514458355
5.524752475247524,2.037773671642971
5.544554455445545,1.9563338809058148
5.564356435643565,1.8730940166146632
5.584158415841584,1.7881563036233725
5.603960396039604,1.7016292068809848
5.623762376237624,1.613628664589658
5.643564356435643,1.524279815585915
5.663366336633663,1.433719450576823
5.683168316831684,1.3420995448276969
5.702970297029703,1.2495924424076574
5.7227722772277225,1.1563986243972173
5.742574257425743,1.0627586286694568
5.762376237623762,0.9689718356940493
5.782178217821782,0.8754269674580663
5.801980198019803,0.7826532216839858
5.821782178217822,0.6914088978797787
5.841584158415841,0.6028397480698663
5.861386138613861,0.5187669939802745
5.881188118811881,0.44220038176034265
5.900990099009901,0.37813326091354427
5.920792079207921,0.33417092426603867
5.9405940594059405,0.31895778638741334
5.96039603960396,0.3364946438676571
5.98019801980198,0.38225870914130555
6.0,0.44754515756325647
6.01980198019802,0.5249313019487952
6.03960396039604,0.6095953455878981
6.0594059405940595,0.6986354680194798
6.079207920792079,0.7902918702998649
6.099009900990099,0.883453406355988
6.118811881188119,0.9773816353125543
6.138613861386139,1.0715590233535213
6.158415841584159,1.165603817951043
6.178217821782178,1.2592208173009634
6.198019801980198,1.3521719377809553
6.217821782178218,1.4442580453599263
6.237623762376237,1.5353074048549933
6.257425742574258,1.6251681393388775
6.2772277227722775,1.7137031904663964
6.297029702970296,1.8007868802043294
6.316831683168317,1.8863025229243102
6.336633663366337,1.9701407416171466
6.356435643564356,2.052198265531418
6.376237623762377,2.1323770628961167
6.396039603960396,2.2105837106495
6.415841584158415,2.286728934239124
6.435643564356436,2.3607272710417653
6.455445544554456,2.4324968246647094
6.475247524752475,2.501959086721685
6.495049504950495,2.5690388091237617
6.514851485148515,2.633663914443297
6.534653465346534,2.695765435116519
6.554455445544554,2.7552774745558497
6.574257425742575,2.812137184919344
6.594059405940594,2.8662847575168664
6.6138613861386135,2.9176634227475273
6.633663366336634,2.966219457149117
6.653465346534653,3.0119021956594403
6.673267326732673,3.0546640475860984
6.693069306930694,3.0944605150865483
6.712871287128713,3.131250213197576
6.732673267326732,3.1649948906391585
6.752475247524753,3.195659450764409
6.772277227722772,3.223211972144311
6.792079207920792,3.2476237283700207
6.811881188118813,3.2688692067317557
6.8316831683168315,3.2869261254961137
6.851485148514851,3.3017754495554623
6.871287128712871,3.313401404267144
6.891089108910891,3.3217914873372805
6.910891089108911,3.326936478636957
6.930693069306931,3.3288304478672273
6.9504950495049505,3.327470760015913
6.97029702970297,3.322858078573758
6.99009900990099,3.3149963665012865
7.00990099009901,3.3038928849611224
7.02970297029703,3.289558189854716
7.0495049504950495,3.2720061262276543
7.069306930693069,3.2512538206351964
7.089108910891089,3.2273216715901607
7.108910891089109,3.2002333382497197
7.128712871287128,3.1700157275378906
7.148514851485149,3.1366989799472593
7.1683168316831685,3.1003164543199255
7.188118811881187,3.0609047119753567
7.207920792079208,3.0185035006358363
7.227722772277228,2.9731557387026584
7.247524752475247,2.924907500563693
7.267326732673268,2.873808003773299
7.287128712871287,2.8199095991487426
7.306930693069306,2.763267765086823
7.326732673267327,2.703941107738795
7.346534653465347,2.641991369116218
7.366336633663366,2.5774834457694493
7.3861386138613865,2.5104854214330685
7.405940594059406,2.4410686180363856
7.425742574257425,2.369307670829586
7.445544554455446,2.295280635216697
7.465346534653466,2.219069135418829
7.485148514851485,2.1407585686152366
7.504950495049505,2.0604383831748505
7.524752475247524,1.9782024566781857
7.544554455445544,1.8941496096897834
7.564356435643565,1.8083843063208163
7.584158415841584,1.7210176151474406
7.603960396039604,1.6321685382960618
7.623762376237624,1.5419658695646223
7.643564356435643,1.4505508263547928
7.663366336633663,1.3580808358426957
7.683168316831684,1.264735080411975
7.702970297029703,1.1707227888240137
7.7227722772277225,1.0762959251434443
7.742574257425743,0.9817691214242147
7.762376237623762,0.887551901552183
7.782178217821782,0.7942024000319751
7.801980198019803,0.7025197304239806
7.821782178217822,0.6137071336588814
7.841584158415841,0.529663580866754
7.861386138613862,0.4534886855076991
7.881188118811881,0.3902246714782065
7.900990099009901,0.3473357771522368
7.92079207920792,0.33300991023481974
7.9405940594059405,0.35084538119357117
7.96039603960396,0.39648842453319894
7.980198019801979,0.46163968155373014
8.0,0.5390868540984884
8.01980198019802,0.6240399636737104
8.03960396039604,0.713563724500888
8.05940594059406,0.8058548609405604
8.07920792079208,0.8997649241761617
8.099009900990099,0.9945266392417489
8.118811881188119,1.0896007862105488
8.138613861386139,1.1845892875048034
8.158415841584159,1.2791844932343948
8.178217821782178,1.3731386551358944
8.198019801980198,1.4662449829509288
8.217821782178218,1.5583255497293333
8.237623762376238,1.6492233684656774
8.257425742574258,1.7387970808586544
8.277227722772277,1.826917324311767
8.297029702970297,1.9134642027840256
8.316831683168317,1.9983254993759507
8.336633663366337,2.0813953970948473
8.356435643564357,2.1625735539604714
8.376237623762377,2.2417644291392436
8.396039603960396,2.318876789476919
8.415841584158416,2.393823347340023
8.435643564356436,2.466520495122534
8.455445544554456,2.5368881116203807
8.475247524752476,2.604849422288385
8.495049504950495,2.670330900173621
8.514851485148515,2.7332621977160203
8.534653465346535,2.793576102051159
8.554455445544555,2.8512085082287375
8.574257425742575,2.9060984060686805
8.594059405940595,2.9581878773490455
8.613861386138613,3.0074221007494586
8.633663366336634,3.053749362526243
8.653465346534654,3.0971210713173676
8.673267326732672,3.1374917758007808
8.693069306930694,3.174819184182071
8.712871287128714,3.2090641846858086
8.732673267326732,3.240190866380948
8.752475247524753,3.2681665397958004
8.772277227722773,3.292961756878014
8.792079207920791,3.3145503299366514
8.811881188118813,3.3329093492701647
8.831683168316832,3.348019199239665
8.85148514851485,3.3598635725935684
8.871287128712872,3.368429482889642
8.891089108910892,3.373707274895382
8.91089108910891,3.375690632878563
8.930693069306932,3.374376586728051
8.950495049504951,3.369765515871401
8.97029702970297,3.3618611509813165
8.990099009900991,3.3506705734882396
9.00990099009901,3.3362042129424823
9.029702970297029,3.3184758422965506
9.04950495049505,3.297502571208269
9.06930693069307,3.2733048374982006
9.089108910891088,3.245906396932746
9.10891089108911,3.2153343115477666
9.12871287128713,3.181618936779264
9.148514851485148,3.144793907728819
9.16831683168317,3.104896124966254
9.188118811881187,3.0619657403626666
9.207920792079207,3.0160461435594983
9.227722772277229,2.9671839498193133
9.247524752475247,2.9154289901800636
9.267326732673267,2.86083430505755
9.287128712871288,2.8034561427261497
9.306930693069306,2.7433539644749065
9.326732673267326,2.680590458713191
9.346534653465348,2.61523156692513
9.366336633663366,2.5473465251975016
9.386138613861386,2.4770079261474374
9.405940594059407,2.4042918075589137
9.425742574257425,2.3292777760541217
9.445544554455445,2.252049176899253
9.465346534653467,2.1726933249005116
9.485148514851485,2.091301816775088
9.504950495049505,2.0079709531227863
9.524752475247526,1.922802309317555
9.544554455445544,1.8359035110661486
9.564356435643564,1.7473892948814016
9.584158415841586,1.6573829708917263
9.603960396039604,1.5660184628696328
9.623762376237623,1.4734431909746566
9.643564356435645,1.3798222086977796
9.663366336633663,1.2853442461790707
9.683168316831683,1.1902307186569685
9.702970297029704,1.0947494633468882
9.722772277227723,0.9992362206499218
9.742574257425742,0.9041291571063184
9.762376237623764,0.8100259620462112
9.782178217821782,0.7177809458608186
9.801980198019802,0.628673825016512
9.821782178217823,0.5447041788726016
9.841584158415841,0.46908156258701467
9.861386138613861,0.40689293653012815
9.881188118811881,0.3653968487827709
9.900990099009901,0.35220356641693523
9.92079207920792,0.3704338420806317
9.94059405940594,0.41594362866236134
9.96039603960396,0.4809307024959669
9.98019801980198,0.5584545524195137
10.0,0.6437755776588965
10.01980198019802,0.7339211960797132
10.03960396039604,0.8270340836709571
10.05940594059406,0.9219177204422986
10.07920792079208,1.0177669208776186
10.099009900990099,1.114013584024809
10.118811881188119,1.210237703085642
10.138613861386139,1.3061148102078193
10.158415841584159,1.4013840516660871
10.178217821782178,1.4958282339162703
10.198019801980198,1.5892610105069935
10.217821782178218,1.6815184483251122
10.237623762376238,1.7724533515566074
10.257425742574258,1.861931365556022
10.277227722772277,1.9498282559107
10.297029702970297,2.0360279797338614
10.316831683168317,2.120421301239287
10.336633663366337,2.2029047877513963
10.356435643564357,2.2833800758137177
10.376237623762377,2.3617533317830057
10.396039603960396,2.437934854247414
10.415841584158416,2.511838781037369
10.435643564356436,2.5833828741372487
10.455445544554454,2.6524883631117406
10.475247524752476,2.7190798327948893
10.495049504950495,2.7830851446446787
10.514851485148514,2.8444353837988636
10.534653465346535,2.9030648257864176
10.554455445544555,2.9589109182616165
10.574257425742573,3.0119142741786344
10.594059405940595,3.062018673613825
10.613861386138614,3.1091710720408074
10.633663366336632,3.1533216133207693
10.653465346534654,3.194423646022887
10.673267326732674,3.2324337419639875
10.693069306930692,3.2673117160712195
10.712871287128714,3.2990206468415293
