Frequency (Hz),Amplitude
0.0,5.468710970105681
0.020066889632107024,5.4664252338916715
0.04013377926421405,5.459571332163561
0.060200668896321065,5.448159191440641
0.0802675585284281,5.432205375316683
0.10033444816053512,5.4117331140337015
0.12040133779264213,5.386772346858894
0.14046822742474915,5.3573597782653986
0.1605351170568562,5.32353894924239
0.1806020066889632,5.285360325415291
0.20066889632107024,5.242881404052453
0.22073578595317725,5.196166842477539
0.24080267558528426,5.145288610910858
0.2608695652173913,5.090326173337608
0.2809364548494983,5.03136670066235
0.3010033444816054,4.968505321172262
0.3210702341137124,4.901845414214804
0.34113712374581934,4.831498954019168
0.3612040133779264,4.757586911776654
0.3812709030100334,4.6802397254675085
0.4013377926421405,4.599597848504599
0.42140468227424743,4.515812390080018
0.4414715719063545,4.4290458621683335
0.4615384615384615,4.339473050467188
0.4816053511705685,4.247282029132937
0.5016722408026756,4.152675341953656
0.5217391304347826,4.05587137550207
0.5418060200668896,3.957105952651088
0.5618729096989966,3.8566341773148087
0.5819397993311036,3.7547325629056423
0.6020066889632107,3.6517014769995124
0.6220735785953176,3.547867931891086
0.6421404682274248,3.4435887433338523
0.6622073578595318,3.339254065234132
0.6822742474916387,3.2352912827952585
0.7023411371237458,3.132169205688211
0.7224080267558528,3.0304024399246186
0.7424749163879598,2.9305557246182423
0.7625418060200668,2.8332478896731916
0.7826086956521738,2.7391549161471667
0.802675585284281,2.6490113617629576
0.8227424749163879,2.563609161477846
0.8428093645484949,2.48379256141708
0.862876254180602,2.410447762295631
0.882943143812709,2.3444858464889387
0.903010033444816,2.286817888273576
0.923076923076923,2.238321947511963
0.9431438127090299,2.199802995975762
0.963210702341137,2.1719486126362764
0.983277591973244,2.1552851295183677
1.0033444816053512,2.150140185470278
1.0234113712374582,2.1566176822511514
1.0434782608695652,2.1745895759264275
1.0635451505016722,2.2037060256839225
1.0836120401337792,2.2434220202689295
1.1036789297658862,2.293035805148033
1.1237458193979932,2.3517330456539622
1.1438127090301002,2.418630858630467
1.1638795986622072,2.492817216519169
1.1839464882943145,2.5733830933014366
1.2040133779264215,2.6594464741138655
1.2240802675585283,2.7501686407048913
1.2441471571906353,2.844763888323269
1.2642140468227423,2.9425041119264956
1.2842809364548495,3.0427196716012492
1.3043478260869565,3.1447977529636812
1.3244147157190636,3.2481791841483503
1.3444816053511706,3.3523544210091067
1.3645484949832773,3.4568591975818874
1.3846153846153846,3.5612701696051334
1.4046822742474916,3.6652007532340773
1.4247491638795986,3.7682972722170205
1.4448160535117056,3.870235466642157
1.4648829431438126,3.970717377421038
1.4849498327759196,4.069468596776272
1.5050167224080266,4.166235861397093
1.5250836120401337,4.260784958137068
1.5451505016722407,4.352898909689982
1.5652173913043477,4.4423764079000705
1.5852842809364547,4.529030464109588
1.605351170568562,4.612687248480583
1.625418060200669,4.6931850930824215
1.6454849498327757,4.7703736364276095
1.6655518394648827,4.844113089901177
1.6856187290969897,4.914273609077793
1.705685618729097,4.980734755217745
1.725752508361204,5.043385034271068
1.745819397993311,5.102121502507344
1.765886287625418,5.156849429446524
1.7859531772575248,5.207482010116185
1.806020066889632,5.253940119827037
1.826086956521739,5.296152105665621
1.846153846153846,5.334053609771533
1.866220735785953,5.3675874202177685
1.8862876254180598,5.396703345963565
1.9063545150501673,5.421358112915665
1.926421404682274,5.441515278630143
1.9464882943143813,5.457145163624681
1.966555183946488,5.468224797661546
1.9866220735785953,5.47473787971322
2.0066889632107023,5.476674750645152
2.026755852842809,5.474032377949702
2.0468227424749164,5.466814352150229
2.0668896321070234,5.4550308947702995
2.0869565217391304,5.438698878036464
2.1070234113712374,5.417841856760783
2.1270903010033444,5.3924901131371445
2.1471571906354514,5.362680715489856
2.1672240802675584,5.3284575923420885
2.1872909698996654,5.289871623532418
2.2073578595317724,5.2469807505082775
2.2274247491638794,5.199850108377177
2.2474916387959865,5.148552182808492
2.267558528428094,5.093166995465234
2.2876254180602005,5.033782322319857
2.3076923076923075,4.970493949987069
2.3277591973244145,4.903405976108942
2.3478260869565215,4.832631160873386
2.367892976588629,4.758291337959451
2.3879598662207355,4.680517894605543
2.408026755852843,4.5994523321148435
2.4280936454849495,4.5152469199682255
2.4481605351170566,4.4280654588272705
2.468227424749164,4.338084170086152
2.4882943143812706,4.2454927322585485
2.508361204013378,4.150495487320626
2.5284280936454846,4.0533128430728835
2.548494983277592,3.954182900448279
2.568561872909699,3.853363337164129
2.5886287625418056,3.7511335806729487
2.608695652173913,3.6477973032002096
2.6287625418060196,3.543685268521151
2.648829431438127,3.439158552176427
2.668896321070234,3.334612141379192
2.688963210702341,3.2304788941602687
2.709030100334448,3.1272337942387485
2.7290969899665547,3.0253983721380884
2.749163879598662,2.9255450663799807
2.769230769230769,2.828301163022723
2.789297658862876,2.7343517710920744
2.809364548494983,2.6444410655468844
2.82943143812709,2.559370771847606
2.849498327759197,2.4799946144779668
2.869565217391304,2.4072072792590458
2.8896321070234112,2.341926462620433
2.9096989966555182,2.2850669517376954
2.9297658862876252,2.2375065444404254
2.9498327759197323,2.200045037383651
2.9698996655518393,2.17335934863603
2.9899665551839463,2.1579596811753063
3.0100334448160533,2.1541528224581046
3.0301003344481603,2.162018548534901
3.0501672240802673,2.181403349224294
3.0702341137123748,2.2119326402035746
3.0903010033444813,2.25303919963423
3.1103678929765888,2.3040028656641565
3.1304347826086953,2.3639953118515287
3.1505016722408024,2.43212408215685
3.1705685618729094,2.5074715486146597
3.1906354515050164,2.589126356230252
3.210702341137124,2.676206650080742
3.2307692307692304,2.7678756192199487
3.250836120401338,2.863350581210755
3.270903010033445,2.9619070700896644
3.2909698996655514,3.0628793344383185
3.311036789297659,3.1656584434481614
3.3311036789297654,3.269688939558742
3.351170568561873,3.3744647267327683
3.3712374581939795,3.479524672011482
3.391304347826087,3.584448232732576
3.411371237458194,3.6888512999723555
3.4314381270903005,3.792382363161271
3.451505016722408,3.8947190432227963
3.471571906354515,3.9955650045583617
3.491638795986622,4.094647233680681
3.511705685618729,4.19171365965545
3.531772575250836,4.286531085374357
3.551839464882943,4.378883396674203
3.5719063545150496,4.468570016812056
3.591973244147157,4.555404575721529
3.612040133779264,4.639213766106844
3.632107023411371,4.719836361336979
3.652173913043478,4.797122373014374
3.672240802675585,4.870932328858855
3.692307692307692,4.941136654088128
3.712374581939799,5.007615141760497
3.732441471571906,5.070256499566924
3.752508361204013,5.128957962331568
3.7725752508361197,5.183624961021308
3.7926421404682276,5.234170840399677
3.8127090301003346,5.28051661861358
3.832775919732441,5.322590782995846
3.852842809364548,5.36032911722461
3.872909698996655,5.393674555722934
3.8929765886287626,5.422577061824374
3.9130434782608696,5.446993526791203
3.933110367892976,5.466887687261886
3.953177257525083,5.482230059138665
3.9732441471571907,5.492997886312394
3.9933110367892977,5.4991751029714155
4.013377926421405,5.500752308561756
4.033444816053511,5.497726754764792
4.053511705685618,5.490102344143089
4.073578595317726,5.477889640381778
4.093645484949833,5.461105890327645
4.113712374581939,5.439775058308123
4.133779264214047,5.4139278735029706
4.153846153846153,5.383601891450569
4.173913043478261,5.348841571104424
4.193979933110368,5.309698369222996
4.214046822742475,5.2662308542845775
4.234113712374581,5.218504842580446
4.254180602006689,5.166593559663626
4.274247491638796,5.110577830931097
4.294314381270903,5.050546305809227
4.314381270903009,4.986595720811534
4.334448160535117,4.918831207664443
4.354515050167224,4.8473666537718465
4.374581939799331,4.772325123535487
4.394648829431437,4.693839350492042
4.414715719063545,4.612052311892857
4.434782608695651,4.527117899263527
4.454849498327759,4.439201700655791
4.474916387959866,4.348481912750822
4.494983277591973,4.255150403677968
4.5150501672240795,4.159413950328223
4.535117056856188,4.061495676962383
4.555183946488294,3.961636724844347
4.575250836120401,3.860098185136421
4.595317725752508,3.757163328829921
4.615384615384615,3.653140167194079
4.635451505016722,3.5483643728001195
4.655518394648829,3.443202582668345
4.6755852842809364,3.3380560886759936
4.695652173913043,3.2333648920949876
4.71571906354515,3.129612053656385
4.735785953177258,3.027328201007327
4.7558528428093645,2.9270959537190255
4.775919732441471,2.8295538837566387
4.795986622073578,2.7353994403617596
4.816053511705686,2.6453900333649907
4.8361204013377925,2.5603412035262028
4.856187290969899,2.481120553871024
4.8762541806020065,2.408635951381023
4.896321070234113,2.343816557823034
4.916387959866221,2.2875856699376222
4.936454849498328,2.240825289712611
4.956521739130435,2.2043338526544978
4.976588628762541,2.1787804492732787
4.996655518394649,2.1646607248595267
5.016722408026756,2.1622607460478918
5.036789297658863,2.1716348167898034
5.056856187290969,2.192601254007829
5.076923076923077,2.2247569087747947
5.096989966555184,2.267507738759959
5.117056856187291,2.3201101232176553
5.137123745819398,2.3817165686057633
5.157190635451505,2.451420002600943
5.177257525083611,2.5282924656046313
5.197324414715719,2.611415962157211
5.217391304347826,2.69990495272994
5.237458193979933,2.7929211589024456
5.257525083612039,2.8896819894455796
5.277591973244148,2.989464087788055
5.297658862876254,3.091603413696439
5.317725752508361,3.1954930453876393
5.337792642140468,3.300579621311893
5.357859531772575,3.40635908997434
5.377926421404682,3.51237222669674
5.397993311036789,3.618200214228387
5.418060200668896,3.723460465744692
5.438127090301003,3.827802786241639
5.458193979933109,3.9309059132543185
5.478260869565218,4.032474442746567
5.498327759197324,4.132236124941658
5.518394648829431,4.229939503261921
5.538461538461538,4.325351864137931
5.558528428093646,4.418257463941505
5.578595317725752,4.508456000129264
5.598662207357859,4.595761295819773
5.618729096989966,4.680000169800183
5.638795986622073,4.761011466950831
5.65886287625418,4.838645227038293
5.678929765886288,4.9127619726201495
5.698996655518394,4.98323209935638
5.719063545150501,5.049935354307832
5.739130434782608,5.112760389819707
5.759197324414716,5.171604382352671
5.7792642140468224,5.226372707156805
5.799331103678929,5.276978661009479
5.8193979933110365,5.323343226382397
5.839464882943144,5.365394871389237
5.8595317725752505,5.403069380716244
5.879598662207358,5.436309713473384
5.8996655518394645,5.465065884540986
5.919732441471571,5.489294866542384
5.9397993311036785,5.508960510059705
5.959866220735786,5.524033480140531
5.9799331103678925,5.534491207527604
5.999999999999999,5.540317853391662
6.020066889632107,5.541504286667107
6.040133779264214,5.538048073389342
6.060200668896321,5.52995347771741
6.080267558528428,5.51723147460406
6.100334448160535,5.4998997743524045
6.120401337792642,5.477982859581386
6.1404682274247495,5.451512035417517
6.160535117056856,5.420525494044429
6.180602006688963,5.385068395082784
6.200668896321069,5.345192963648242
6.2207357859531776,5.300958608354761
6.240802675585284,5.252432062003613
6.260869565217391,5.199687548237972
6.280936454849498,5.1428069780612695
6.301003344481605,5.081880180831016
6.321070234113712,5.017005175165067
6.341137123745819,4.9482884861551595
6.361204013377926,4.875845516394453
6.381270903010033,4.799800979616952
6.40133779264214,4.720289407242512
6.421404682274248,4.637455739848989
6.441471571906354,4.551456017576796
6.461538461538461,4.462458185731318
6.481605351170568,4.370643034391723
6.501672240802676,4.276205293648096
6.521739130434782,4.179354909121271
6.54180602006689,4.0803185255610614
6.561872909698996,3.979341209362697
6.581939799331103,3.8766884434346442
6.60200668896321,3.7726484294167344
6.622073578595318,3.6675347318777094
6.642140468227424,3.561689295428085
6.662207357859531,3.4554858566014053
6.682274247491639,3.349333754892556
6.702341137123746,3.243682117294748
6.722408026755852,3.1390243423765214
6.742474916387959,3.035902736131824
6.762541806020066,2.9349130439690634
6.782608695652174,2.8367084725715404
6.80267558528428,2.7420025957874143
6.822742474916388,2.65157029172044
6.842809364548494,2.566245581531454
6.862876254180601,2.4869149799206514
6.882943143812709,2.414504809386982
6.903010033444816,2.3499610087045575
6.9230769230769225,2.294220447343809
6.94314381270903,2.248173790473447
6.963210702341137,2.2126215770469284
6.983277591973244,2.1882271735920713
7.0033444816053505,2.175472138785724
7.023411371237458,2.174620544959349
7.0434782608695645,2.1856982872059354
7.063545150501672,2.2084911726558403
7.083612040133779,2.242562141423461
7.103678929765886,2.2872844152471936
7.123745819397993,2.3418848446112928
7.143812709030099,2.4054908804615214
7.1638795986622075,2.477175361029619
7.183946488294314,2.5559950709105332
7.204013377926421,2.6410210503574567
7.224080267558528,2.731360344209501
7.2441471571906355,2.8261700242580727
7.264214046822742,2.924664894189701
7.2842809364548495,3.026120427872229
7.304347826086956,3.129872367862025
7.324414715719063,3.235314162977745
7.34448160535117,3.341893146673316
7.364548494983278,3.4491061042004976
7.384615384615384,3.5564946681965934
7.404682274247491,3.663640823215227
7.424749163879598,3.770162684675521
7.444816053511706,3.875710638285838
7.464882943143812,3.9799638735404836
7.48494983277592,4.082627311881287
7.505016722408026,4.18342891061481
7.525083612040134,4.282117313232793
7.545150501672239,4.378459812211033
7.565217391304348,4.472240589443619
7.585284280936455,4.563259200709843
7.605351170568561,4.651329272985831
7.625418060200669,4.736277386372008
7.645484949832775,4.8179421155223325
7.665551839464882,4.896173208501665
7.685618729096991,4.970830883838026
7.705685618729096,5.041785229116756
7.725752508361204,5.10891568676338
7.74581939799331,5.1721106146860505
7.765886287625418,5.2312669112136225
7.785953177257525,5.286289695295965
7.806020066889631,5.337092034254836
7.826086956521739,5.383594712512846
7.846153846153847,5.425726035709149
7.866220735785952,5.463421665456604
7.88628762541806,5.496624480725771
7.906354515050166,5.525284462474545
7.926421404682274,5.549358598694356
7.946488294314381,5.568810807527908
7.966555183946488,5.58361187654188
7.986622073578595,5.5937394166212
8.006688963210701,5.599177829298543
8.02675585284281,5.599918286652745
8.046822742474916,5.595958723209247
8.066889632107022,5.587303839562592
8.08695652173913,5.5739651177214915
8.107023411371236,5.555960848457553
8.127090301003344,5.533316171226416
8.147157190635452,5.5060631275304415
8.167224080267557,5.474240728913819
8.187290969899665,5.4378950411299884
8.207357859531772,5.397079286407655
8.227424749163879,5.351853966173335
8.247491638795987,5.302287007077728
8.267558528428093,5.248453933730942
8.2876254180602,5.190438072192988
8.307692307692307,5.128330789006344
8.327759197324415,5.062231771415863
8.347826086956522,4.992249355418436
8.367892976588628,4.91850090944418
8.387959866220736,4.841113282818779
8.408026755852843,4.7602233297203345
8.42809364548495,4.675978521152255
8.448160535117056,4.588537659532925
8.468227424749163,4.498071712874191
8.488294314381271,4.404764788192759
8.508361204013378,4.308815266758295
8.528428093645484,4.210437126976123
8.548494983277592,4.109861484015004
8.568561872909697,4.007338378504372
8.588628762541806,3.9031388493638826
8.608695652173914,3.7975573274788883
8.628762541806019,3.690914386528113
8.648829431438127,3.5835598833200453
8.668896321070234,3.4758765102887414
8.68896321070234,3.3682837641249455
8.709030100334449,3.2612423023618256
8.729096989966555,3.155258608001642
8.749163879598662,3.0508898031709255
8.769230769230768,2.948748337182463
8.789297658862875,2.8495061130436325
8.809364548494983,2.753897403100425
8.82943143812709,2.662719641544602
8.849498327759196,2.5768308894174146
8.869565217391303,2.4971424980012045
8.889632107023411,2.4246053450602476
8.909698996655518,2.3601881313107738
8.929765886287624,2.304846780260473
8.949832775919733,2.2594851346105647
8.96989966555184,2.22490890241495
8.989966555183946,2.201776927368754
9.010033444816054,2.1905557629507038
9.030100334448159,2.1914844286422213
9.050167224080267,2.2045554502047024
9.070234113712376,2.2295157166487254
9.09030100334448,2.2658869759784874
9.110367892976589,2.31300214225867
9.130434782608695,2.3700511693495385
9.150501672240802,2.4361296422336904
9.17056856187291,2.5102842598998447
9.190635451505017,2.591551336882064
9.210702341137123,2.678986552979925
9.23076923076923,2.7716858860009146
9.250836120401337,2.8687987516311835
9.270903010033445,2.9695348815371756
9.290969899665551,3.073166552861938
9.311036789297658,3.1790276160094577
9.331103678929765,3.286510494155484
9.351170568561873,3.3950620383764973
9.37123745819398,3.504178864539819
9.391304347826086,3.613402590442694
9.411371237458194,3.7223152354341966
9.4314381270903,3.8305349332226086
9.451505016722408,3.9377120325203485
9.471571906354516,4.043525610606754
9.49163879598662,4.147680394198577
9.511705685618729,4.24990406429658
9.531772575250837,4.3499449125611
9.551839464882942,4.447569813164169
9.57190635451505,4.542562473840546
9.591973244147155,4.634721931589009
9.612040133779264,4.7238612612299065
9.632107023411372,4.809806468217673
9.652173913043477,4.892395540379808
9.672240802675585,4.971477636399524
9.692307692307692,5.046912391768418
9.712374581939798,5.118569325559191
9.732441471571907,5.186327333694851
9.752508361204013,5.250074256430086
9.77257525083612,5.30970650953329
9.792642140468226,5.365128770191175
9.812709030100335,5.41625370997946
9.832775919732441,5.463001768380657
9.852842809364548,5.505300961308353
9.872909698996656,5.543086719940328
9.89297658862876,5.576301755890595
9.91304347826087,5.604895949381224
9.933110367892976,5.628826257624353
9.953177257525082,5.648056641107324
9.97324414715719,5.66255800590087
9.993311036789297,5.672308160492966
10.013377926421404,5.677291785998209
10.033444816053512,5.677500418913238
10.053511705685617,5.672932445889917
10.073578595317725,5.663593110287316
10.093645484949834,5.649494530547635
10.113712374581938,5.6306557307261835
10.133779264214047,5.607102683799107
10.153846153846153,5.5788683686802685
10.17391304347826,5.545992842209287
10.193979933110368,5.508523327732917
10.214046822742475,5.466514322301376
10.234113712374581,5.42002772494971
10.254180602006688,5.369132989042498
10.274247491638796,5.3139073022423515
10.294314381270903,5.254435798332138
10.31438127090301,5.190811805896202
10.334448160535118,5.123137139765816
10.354515050167223,5.051522442181546
10.37458193979933,4.976087581845105
10.394648829431437,4.896962120454053
10.414715719063544,4.814285857963306
10.434782608695652,4.72820946973035
10.454849498327757,4.638895250903598
10.474916387959865,4.546517985930729
10.494983277591974,4.451265963906017
10.515050167224079,4.35334216362994
10.535117056856187,4.2529656356668735
10.555183946488295,4.150373112234773
10.5752508361204,4.0458208792134345
10.595317725752508,3.9395869475140692
10.615384615384615,3.8319735628529257
10.635451505016722,3.7233100925705918
10.65551839464883,3.6139563239293464
10.675585284280936,3.504306197900244
10.695652173913043,3.3947919823234773
10.71571906354515,3.285888853566926
10.735785953177256,3.178119799764138
10.755852842809364,3.072060672878449
10.775919732441471,2.968345091257531
10.795986622073578,2.8676687190686945
10.816053511705684,2.770792217541436
10.836120401337793,2.678541878750511
10.856187290969899,2.5918066397637625
10.876254180602006,2.511529892327021
10.896321070234114,2.4386943593319677
10.916387959866219,2.374298466815301
10.936454849498327,2.3193232933346977
