Time (s),Filtered Signal
0.0,-0.028039059165692014
0.033370165745856356,-0.007447325814406574
0.06674033149171271,-2.7911077601477217e-05
0.10011049723756907,-0.0148380375961278
0.13348066298342542,-0.05407899565023935
0.16685082872928178,-0.11200250633839351
0.20022099447513814,-0.17586520504476202
0.2335911602209945,-0.22877847336141074
0.26696132596685085,-0.25396986478430933
0.30033149171270723,-0.2396377501730307
0.33370165745856356,-0.1831969189855497
0.3670718232044199,-0.09345356564791937
0.4004419889502763,0.010534079724640929
0.43381215469613266,0.10421574165852691
0.467182320441989,0.16477156226949902
0.5005524861878453,0.17832798135110559
0.5339226519337017,0.14435228706138759
0.5672928176795581,0.07541145588150136
0.6006629834254145,-0.007566517792031376
0.6340331491712707,-0.08247825678992975
0.6674033149171271,-0.13274314640909202
0.7007734806629835,-0.1511075968965665
0.7341436464088398,-0.1396858061975934
0.7675138121546962,-0.10703757024768691
0.8008839779005525,-0.06407879026438511
0.8342541436464089,-0.02060306578948058
0.8676243093922653,0.016618477328035036
0.9009944751381216,0.044222501338949394
0.934364640883978,0.061843139726421435
0.9677348066298344,0.07160894989885536
1.0011049723756906,0.07771368785835915
1.0344751381215471,0.08567115719411786
1.0678453038674034,0.1008036076748504
1.1012154696132597,0.12609544074340753
1.1345856353591162,0.16037885138090163
1.1679558011049724,0.19819139131540195
1.201325966850829,0.2320339219347916
1.2346961325966852,0.2563047325962446
1.2680662983425415,0.2707586164193719
1.301436464088398,0.2810301895370522
1.3348066298342542,0.29510367623730055
1.3681767955801105,0.31706495886040764
1.401546961325967,0.341597682988061
1.4349171270718233,0.352999438054104
1.4682872928176796,0.33046152941332524
1.501657458563536,0.25786932470839263
1.5350276243093923,0.1333733260005304
1.5683977900552488,-0.026648468512180855
1.601767955801105,-0.19217997718641147
1.6351381215469614,-0.3312313159813879
1.6685082872928179,-0.423083240649784
1.7018784530386741,-0.46636797098441085
1.7352486187845306,-0.47767966022339076
1.768618784530387,-0.4813509704855816
1.8019889502762432,-0.495788523928708
1.8353591160220997,-0.5236396700900344
1.868729281767956,-0.5509491086074874
1.9020994475138122,-0.5555036217557207
1.9354696132596687,-0.5195474125408829
1.968839779005525,-0.4398129898148819
2.0022099447513813,-0.3295749791979857
2.0355801104972375,-0.2120883966041311
2.0689502762430942,-0.10955201110551059
2.1023204419889505,-0.033889112189409425
2.135690607734807,0.01592916926593059
2.169060773480663,0.04942265876177013
2.2024309392265193,0.07651485090153418
2.235801104972376,0.10104124040161268
2.2691712707182323,0.11960542059776161
2.3025414364640886,0.12600513977384006
2.335911602209945,0.11805581342897657
2.369281767955801,0.1023063530904065
2.402651933701658,0.09348452803792076
2.436022099447514,0.10861618303242886
2.4693922651933704,0.15883010247119525
2.5027624309392267,0.2432191488719192
2.536132596685083,0.3481046293742034
2.5695027624309392,0.4522520873396211
2.602872928176796,0.5355250295792408
2.636243093922652,0.5867384854730956
2.6696132596685085,0.6069437501770191
2.7029834254143648,0.6067404468803862
2.736353591160221,0.5992253796220571
2.7697237569060777,0.5923316097774741
2.803093922651934,0.584548974548723
2.8364640883977903,0.5662509835269536
2.8698342541436466,0.5259323229361246
2.903204419889503,0.45799710907513275
2.936574585635359,0.3676836535783793
2.969944751381216,0.26992743385310186
3.003314917127072,0.18203116992588986
3.0366850828729284,0.11351518522346242
3.0700552486187846,0.05864505452849372
3.103425414364641,-0.0034705192318489056
3.1367955801104976,-0.09976768818762162
3.170165745856354,-0.24857076082743532
3.20353591160221,-0.4467942384327006
3.2369060773480665,-0.6669311477913344
3.2702762430939227,-0.8677913049195994
3.3036464088397794,-1.0157288402790359
3.3370165745856357,-1.1060453871260512
3.370386740331492,-1.171573885590367
3.4037569060773483,-1.2698038221077925
3.4371270718232045,-1.4504394100906766
3.4704972375690613,-1.7172413449188597
3.5038674033149175,-2.004694929987755
3.537237569060774,-2.1864170122733904
3.57060773480663,-2.1182445645550683
3.6039779005524863,-1.700707714339676
3.6373480662983426,-0.9327546423237617
3.6707182320441993,0.07075454840842238
3.7040883977900556,1.1098130089159945
3.737458563535912,1.9672476204249738
3.770828729281768,2.48441964073083
3.8041988950276244,2.6115042570003473
3.837569060773481,2.412238776598415
3.8709392265193374,2.0252108586061524
3.9043093922651937,1.6029972207773437
3.93767955801105,1.257380667264367
3.9710497237569062,1.031697133790247
4.0044198895027625,0.9057953531969006
4.037790055248619,0.8240545106065981
4.071160220994475,0.7293471630686019
4.104530386740332,0.5876120923909479
4.1379005524861885,0.39577355585531204
4.171270718232044,0.17481596426518148
4.204640883977901,-0.04450880347644405
4.238011049723757,-0.23520431165217426
4.271381215469614,-0.38176662260286304
4.30475138121547,-0.4813533447776103
4.338121546961326,-0.5405846898705807
4.371491712707183,-0.5709516914645666
4.404861878453039,-0.5848774951588065
4.438232044198895,-0.5930555547374117
4.471602209944752,-0.6027876721715696
4.504972375690608,-0.6169737453288667
4.538342541436465,-0.6338230879172562
4.5717127071823205,-0.647683487352908
4.605082872928177,-0.6512224650295744
4.638453038674034,-0.6385515834586013
4.67182320441989,-0.6081382910402409
4.7051933701657465,-0.5640341619150234
4.738563535911602,-0.5144335611593543
4.771933701657459,-0.46779301927308764
4.805303867403316,-0.4281238094598635
4.8386740331491715,-0.39182270697743016
4.872044198895028,-0.3479752237873126
4.905414364640884,-0.28252464781104536
4.938784530386741,-0.1847714952226383
4.972154696132597,-0.0533492054731753
5.005524861878453,0.10116214171979804
5.03889502762431,0.25841995267765
5.072265193370166,0.3946042968894988
5.105635359116023,0.49026919731669477
5.1390055248618784,0.5365493817373578
5.172375690607735,0.5372799467682136
5.205745856353592,0.5063858976659337
5.239116022099448,0.46187362245227553
5.272486187845304,0.41904496715237066
5.30585635359116,0.3856668555777569
5.339226519337017,0.36080855090392533
5.372596685082874,0.33740672584959297
5.4059668508287295,0.3070592257908346
5.439337016574586,0.26472730275258155
5.472707182320442,0.2112538992868658
5.506077348066299,0.15273914146665699
5.5394475138121555,0.09732132910572032
5.572817679558011,0.051097714301887955
5.606187845303868,0.015236912089126274
5.639558011049724,-0.014346725751897419
5.672928176795581,-0.044698376088953246
5.706298342541437,-0.08211155895044835
5.739668508287293,-0.12879855856307784
5.77303867403315,-0.18143482840897904
5.806408839779006,-0.23209837104830908
5.839779005524862,-0.27101159074966
5.873149171270718,-0.28976696990843104
5.906519337016575,-0.28367739435542755
5.939889502762432,-0.25248986509526594
5.9732596685082875,-0.19957903886126735
6.006629834254144,-0.1304087276378239
6.04,-0.051174076401375966
6.073370165745857,0.03187544754431124
6.1067403314917135,0.1125347046199816
6.140110497237569,0.18462162813932895
6.173480662983426,0.24219553388719903
6.206850828729282,0.2799924578149713
6.240220994475139,0.2937919767140546
6.273591160220995,0.28055622729323676
6.306961325966851,0.23856524444242452
6.340331491712708,0.16797624407870718
6.373701657458564,0.07193593153245272
6.40707182320442,-0.04227528317391289
6.440441988950277,-0.16303766150709567
6.473812154696133,-0.27585932195947466
6.50718232044199,-0.36636475430644644
6.5405524861878455,-0.42369685765463916
6.573922651933702,-0.4428781851401261
6.607292817679559,-0.4251967732802697
6.640662983425415,-0.3767225520280812
6.674033149171271,-0.3059534342973022
6.707403314917127,-0.22181516298229909
6.740773480662984,-0.13273167840018543
6.774143646408841,-0.04662086970432493
6.8075138121546965,0.028986102185391154
6.840883977900553,0.08753935284462806
6.874254143646409,0.12499465366721871
6.907624309392266,0.14159012294661266
6.9409944751381225,0.14264231167453514
6.974364640883978,0.13737598249139263
7.007734806629835,0.13582526572878803
7.041104972375691,0.14505875674985363
7.074475138121548,0.1665737223375052
7.107845303867403,0.19619110111207208
7.14121546961326,0.22640578444801196
7.174585635359117,0.249770996310419
7.207955801104973,0.26142670263282014
7.241325966850829,0.25961682871405756
7.274696132596685,0.24445050065349833
7.308066298342542,0.21627673115948473
7.341436464088399,0.17512624398460186
7.3748066298342545,0.12171669170140215
7.408176795580111,0.05920689159506926
7.441546961325967,-0.005858733656547259
7.474917127071824,-0.06460381793091814
7.5082872928176805,-0.1087667641210353
7.541657458563536,-0.13405891604985637
7.575027624309393,-0.14194949043350905
7.608397790055249,-0.13868286915143035
7.641767955801106,-0.13196992309398758
7.675138121546962,-0.12722163111283816
7.708508287292818,-0.12545671861339666
7.741878453038675,-0.12393236271186649
7.775248618784531,-0.11884392248844654
7.808618784530387,-0.10824187089592545
7.841988950276244,-0.09335985395703522
7.8753591160221,-0.0777052656719673
7.908729281767957,-0.0646948143036424
7.9420994475138125,-0.055416003588634855
7.975469613259669,-0.0478791396524888
8.008839779005525,-0.03817030643557173
8.042209944751383,-0.022848795067353076
8.075580110497238,-0.0013014122375943407
8.108950276243094,0.023195399896881193
8.14232044198895,0.04433158944620141
8.175690607734808,0.05525278444997202
8.209060773480664,0.051593851965772194
8.24243093922652,0.03364167118853777
8.275801104972377,0.0065601987057050445
8.309171270718233,-0.021483244006388097
8.342541436464089,-0.042425822271534255
8.375911602209946,-0.051201136604865284
8.409281767955802,-0.047162750323816775
8.442651933701658,-0.03363565588272891
8.476022099447514,-0.016143742567488815
8.509392265193371,-0.0003318796494388502
8.542762430939227,0.009605744994897294
8.576132596685083,0.011759928168157477
8.60950276243094,0.006810677057637393
8.642872928176796,-0.001990436700589607
8.676243093922652,-0.009251493460258556
8.709613259668508,-0.008572155491819878
8.742983425414366,0.005544648702756398
8.776353591160222,0.03546061877377256
8.809723756906077,0.07878150223006054
8.843093922651935,0.12827458197047364
8.87646408839779,0.17365616698893452
8.909834254143647,0.20468769216121488
8.943204419889504,0.2143412064566845
8.97657458563536,0.20073659062938393
9.009944751381216,0.16714497544025045
9.043314917127072,0.12024842463072301
9.07668508287293,0.06756535161667401
9.110055248618785,0.015178456394455768
9.143425414364641,-0.03338340575802637
9.176795580110499,-0.07685429278008155
9.210165745856354,-0.11490833753678206
9.24353591160221,-0.14660752236385338
9.276906077348068,-0.16948702076626213
9.310276243093924,-0.17983172109315496
9.34364640883978,-0.17414499744252163
9.377016574585635,-0.15125263215713775
9.410386740331493,-0.11413364298945038
9.443756906077349,-0.07053587812507334
9.477127071823205,-0.03173110933054224
9.510497237569062,-0.009353830041418053
9.543867403314918,-0.011056167921848497
9.577237569060774,-0.03648143359452599
9.610607734806631,-0.07544383054209024
9.643977900552487,-0.10981645644646099
9.677348066298343,-0.11934513302920814
9.710718232044199,-0.08978197518769429
9.744088397790057,-0.020189497697281577
9.777458563535912,0.07408043337055574
9.810828729281768,0.16489933432967308
9.844198895027626,0.22087207451082466
9.877569060773482,0.2194855394235294
9.910939226519337,0.15688324193787814
9.944309392265193,0.050786998445372954
9.97767955801105,-0.06520669138630619
10.011049723756907,-0.1539587441626259
10.044419889502763,-0.1886787453584998
10.07779005524862,-0.16249469220248608
10.111160220994476,-0.08977655565867568
10.144530386740332,0.0009163406903224937
10.17790055248619,0.0786865824309655
10.211270718232045,0.1216002232098378
10.244640883977901,0.1229799948227412
10.278011049723757,0.09103796597623565
10.311381215469615,0.043268352667140256
10.34475138121547,-0.001159272688631606
10.378121546961326,-0.02777992450582837
10.411491712707184,-0.03012819046105954
10.44486187845304,-0.009788670946735
10.478232044198895,0.025800635817225116
10.511602209944753,0.06647684737831802
10.544972375690609,0.1023778033207489
10.578342541436465,0.12626710673704264
10.61171270718232,0.13485974359839753
10.645082872928178,0.12899285726430174
10.678453038674034,0.1126309445092453
10.71182320441989,0.09096633859747237
10.745193370165747,0.06823143083799507
10.778563535911603,0.04608010775781752
10.811933701657459,0.023302014652237895
10.845303867403315,-0.002875688270165784
10.878674033149172,-0.034410381849544036
10.912044198895028,-0.07015662645861316
10.945414364640884,-0.10497753116985874
10.978784530386742,-0.13100298114441788
11.012154696132598,-0.14072349710566368
11.045524861878453,-0.1305828415974353
11.078895027624311,-0.10331534355975501
11.112265193370167,-0.06774248926205535
11.145635359116023,-0.0359052204421553
11.179005524861878,-0.018692667394419795
11.212375690607736,-0.021878822844490855
11.245745856353592,-0.04429742290268572
11.279116022099448,-0.07885016848077132
11.312486187845305,-0.11568370779026642
11.345856353591161,-0.14589392686724792
11.379226519337017,-0.1640253384139956
11.412596685082875,-0.16844768987856062
11.44596685082873,-0.15992829920496784
11.479337016574586,-0.13965866226059093
11.512707182320442,-0.10810406498893874
11.5460773480663,-0.06531092817355946
11.579447513812156,-0.012248632667753213
11.612817679558011,0.047914373040002484
11.646187845303869,0.1095902135850548
11.679558011049725,0.165851940187636
11.71292817679558,0.21023625515336822
11.746298342541436,0.23832414553485526
11.779668508287294,0.24840474831136392
11.81303867403315,0.24113786238864401
11.846408839779006,0.218676743015589
11.879779005524863,0.18389445541574545
11.91314917127072,0.14013363426952977
11.946519337016575,0.09144847095644723
11.979889502762433,0.04289822537890278
12.013259668508288,0.00031670295990559097
12.046629834254144,-0.030780112690064997
12.08,-0.04696616915572532
12.113370165745858,-0.04862978147038075
12.146740331491714,-0.04066682122767911
12.18011049723757,-0.031405345329211215
12.213480662983427,-0.029750378447418496
12.246850828729283,-0.04145196416911033
12.280220994475139,-0.06604930858227231
12.313591160220996,-0.09603226926019921
12.346961325966852,-0.11897839073308848
12.380331491712708,-0.12215115649318532
12.413701657458564,-0.09785088771880202
12.447071823204421,-0.04727307058639491
12.480441988950277,0.018943023036939746
12.513812154696133,0.08401186969894558
12.54718232044199,0.13104608377521007
12.580552486187846,0.14945424429698775
12.613922651933702,0.13895804804316078
12.64729281767956,0.1093489328948965
12.680662983425416,0.07587419475963791
12.714033149171271,0.0521058964870416
12.747403314917127,0.04342365453703848
12.780773480662985,0.044180246992378075
12.81414364640884,0.040114283556355615
12.847513812154697,0.015200243312982491
12.880883977900554,-0.04005223181635249
12.91425414364641,-0.12273581235679744
12.947624309392266,-0.21707555580160687
12.980994475138122,-0.29987992679364633
13.01436464088398,-0.3496283090630329
13.047734806629835,-0.355085906976347
13.081104972375691,-0.3194497868108668
13.114475138121549,-0.2581039963582256
13.147845303867404,-0.1911359433584453
13.18121546961326,-0.13432457686331803
13.214585635359118,-0.09302603873126004
13.247955801104974,-0.061826742207190005
13.28132596685083,-0.029774183893525027
13.314696132596685,0.011950752448138166
13.348066298342543,0.06428192796250823
13.381436464088399,0.11961477722457907
13.414806629834255,0.16648560945068408
13.448176795580112,0.1967550989916042
13.481546961325968,0.21100965170544336
13.514917127071824,0.21887249898724453
13.548287292817681,0.23379980580288648
13.581657458563537,0.2651154582911515
13.615027624309393,0.3117099521414727
13.648397790055249,0.3610149131642693
13.681767955801106,0.3939905133645621
13.715138121546962,0.3935547022802962
13.748508287292818,0.3520444365263374
13.781878453038676,0.273976704482449
13.815248618784532,0.1731158190224353
13.848618784530387,0.06597813060456004
13.881988950276245,-0.03442647764928682
13.9153591160221,-0.12147290768327702
13.948729281767957,-0.19366186882578282
13.982099447513813,-0.2509908778466853
14.01546961325967,-0.29185737255302274
14.048839779005526,-0.31261453452013593
14.082209944751382,-0.3098969925810998
14.11558011049724,-0.28396308943254955
14.148950276243095,-0.24068200067015186
14.182320441988951,-0.19067774628708825
14.215690607734807,-0.1458724695747205
14.249060773480664,-0.11516958324981832
14.28243093922652,-0.10143935487259707
14.315801104972376,-0.10116359060294143
14.349171270718234,-0.1066293631473724
14.38254143646409,-0.10932749172149162
14.415911602209945,-0.10287334260099529
14.449281767955803,-0.08438625933382082
14.482651933701659,-0.054322896684522864
14.516022099447515,-0.015544795012976722
14.54939226519337,0.02752790434727588
14.582762430939228,0.06937502005751561
14.616132596685084,0.10380784371852404
14.64950276243094,0.1249650412693531
14.682872928176797,0.12906723864950106
14.716243093922653,0.11637149410806459
14.749613259668509,0.09220241515489716
14.782983425414367,0.06602052285505706
14.816353591160222,0.048305612968884325
14.849723756906078,0.046223029144692625
14.883093922651934,0.05996650037769473
14.916464088397792,0.08174382645682213
14.949834254143648,0.09838929360961192
14.983204419889503,0.09690851727538222
15.016574585635361,0.07068955109757921
15.049944751381217,0.023499371050746447
15.083314917127073,-0.03084694279281145
15.116685082872928,-0.07337962582733032
15.150055248618786,-0.08754825524138132
15.183425414364642,-0.06626556955209938
15.216795580110498,-0.015331675583931498
15.250165745856355,0.04831622148854539
15.283535911602211,0.10284649003729594
15.316906077348067,0.12967533222643798
15.350276243093925,0.12018064822684574
15.38364640883978,0.07838173094489308
15.417016574585636,0.01877300652951799
15.450386740331492,-0.03947584510975936
15.48375690607735,-0.07938253133251116
15.517127071823205,-0.09135675759238046
15.550497237569061,-0.07504191397303066
15.583867403314919,-0.037694155990413376
15.617237569060775,0.009600274971992511
15.65060773480663,0.055973247600100286
15.683977900552488,0.09353143741902677
15.717348066298344,0.11819562784586717
15.7507182320442,0.1289543988325099
15.784088397790056,0.12639741429792628
15.817458563535913,0.11138728389449193
15.85082872928177,0.08438214569981478
15.884198895027625,0.04552773458685906
15.917569060773483,-0.00463839050563289
15.950939226519338,-0.0642001033216275
15.984309392265194,-0.12904837784007053
16.01767955801105,-0.19273277258883328
16.051049723756908,-0.24730711989639467
16.084419889502765,-0.2850914534164055
16.11779005524862,-0.30077896627509265
16.151160220994477,-0.2930210164954022
16.18453038674033,-0.2647456608316504
16.21790055248619,-0.22199651547236557
16.251270718232046,-0.171761057219821
16.2846408839779,-0.11972533300744184
16.318011049723758,-0.06888859467934363
16.351381215469615,-0.019508618593260134
16.38475138121547,0.029798623701769066
16.418121546961327,0.08045367686104189
16.451491712707185,0.13253584683083744
16.48486187845304,0.1841083017779724
16.518232044198896,0.23134696991429918
16.551602209944754,0.269298482349832
16.584972375690608,0.2929837284090261
16.618342541436466,0.2985599428016971
16.651712707182323,0.2842797141832851
16.685082872928177,0.2510309221314919
16.718453038674035,0.2023412786980638
16.751823204419892,0.1438835710652497
16.785193370165747,0.08264925094831026
16.818563535911604,0.02597391042582809
16.851933701657458,-0.019511812110340688
16.885303867403316,-0.04903697989272984
16.918674033149173,-0.06089979204055479
16.952044198895027,-0.05738530732234499
16.985414364640885,-0.04477753651884734
17.018784530386743,-0.03196334568571336
17.052154696132597,-0.027736026013019492
17.085524861878454,-0.037708697540165766
17.118895027624312,-0.062186395838958575
17.152265193370166,-0.0960456195521693
