Frequency (Hz),Amplitude
0.0,2.5035040661589862
0.019823788546255508,2.5023941615299186
0.039647577092511016,2.4990658606936633
0.059471365638766524,2.493523404425305
0.07929515418502203,2.485773866142707
0.09911894273127755,2.4758271602803683
0.11894273127753305,2.4636960543867272
0.13876651982378857,2.449396185332166
0.15859030837004406,2.4329460801428815
0.17841409691629956,2.41436718211973
0.1982378854625551,2.3936838830640568
0.2180616740088106,2.370923562618877
0.2378854625550661,2.3461166359521273
0.25770925110132165,2.3192966112628968
0.27753303964757714,2.290500158895508
0.29735682819383263,2.2597671942046063
0.31718061674008813,2.227140976747904
0.3370044052863437,2.1926682289014545
0.3568281938325991,2.1563992776215994
0.37665198237885467,2.118388223838529
0.3964757709251102,2.07869314489399
0.41629955947136565,2.037376336563867
0.4361233480176212,1.994504602586262
0.4559471365638767,1.9501496012990407
0.4757709251101322,1.9043882610503298
0.49559471365638774,1.8573032785561727
0.5154185022026433,1.8089837174371923
0.5352422907488987,1.759525727868354
0.5550660792951543,1.7090334127255522
0.5748898678414097,1.6576198708965857
0.5947136563876653,1.605408454583424
0.6145374449339208,1.5525342843938188
0.6343612334801763,1.4991460735432587
0.6541850220264318,1.445408319921774
0.6740088105726874,1.3915039308401005
0.6938325991189428,1.3376373475553138
0.7136563876651982,1.28403823098442
0.7334801762114539,1.2309657492894606
0.7533039647577093,1.178713460953155
0.7731277533039648,1.1276146963461289
0.7929515418502204,1.078048182225995
0.8127753303964759,1.0304433962385675
0.8325991189427313,0.985284751169525
0.8524229074889869,0.9431131778684546
0.8722466960352424,0.9045230431261612
0.8920704845814978,0.8701517627782092
0.9118942731277534,0.840659294586872
0.931718061674009,0.8166954587347418
0.9515418502202644,0.7988552949764515
0.9713656387665199,0.7876265357659279
0.9911894273127755,0.783337795435261
1.0110132158590308,0.7861190443435232
1.0308370044052866,0.7958849180580946
1.0506607929515421,0.8123457203464519
1.0704845814977975,0.8350428933426
1.090308370044053,0.8633992475517032
1.1101321585903086,0.8967722018228937
1.1299559471365639,0.9345005869556038
1.1497797356828194,0.975939976253356
1.1696035242290752,1.0204856394062494
1.1894273127753305,1.0675848348658992
1.209251101321586,1.1167411946871608
1.2290748898678416,1.1675139281487494
1.248898678414097,1.2195140429265559
1.2687224669603525,1.2723991432310353
1.288546255506608,1.3258678055475903
1.3083700440528636,1.3796541149276347
1.3281938325991192,1.433522662316193
1.3480176211453747,1.4872641266981226
1.36784140969163,1.5406914631681619
1.3876651982378856,1.593636663440283
1.4074889867841411,1.6459480301522664
1.4273127753303965,1.6974878981720138
1.4471365638766522,1.7481307371517365
1.4669603524229078,1.7977615750932876
1.4867841409691631,1.8462746899752036
1.5066079295154187,1.8935725240698906
1.5264317180616742,1.9395647827025977
1.5462555066079295,1.984167685547654
1.5660792951541853,2.027303344027235
1.5859030837004409,2.0688992429992794
1.6057268722466962,2.108887808774597
1.6255506607929517,2.1472060486890743
1.6453744493392073,2.1837952500764297
1.6651982378854626,2.218600728634914
1.6850220264317182,2.2515716179392413
1.7048458149779737,2.282660693287709
1.7246696035242293,2.3118242242527525
1.7444933920704848,2.3390218512693446
1.7643171806167404,2.364216482389903
1.7841409691629957,2.3873742069884396
1.8039647577092512,2.408464223738147
1.8237885462555068,2.427458780635073
1.8436123348017623,2.444333125215538
1.863436123348018,2.459065463428062
1.8832599118942732,2.471636925885979
1.9030837004405288,2.482031540451624
1.9229074889867843,2.4902362102963056
1.9427312775330399,2.496240696748155
1.9625550660792954,2.50003760638714
1.982378854625551,2.501622381979143
2.002202643171806,2.5009932969607944
2.0220264317180616,2.4981514532994833
2.041850220264317,2.493100782660097
2.061674008810573,2.4858480509154144
2.0814977973568287,2.4764028661432644
2.1013215859030843,2.46477769036367
2.1211453744493394,2.450987855386024
2.140969162995595,2.4350515832636535
2.1607929515418505,2.4169900119941246
2.180616740088106,2.396827227262752
2.2004405286343616,2.374590301209653
2.220264317180617,2.350309339411623
2.2400881057268722,2.3240175375181247
2.2599118942731278,2.2957512492728185
2.2797356828193833,2.2655500679992002
2.299559471365639,2.2334569240441833
2.319383259911895,2.1995182011714975
2.3392070484581504,2.1637838754975607
2.3590308370044055,2.1263076812885893
2.378854625550661,2.087147308818435
2.3986784140969166,2.046364640556871
2.418502202643172,2.004026033259466
2.4383259911894277,1.9602026551159468
2.4581497797356833,1.9149708890426196
2.4779735682819384,1.8684128155492343
2.497797356828194,1.8206167914510405
2.5176211453744495,1.77167814411957
2.537444933920705,1.7217000050563467
2.5572687224669606,1.6707943114001547
2.577092511013216,1.6190830095616584
2.5969162995594717,1.5666995014412528
2.6167400881057272,1.5137903803588986
2.6365638766519828,1.4605175102948362
2.6563876651982383,1.4070605071033337
2.676211453744494,1.3536196818174382
2.6960352422907494,1.3004195002125751
2.715859030837005,1.2477125931462758
2.73568281938326,1.1957843088741826
2.7555066079295156,1.1449577165403237
2.775330396475771,1.0955988282709157
2.7951541850220267,1.048121579274709
2.8149779735682823,1.0029917643692607
2.834801762114538,0.9607286632278401
2.854625550660793,0.9219025284994203
2.874449339207049,0.8871255896337119
2.8942731277533045,0.8570340230142505
2.91409691629956,0.8322589068361217
2.9339207048458156,0.8133860105242158
2.953744493392071,0.8009075355841724
2.9735682819383262,0.7951729550469633
2.993392070484582,0.7963491327512076
3.0132158590308373,0.8043997648185768
3.033039647577093,0.8190898771849823
3.0528634361233484,0.8400140989173612
3.072687224669604,0.8666410377880823
3.092511013215859,0.8983631976203417
3.1123348017621146,0.9345430549235865
3.1321585903083706,0.9745495476380153
3.151982378854626,1.0177831418592187
3.1718061674008817,1.063690433138676
3.1916299559471373,1.1117705841968322
3.2114537444933924,1.1615761413810253
3.231277533039648,1.2127104149941699
3.2511013215859035,1.264823050775984
3.270925110132159,1.317604884786197
3.2907488986784146,1.3707827505088472
3.31057268722467,1.4241146077523064
3.3303964757709252,1.4773851680499257
3.350220264317181,1.5304020730577226
3.3700440528634363,1.5829926159869614
3.389867841409692,1.6350009624683766
3.4096916299559474,1.6862858133045322
3.4295154185022034,1.7367184487827232
3.4493392070484585,1.7861810972891565
3.469162995594714,1.8345655767242712
3.4889867841409696,1.8817721638760039
3.508810572687225,1.9277086534970616
3.5286343612334807,1.9722895748866625
3.5484581497797363,2.0154355391071133
3.5682819383259914,2.0570726945360955
3.588105726872247,2.0971322723100267
3.6079295154185025,2.1355502064275527
3.627753303964758,2.172266815943392
3.6475770925110136,2.2072265388769026
3.667400881057269,2.2403777092630897
3.6872246696035247,2.2716723702559074
3.7070484581497802,2.3010661174109672
3.726872246696036,2.3285179672752814
3.7466960352422913,2.3539902472365295
3.7665198237885464,2.377448503264408
3.7863436123348024,2.39886142274028
3.8061674008810575,2.4182007700394754
3.8259911894273135,2.435441332921244
3.8458149779735686,2.45056087810896
3.8656387665198246,2.4635401147197817
3.8854625550660797,2.474362664438022
3.905286343612335,2.483015037527937
3.925110132158591,2.48948661395673
3.9449339207048464,2.4937696290518545
3.964757709251102,2.4958591632539258
3.9845814977973575,2.4957531356510514
4.004405286343612,2.4934523010960503
4.024229074889869,2.488960250818168
4.044052863436123,2.482283416548243
4.06387665198238,2.473431078284014
4.083700440528634,2.4624153759330993
4.103524229074891,2.449251325188291
4.123348017621146,2.4339568381164374
4.143171806167401,2.4165527490816827
4.162995594713657,2.3970628467805972
4.182819383259912,2.375513913345476
4.2026431718061685,2.3519357716778706
4.222466960352423,2.3263613424145992
4.242290748898679,2.298826712210516
4.262114537444934,2.2693712153556094
4.28193832599119,2.238037531140817
4.301762114537445,2.2048717998608667
4.321585903083701,2.1699237609104696
4.3414096916299565,2.1332469171138593
4.361233480176212,2.0948987302517046
4.381057268722468,2.054940853744117
4.400881057268723,2.0134394096514447
4.420704845814979,1.9704653186071823
4.440528634361234,1.9260946930524778
4.46035242290749,1.880409306253936
4.4801762114537445,1.8334971521200967
4.500000000000001,1.7854531138488683
4.5198237885462555,1.7363797629936746
4.539647577092512,1.6863883146609713
4.559471365638767,1.635599769222395
4.579295154185023,1.584146276015342
4.599118942731278,1.5321727597005004
4.618942731277533,1.4798388546078654
4.63876651982379,1.4273211953546499
4.658590308370044,1.3748161112106714
4.678414096916301,1.322542763702147
4.6982378854625555,1.2707467463131634
4.718061674008811,1.2197041234613062
4.737885462555067,1.1697258109362356
4.757709251101322,1.1211620750851572
4.777533039647578,1.0744067332328582
4.797356828193833,1.0299003544383292
4.817180616740089,0.9881313820819912
4.837004405286344,0.9496336585835926
4.856828193832599,0.9149784308507279
4.876651982378855,0.8847587678257858
4.896475770925111,0.859564763705524
4.9162995594713665,0.8399492979705927
4.936123348017622,0.8263866235296822
4.955947136563877,0.8192292203866463
4.975770925110133,0.8186709587834909
4.995594713656388,0.8247250275624772
5.015418502202644,0.8372223159974276
5.035242290748899,0.8558306888346138
5.055066079295155,0.8800901434354149
5.07488986784141,0.9094555999672843
5.094713656387666,0.9433390351854234
5.114537444933921,0.9811450490123171
5.134361233480177,1.0222971337933227
5.154185022026432,1.0662545665179952
5.174008810572688,1.1125214108646333
5.193832599118943,1.160649681268836
5.213656387665199,1.2102386388010713
5.2334801762114544,1.260931807729894
5.25330396475771,1.3124128567019082
5.2731277533039655,1.3644010973486616
5.292951541850221,1.4166470548669583
5.312775330396477,1.4689283577237444
5.332599118942731,1.5210460593537347
5.352422907488988,1.5728214232954667
5.372246696035242,1.6240931573743045
5.392070484581499,1.6747150593647966
5.4118942731277535,1.7245540271068374
5.43171806167401,1.7734883844467844
5.451541850220265,1.8214064769454963
5.47136563876652,1.8682054958166234
5.491189427312777,1.9137904937463501
5.511013215859031,1.9580735613956517
5.530837004405288,2.00097313814689
5.550660792951542,2.042413434879063
5.570484581497798,2.0823239502060944
5.5903083700440535,2.1206390647156144
5.610132158590309,2.1572977003543956
5.6299559471365646,2.192243034283678
5.64977973568282,2.225422258337066
5.669603524229076,2.256786376711747
5.689427312775331,2.2862900357647593
5.709251101321586,2.3138913808116697
5.729074889867842,2.33955193567525
5.748898678414098,2.3632365014362646
5.768722466960353,2.384913071424652
5.788546255506609,2.4045527599775696
5.808370044052864,2.4221297428999025
5.82819383259912,2.437621207906333
5.848017621145375,2.451007313614825
5.867841409691631,2.4622711559085473
5.887665198237886,2.471398740695702
5.907488986784142,2.4783789622806833
5.927312775330397,2.4832035867215767
5.9471365638766525,2.485867239692813
5.966960352422908,2.4863673985022072
5.986784140969164,2.484704388032222
6.00660792951542,2.480881380489369
6.026431718061675,2.474904398956189
6.04625550660793,2.4667823248507252
6.066079295154186,2.456526909510421
6.085903083700441,2.4441527902356923
6.105726872246697,2.429677511254365
6.125550660792952,2.41312155020674
6.145374449339208,2.3945083509045877
6.1651982378854635,2.3738643632920327
6.185022026431718,2.3512190917351594
6.204845814977975,2.3266051529981104
6.224669603524229,2.300058345532278
6.244493392070486,2.271617732021246
6.264317180616741,2.2413257374967146
6.284140969162996,2.2092282657830666
6.303964757709252,2.175374837554078
6.323788546255507,2.1398187539123272
6.3436123348017635,2.102617290151402
6.363436123348018,2.0638319252566277
6.3832599118942746,2.0235286137710164
6.403083700440529,1.9817781079319952
6.422907488986785,1.9386563395077525
6.44273127753304,1.8942448725681853
6.462555066079296,1.8486314405541053
6.482378854625551,1.8019105834905367
6.502202643171807,1.754184404043155
6.5220264317180625,1.7055634643240702
6.541850220264318,1.6561678488351037
6.561674008810574,1.6061284225073065
6.581497797356829,1.5555883160845874
6.601321585903085,1.5047046734401035
6.62114537444934,1.4536506956692434
6.640969162995596,1.4026180131053012
6.6607929515418505,1.3518194058072956
6.680616740088107,1.3014918710750074
6.700440528634362,1.2518999965818594
6.720264317180618,1.2033395306902526
6.740088105726873,1.156140935852462
6.759911894273129,1.110672553958663
6.779735682819384,1.0673427941554066
6.799559471365639,1.0266004756993143
6.819383259911895,0.9889321496761089
6.83920704845815,0.9548549621024632
6.859030837004407,0.9249035559067112
6.8788546255506615,0.8996098592882769
6.898678414096917,0.8794756021856668
6.918502202643173,0.8649391310561545
6.938325991189428,0.8563402931370385
6.958149779735684,0.8538890921312734
6.977973568281939,0.8576444368212467
6.997797356828195,0.8675078531614641
7.01762114537445,0.8832336901001879
7.037444933920705,0.9044533719829987
7.0572687224669615,0.9307082798702814
7.077092511013216,0.9614849125185976
7.096916299559473,0.9962470021897559
7.116740088105728,1.0344613480869052
7.136563876651983,1.0756162705533425
7.156387665198239,1.1192331516953282
7.176211453744494,1.1648723528888048
7.19603524229075,1.212135028384422
7.215859030837005,1.2606622240418008
7.235682819383261,1.3101323660987203
7.255506607929516,1.3602579378261053
7.275330396475772,1.410781876280936
7.295154185022027,1.461474017710531
7.314977973568283,1.5121277762262149
7.334801762114538,1.5625571449386435
7.354625550660794,1.6125940490868318
7.374449339207049,1.6620860457356934
7.394273127753305,1.7108943458700168
7.4140969162995605,1.758892126134306
7.433920704845816,1.8059630949678431
7.453744493392072,1.8520002788061463
7.473568281938327,1.896904996699473
7.493392070484583,1.9405859951277065
7.513215859030838,1.9829587183871042
7.533039647577093,2.023944693370645
7.552863436123348,2.0634710107055283
7.572687224669605,2.1014698869874686
7.59251101321586,2.1378782952575257
7.612334801762115,2.172637652922751
7.6321585903083715,2.205693558063829
7.651982378854627,2.2369955665402603
7.671806167400882,2.2664970035331335
7.691629955947137,2.2941548041968174
7.711453744493394,2.319929378951264
7.731277533039649,2.3437844996687685
7.751101321585904,2.3656872036119396
7.7709251101321595,2.3856077124867054
7.790748898678416,2.403519364400795
7.81057268722467,2.419398556878502
7.830396475770926,2.433224699387937
7.850220264317182,2.4449801740987547
7.870044052863436,2.4546503038125813
7.889867841409693,2.4622233262033495
7.909691629955948,2.46769037367617
7.929515418502204,2.471045458305088
7.9493392070484585,2.472285461448091
7.969162995594715,2.471410127763968
7.9889867841409705,2.4684220634749283
8.008810572687224,2.4633267388331253
8.02863436123348,2.4561324948627083
8.048458149779737,2.446850554562488
8.068281938325994,2.4354950388733574
8.088105726872246,2.422082987839384
8.107929515418503,2.406634387527564
8.12775330396476,2.389172203420159
8.147577092511014,2.369722421161146
8.167400881057269,2.348314095727179
8.187224669603525,2.3249794103102572
8.207048458149782,2.2997537464492415
8.226872246696036,2.272675767238
8.246696035242293,2.243787515777002
8.266519823788547,2.2131345314326754
8.286343612334802,2.1807659869365974
8.306167400881058,2.1467348499066756
8.325991189427315,2.1110980730209294
8.345814977973568,2.0739168178383203
8.365638766519824,2.0352567181591597
8.38546255506608,1.9951881898701902
8.405286343612337,1.9537867954470585
8.42511013215859,1.9111336727084185
8.444933920704846,1.8673160390419516
8.464757709251103,1.8224277841561793
8.484581497797357,1.7765701664268154
8.504405286343614,1.729852630042574
8.524229074889869,1.6823937622840586
8.544052863436125,1.634322412156448
8.56387665198238,1.5857789928449575
8.583700440528636,1.536916990420651
8.60352422907489,1.4879046988663303
8.623348017621145,1.4389271952476281
8.643171806167402,1.390188556392516
8.662995594713658,1.341914296425871
8.682819383259913,1.2943539683750325
8.702643171806168,1.2477838169721207
8.722466960352424,1.2025092869922918
8.74229074889868,1.1588670756764994
8.762114537444935,1.1172262661492525
8.78193832599119,1.077987897532478
8.801762114537446,1.0415821409483177
8.821585903083701,1.0084621121197068
8.841409691629957,0.9790933516118291
8.861233480176212,0.9539382659745507
8.881057268722468,0.9334354674804668
8.900881057268723,0.917975018019987
8.92070484581498,0.9078719335778491
8.940528634361234,0.9033415530467963
8.960352422907489,0.9044809584738491
8.980176211453745,0.9112600766296077
9.000000000000002,0.923524336574795
9.019823788546258,0.941008323780183
9.039647577092511,0.9633576424194613
9.059471365638768,0.9901549454424907
9.079295154185024,1.0209460826108079
9.099118942731279,1.055263269342346
9.118942731277533,1.0926435378811643
9.13876651982379,1.13264199201757
9.158590308370046,1.174840271308947
9.1784140969163,1.218851093197042
9.198237885462555,1.26431987025373
9.218061674008812,1.3109243238148802
9.237885462555067,1.3583728456243596
9.257709251101323,1.4064021695919529
9.27753303964758,1.4547747454556672
9.297356828193834,1.503276069997577
9.317180616740089,1.5517121307752124
9.337004405286345,1.5999070471493635
9.356828193832602,1.6477009469255273
9.376651982378855,1.6949480877183227
9.396475770925111,1.7415152148890742
9.416299559471367,1.7872801385899266
9.436123348017622,1.8321305082050034
9.455947136563877,1.8759627613450616
9.475770925110133,1.9186812252168037
9.49559471365639,1.9601973498123613
9.515418502202644,2.000429054420672
9.5352422907489,2.0393001711362824
9.555066079295155,2.0767399711513894
9.57488986784141,2.1126827615702237
9.594713656387666,2.1470675422384615
9.614537444933923,2.1798377136245306
9.634361233480178,2.2109408281302545
9.654185022026432,2.24032837836257
9.674008810572689,2.2679556168846156
9.693832599118945,2.293781402805186
9.713656387665198,2.3177680712797435
9.733480176211454,2.339881322602452
9.75330396475771,2.3600901280836384
9.773127753303967,2.37836665034465
9.792951541850222,2.3946861760351505
9.812775330396477,2.4090270592967
9.832599118942733,2.421370674570564
9.852422907488988,2.4317013775840848
9.872246696035244,2.440006473556505
9.892070484581499,2.4462761918457163
9.911894273127754,2.4505036664188804
9.93171806167401,2.4526849216747224
9.951541850220266,2.4528188632783126
9.971365638766521,2.4509072737932964
9.991189427312776,2.446954813014518
10.011013215859032,2.440969023019598
10.030837004405289,2.432960338072436
10.050660792951543,2.4229420996290103
10.070484581497798,2.4109305768182248
10.090308370044054,2.396944992900284
10.11013215859031,2.3810075583464365
10.129955947136565,2.363143511338837
10.14977973568282,2.343381166662366
10.169603524229077,2.3217519741551573
10.189427312775331,2.2982905881059494
10.209251101321588,2.2730349492397064
10.229074889867842,2.246026381223946
10.248898678414099,2.2173097039633913
10.268722466960353,2.1869333663380197
10.28854625550661,2.154949601487026
10.308370044052865,2.121414608257377
10.32819383259912,2.0863887630304516
10.348017621145376,2.0499368668214104
10.367841409691632,2.0121284333220633
10.387665198237887,1.9730380244330037
10.407488986784141,1.932745640803308
10.427312775330398,1.8913371759564421
10.447136563876654,1.848904943700546
10.466960352422909,1.805548289648801
10.486784140969164,1.7613742987181462
10.50660792951542,1.7164986112805924
10.526431718061675,1.6710463609691495
10.546255506607931,1.6251532466198142
10.566079295154186,1.578966748907061
10.585903083700442,1.5326474980917226
10.605726872246697,1.4863707917956295
10.625550660792953,1.440328249257935
10.645374449339208,1.394729569011799
10.665198237885463,1.3498043277163096
10.685022026431719,1.3058037159678508
