Time (s),Filtered Signal
0.0,-0.053471172997849585
0.03337008452774715,0.3302037546050491
0.0667401690554943,0.6406666763675383
0.10011025358324147,0.8170236047517498
0.1334803381109886,0.8235723391324881
0.16685042263873576,0.65972020757956
0.20022050716648293,0.36290778202567586
0.23359059169423008,0.0007445322829743055
0.2669606762219772,-0.3473549950901383
0.30033076074972437,-0.6132146653564015
0.3337008452774715,-0.7584252365434132
0.36707092980521866,-0.7806334852523119
0.40044101433296586,-0.7058764555289798
0.433811098860713,-0.5723954611473768
0.46718118338846015,-0.4152682768670818
0.5005512679162073,-0.25941140802771506
0.5339213524439544,-0.12224605348361398
0.5672914369717016,-0.02071862134817697
0.6006615214994487,0.025272319436862097
0.6340316060271959,-0.002004875812154064
0.667401690554943,-0.10612053388214342
0.7007717750826902,-0.2651820219819742
0.7341418596104373,-0.4300329592395041
0.7675119441381845,-0.5362895981518508
0.8008820286659317,-0.5268499483627251
0.8342521131936789,-0.37509721861578293
0.867622197721426,-0.09770709677691349
0.9009922822491732,0.24940388370840524
0.9343623667769203,0.5904508509509924
0.9677324513046675,0.855908161940802
1.0011025358324146,1.0043216094452088
1.0344726203601617,1.0316081964919148
1.0678427048879089,0.9658928029592805
1.101212789415656,0.8521375345061292
1.1345828739434032,0.7341554128957388
1.1679529584711503,0.6411211466234243
1.2013230429988975,0.5823834303791062
1.2346931275266446,0.550243709747002
1.2680632120543918,0.5272850234869277
1.301433296582139,0.49386697612702546
1.334803381109886,0.4325892423531655
1.3681734656376332,0.3290680109129953
1.4015435501653803,0.17096311303767608
1.4349136346931275,-0.05152723263227415
1.4682837192208746,-0.3413804864598014
1.5016538037486218,-0.6872215636321294
1.535023888276369,-1.0565175207133428
1.568393972804116,-1.3952256126022473
1.6017640573318634,-1.63796284052304
1.6351341418596106,-1.7276870371525073
1.6685042263873577,-1.6377727896293415
1.7018743109151049,-1.3859820604663275
1.735244395442852,-1.0319476924838473
1.7686144799705992,-0.6570871403761154
1.8019845644983463,-0.3347071149539282
1.8353546490260935,-0.1035402555782625
1.8687247335538406,0.043152031379040966
1.9020948180815878,0.14809841497704135
1.935464902609335,0.26514205030995025
1.968834987137082,0.4311941072957357
2.002205071664829,0.6482884081523392
2.0355751561925763,0.8835031494987128
2.0689452407203235,1.0854809590768022
2.1023153252480706,1.2084317137110516
2.1356854097758178,1.231687110512031
2.169055494303565,1.1661045347059447
2.202425578831312,1.0457718842273658
2.235795663359059,0.910646160545502
2.2691657478868064,0.7894060141703477
2.3025358324145535,0.6904505456980102
2.3359059169423007,0.6038443035561297
2.369276001470048,0.5111350506847211
2.402646085997795,0.396487586025599
2.436016170525542,0.25304431841227576
2.4693862550532892,0.08214946923142201
2.5027563395810364,-0.11231614403672248
2.5361264241087835,-0.32940147585395674
2.5694965086365307,-0.5716847931809734
2.602866593164278,-0.8396335014267979
2.636236677692025,-1.1225768750921168
2.669606762219772,-1.3919130567435427
2.7029768467475193,-1.6019142936978945
2.7363469312752664,-1.7002154186478848
2.7697170158030135,-1.6452885588612605
2.8030871003307607,-1.4241975403266993
2.836457184858508,-1.062675573108003
2.869827269386255,-0.6219027912150793
2.903197353914002,-0.18154768357419623
2.9365674384417493,0.18538457606842026
2.9699375229694964,0.4362133805302182
3.0033076074972436,0.5708647847214544
3.0366776920249907,0.6271440735951329
3.070047776552738,0.6605722303776888
3.103417861080485,0.7173853772967079
3.136787945608232,0.8127500473981003
3.1701580301359793,0.9241688871108722
3.203528114663727,1.0031120092566455
3.236898199191474,0.9993237563461663
3.270268283719221,0.8862629799229329
3.3036383682469683,0.6757713146465535
3.3370084527747155,0.4154701573125549
3.3703785373024626,0.1706978634788226
3.4037486218302098,-0.0002754419949569044
3.437118706357957,-0.06681102451676933
3.470488790885704,-0.034419353941219685
3.503858875413451,0.06036969123169408
3.5372289599411983,0.16458979148074304
3.5705990444689455,0.2259927243744798
3.6039691289966926,0.20681648238698214
3.63733921352444,0.0912500186420534
3.670709298052187,-0.11330069404907789
3.704079382579934,-0.37941771491820825
3.7374494671076812,-0.6654965475961044
3.7708195516354284,-0.9229768231894746
3.8041896361631755,-1.1043416708215201
3.8375597206909227,-1.1713507294623775
3.87092980521867,-1.1026117412525307
3.904299889746417,-0.8990645268210262
3.937669974274164,-0.5856620234058487
3.9710400588019112,-0.20788255269926517
4.004410143329658,0.17711743310085648
4.0377802278574055,0.5131234090130717
4.071150312385153,0.7579565122008066
4.1045203969129,0.8929463063854216
4.137890481440647,0.9253947844426904
4.171260565968394,0.8828199410518094
4.204630650496141,0.8007222464289216
4.238000735023888,0.7082538792971631
4.2713708195516356,0.6173702073929245
4.304740904079383,0.5200816120434255
4.33811098860713,0.39534795709551146
4.371481073134877,0.2229746233356673
4.404851157662624,-0.0016646549031848117
4.438221242190371,-0.2593216319855792
4.471591326718118,-0.5099046827669576
4.504961411245866,-0.7067060022661155
4.538331495773613,-0.8160527500853464
4.57170158030136,-0.8331800821202751
4.605071664829107,-0.7859111445157838
4.638441749356854,-0.7228785208798658
4.671811833884601,-0.6904818092256105
4.7051819184123485,-0.7090087843889238
4.738552002940096,-0.759930160087992
4.771922087467843,-0.7918702651315772
4.80529217199559,-0.7438304332487596
4.838662256523337,-0.5752188777881034
4.872032341051084,-0.287992885013227
4.905402425578831,0.07054208663450245
4.9387725101065785,0.4262353100140317
4.972142594634326,0.7089442089975398
5.005512679162073,0.8804249594910889
5.03888276368982,0.945778174213091
5.072252848217567,0.943988653616289
5.105622932745314,0.924105331278866
5.138993017273061,0.9203641045674271
5.1723631018008085,0.9386272198648326
5.205733186328556,0.9591539546865859
5.239103270856303,0.9516805360492615
5.27247335538405,0.8931436829269056
5.305843439911797,0.7786184862229487
5.339213524439544,0.6211054171256569
5.372583608967291,0.44227137700389946
5.4059536934950385,0.2605634640357394
5.439323778022786,0.08343710498030868
5.472693862550533,-0.09274143766293035
5.50606394707828,-0.27611964114832865
5.539434031606027,-0.470576222333192
5.572804116133774,-0.669915518444273
5.606174200661521,-0.858054520628271
5.6395442851892685,-1.0145433852629058
5.672914369717016,-1.1217616461399884
5.706284454244763,-1.1695836615228772
5.73965453877251,-1.1554814898515846
5.773024623300257,-1.0814516373941854
5.806394707828004,-0.9514469951435032
5.839764792355751,-0.7724458711459238
5.873134876883499,-0.5590580630709103
5.906504961411246,-0.33777778908228956
5.939875045938993,-0.14548301151405008
5.97324513046674,-0.01920898924714904
6.006615214994487,0.020273933700632112
6.039985299522234,-0.016830024417785697
6.073355384049981,-0.08578452891212442
6.106725468577729,-0.12020580425038241
6.140095553105476,-0.058388356986599825
6.173465637633223,0.12798390485447828
6.20683572216097,0.4168055191622934
6.240205806688717,0.7399003674246938
6.273575891216464,1.008494363462031
6.3069459757442115,1.1490284397730406
6.340316060271959,1.1330178864490075
6.373686144799706,0.9871633197854904
6.407056229327454,0.7792706175209335
6.440426313855201,0.5870631110985416
6.473796398382948,0.4648989285975602
6.507166482910695,0.42382209635275975
6.540536567438442,0.433210730400542
6.5739066519661895,0.4413444379597782
6.607276736493937,0.403162639607696
6.640646821021684,0.3008618337395798
6.674016905549431,0.14783567542142917
6.707386990077178,-0.024085399358719572
6.740757074604925,-0.18526910557792142
6.774127159132672,-0.3243618264497171
6.8074972436604195,-0.4507712765523022
6.840867328188167,-0.5827941227337216
6.874237412715914,-0.7291115055533565
6.907607497243661,-0.8753184567625074
6.940977581771408,-0.9843984494193945
6.974347666299155,-1.0121770637823608
7.007717750826902,-0.9301898773579651
7.0410878353546495,-0.743840822886327
7.074457919882397,-0.4957089021042122
7.107828004410144,-0.25129685117476813
7.141198088937891,-0.07339489276314046
7.174568173465638,0.0031297070213140883
7.207938257993385,-0.015297088604082715
7.241308342521132,-0.08494155362432088
7.27467842704888,-0.14355610505297445
7.308048511576627,-0.1352943578925106
7.341418596104374,-0.03143550566236418
7.374788680632121,0.16049266152110309
7.408158765159868,0.40124514458138355
7.441528849687615,0.6349419877233666
7.4748989342153624,0.8084836631312287
7.50826901874311,0.8885008037807784
7.541639103270857,0.8705054022073457
7.575009187798604,0.7776505053825504
7.608379272326351,0.6498279688694095
7.641749356854098,0.5270366241878784
7.675119441381845,0.43314470277896844
7.7084895259095925,0.366417983684367
7.74185961043734,0.30100631106560766
7.775229694965087,0.19942092923586194
7.808599779492834,0.03134777773562827
7.841969864020581,-0.20906649528836035
7.875339948548328,-0.4953555707432093
7.908710033076075,-0.7746080695726831
7.9420801176038225,-0.9854275557909454
7.97545020213157,-1.0806593536801956
8.008820286659317,-1.0450047678595475
8.042190371187063,-0.8996914390404633
8.075560455714811,-0.6922443992791034
8.108930540242557,-0.47629049110655397
8.142300624770305,-0.2908010674579165
8.175670709298052,-0.14802318828409533
8.2090407938258,-0.03475704732971079
8.242410878353546,0.0749402100005121
8.275780962881294,0.20274310587598873
8.30915104740904,0.35320178287410425
8.342521131936788,0.5106624869721946
8.375891216464534,0.6463998722025216
8.409261300992283,0.7316821126472017
8.442631385520029,0.7503930758155379
8.476001470047777,0.7058172327604736
8.509371554575523,0.6191983978739989
8.542741639103271,0.5211189317005172
8.57611172363102,0.43936762111978805
8.609481808158765,0.3881367209294638
8.642851892686513,0.3628945506545081
8.67622197721426,0.3431877403813503
8.709592061742008,0.3024323658689398
8.742962146269754,0.22055467762570663
8.776332230797502,0.09364862023695948
8.809702315325248,-0.0641729730060583
8.843072399852996,-0.22787496491306475
8.876442484380743,-0.37399178541159456
8.90981256890849,-0.49185068782158586
8.943182653436237,-0.5872998406972151
8.976552737963985,-0.6766676319471585
9.009922822491731,-0.7740159298813306
9.04329290701948,-0.8785314724277369
9.076662991547225,-0.9691187472318572
9.110033076074973,-1.009855779206328
9.14340316060272,-0.9646713954592452
9.176773245130468,-0.8149140957123328
9.210143329658214,-0.5715793549464347
9.243513414185962,-0.2758111262023694
9.276883498713708,0.013741182407626933
9.310253583241456,0.24211594435630723
9.343623667769203,0.37885370248241584
9.37699375229695,0.42904327009602183
9.410363836824697,0.4291762342514905
9.443733921352445,0.4292225174259274
9.477104005880191,0.46891806164665295
9.51047409040794,0.5592981732521549
9.543844174935685,0.6782668998187701
9.577214259463434,0.7823074570973166
9.61058434399118,0.828517667838177
9.643954428518928,0.7960111604807963
9.677324513046674,0.6960624242301698
9.710694597574422,0.5660864508141571
9.744064682102168,0.4507193212566165
9.777434766629916,0.3797031626655883
9.810804851157663,0.35369097242087466
9.84417493568541,0.3448194566021693
9.877545020213157,0.31126361895607185
9.910915104740905,0.21803056199714066
9.944285189268651,0.05357313083851596
9.9776552737964,-0.16538663560553235
10.011025358324146,-0.40194471554117556
10.044395442851894,-0.6146856016636831
10.07776552737964,-0.7726560583740695
10.111135611907388,-0.8631185473344267
10.144505696435134,-0.8904356242769917
10.177875780962882,-0.8692001397490629
10.211245865490628,-0.8166257206976623
10.244615950018376,-0.7476578859247119
10.277986034546123,-0.6730141333233159
10.31135611907387,-0.5981216650569637
10.344726203601617,-0.521352083276208
10.378096288129365,-0.43243098202040414
10.411466372657111,-0.3139943736093151
10.44483645718486,-0.14864128622499906
10.478206541712606,0.06976152988270824
10.511576626240354,0.32600645138929507
10.5449467107681,0.5816771969950273
10.578316795295848,0.7852777971244257
10.611686879823594,0.8915621422152314
10.645056964351342,0.8812231198451923
10.678427048879088,0.7706714242690536
10.711797133406836,0.6061752390424971
10.745167217934583,0.44470957022338553
10.77853730246233,0.33076613569657964
10.811907386990077,0.2801384629008876
10.845277471517825,0.2775575569988385
10.878647556045571,0.28772099069189233
10.91201764057332,0.27299460502206335
10.945387725101066,0.2090089755567569
10.978757809628814,0.09190058871968688
11.01212789415656,-0.0640490968967586
11.045497978684308,-0.2350930146747956
11.078868063212054,-0.3977314048191869
11.112238147739802,-0.5350619209280234
11.145608232267548,-0.6380868803981755
11.178978316795297,-0.7032037777326652
11.212348401323043,-0.7288030533938102
11.24571848585079,-0.7137208269741045
11.279088570378537,-0.658489965466097
11.312458654906285,-0.5679710699338697
11.345828739434031,-0.4525008827148714
11.37919882396178,-0.32528406690799744
11.412568908489526,-0.19631846741324663
11.445938993017274,-0.06619021146343557
11.47930907754502,0.07559364518169873
11.512679162072768,0.2448617431532358
11.546049246600514,0.45106483374526934
11.579419331128262,0.6853385208513807
11.612789415656009,0.9155053847246789
11.646159500183757,1.0924343781731316
11.679529584711503,1.1665287602512115
11.71289966923925,1.1076110353380473
11.746269753766997,0.9191297699081977
11.779639838294745,0.6397429791724372
11.813009922822491,0.330927001598302
11.84638000735024,0.05558886108806849
11.879750091877986,-0.14332355754539972
11.913120176405734,-0.2553891473474616
11.94649026093348,-0.3018050244966485
11.979860345461228,-0.32240840880713073
12.013230429988974,-0.3570489398054636
12.046600514516722,-0.4294420118555572
12.079970599044469,-0.5395766307841018
12.113340683572217,-0.6663396637157618
12.146710768099963,-0.7776093052924723
12.180080852627711,-0.8426416864929834
12.213450937155457,-0.8418083759237778
12.246821021683205,-0.7709459259079843
12.280191106210951,-0.64030977152326
12.3135611907387,-0.4700526910845815
12.346931275266446,-0.28466021073166403
12.380301359794194,-0.10809162178383465
12.41367144432194,0.03976699940534322
12.447041528849688,0.14556668270959028
12.480411613377434,0.2042420390520453
12.513781697905182,0.21997468236253398
12.547151782432929,0.20580855873541679
12.580521866960677,0.1812970904645126
12.613891951488423,0.16813276216703857
12.647262036016171,0.18463915239855058
12.680632120543917,0.24074604108812062
12.714002205071665,0.3351294910751927
12.747372289599411,0.4554570044173104
12.78074237412716,0.5814876500237707
12.814112458654908,0.6897932493339711
12.847482543182654,0.7586255812682929
12.880852627710402,0.7719634984933541
12.914222712238148,0.7224666038497379
12.947592796765896,0.6132664314842373
12.980962881293642,0.4581090612778315
13.01433296582139,0.27894036202696004
13.047703050349137,0.1004425402883444
13.081073134876885,-0.05747986571012291
13.114443219404631,-0.18649206920327244
13.147813303932379,-0.292418141932997
13.181183388460125,-0.3914151283859003
13.214553472987873,-0.5004624509327319
13.24792355751562,-0.6260368232526446
13.281293642043368,-0.7563846942855728
13.314663726571114,-0.861715751187741
13.348033811098862,-0.9032781533982376
13.381403895626608,-0.8482016133015868
13.414773980154356,-0.6841536617938584
13.448144064682102,-0.4276001200093978
13.48151414920985,-0.12192261371445656
13.514884233737597,0.17428658782066078
13.548254318265345,0.4045508638001456
13.581624402793091,0.5311853294957003
13.614994487320839,0.545523170204981
13.648364571848585,0.46849226654609577
13.681734656376333,0.34185859549766495
13.71510474090408,0.2135583121677294
13.748474825431828,0.1223161005047934
13.781844909959574,0.08678231933216173
13.815214994487322,0.1026959359889593
13.848585079015068,0.14851103111110792
13.881955163542816,0.19654078531385644
13.915325248070562,0.22445930113525508
13.94869533259831,0.22216295703574762
13.982065417126057,0.19158257751975305
14.015435501653805,0.14073098814199883
14.048805586181551,0.07608963639691986
14.082175670709299,-0.002066452872230909
14.115545755237045,-0.09875322262219595
14.148915839764793,-0.21835191057141579
14.18228592429254,-0.3570763320703732
14.215656008820288,-0.498297186818789
14.249026093348034,-0.6140287168083518
14.282396177875782,-0.6730204083559219
14.315766262403528,-0.6525547835283888
14.349136346931276,-0.5487435797117297
14.382506431459023,-0.380109696742783
14.41587651598677,-0.1819379517309693
14.449246600514517,0.0067025375790503005
14.482616685042265,0.15742039308830919
14.515986769570011,0.2614897808916705
14.54935685409776,0.32907981397665853
14.582726938625505,0.3796123690056063
14.616097023153253,0.42886483979200296
14.649467107681,0.4799502148008453
14.682837192208748,0.5227643111593028
14.716207276736494,0.541473446394705
14.749577361264242,0.5251082811646565
14.782947445791988,0.47489355178932374
14.816317530319736,0.40424315309580905
14.849687614847483,0.33184486009694136
14.88305769937523,0.2722038611213924
14.916427783902977,0.22914729531089234
14.949797868430725,0.19566134753198988
14.983167952958471,0.15954784600409788
15.01653803748622,0.11116612537070271
15.049908122013965,0.04877315767432383
15.083278206541713,-0.02114037828015615
15.11664829106946,-0.08801443516008721
15.150018375597208,-0.14303511807316774
15.183388460124954,-0.1834205184364915
15.216758544652702,-0.2134942390590244
15.250128629180448,-0.24289491372247837
15.283498713708196,-0.2834689762906235
15.316868798235943,-0.3462575235060479
15.35023888276369,-0.4390278967952468
15.383608967291437,-0.5639670008927841
15.416979051819185,-0.7151114709084208
15.450349136346931,-0.8758617287387248
15.48371922087468,-1.0179800851125833
15.517089305402425,-1.1040392675010893
15.550459389930174,-1.0947271060292494
15.58382947445792,-0.9605557991114682
15.617199558985668,-0.6949100554535927
15.650569643513414,-0.32321036351333166
15.683939728041162,0.09729498337657308
15.717309812568908,0.4900631635551034
15.750679897096656,0.7821172381071728
15.784049981624403,0.9297468901180638
15.81742006615215,0.9363323430069675
15.850790150679897,0.8529620268687867
15.884160235207645,0.7589481048346046
15.917530319735391,0.7285490503110579
15.95090040426314,0.7978342864102802
15.984270488790886,0.9472702263441306
16.017640573318634,1.1093894424667057
16.05101065784638,1.1991100947487918
16.084380742374126,1.1527326685527726
16.117750826901876,0.9567302957246467
16.151120911429622,0.6522859650891842
16.18449099595737,0.3138420716961435
16.217861080485115,0.013145346200452499
16.251231165012864,-0.21272170385057365
16.28460124954061,-0.37362286750599666
16.317971334068357,-0.514004799187744
16.351341418596103,-0.6835979577211082
16.384711503123853,-0.9068206343666622
16.4180815876516,-1.1660388284361345
16.451451672179346,-1.40595953913304
16.484821756707092,-1.5558743238284676
16.51819184123484,-1.5586854345919203
16.551561925762588,-1.3939052840801804
16.584932010290334,-1.085892028684651
16.61830209481808,-0.6955696621199868
16.65167217934583,-0.30027229222083207
16.685042263873576,0.030149425361529626
16.718412348401323,0.2527145221733544
16.75178243292907,0.36045650728649564
16.78515251745682,0.37949603810148164
16.818522601984565,0.35626298277445884
16.85189268651231,0.3401056110833377
16.885262771040058,0.3675332041963784
16.918632855567807,0.45299523434376754
16.952002940095554,0.5880378518901964
16.9853730246233,0.7473377334932484
17.018743109151046,0.8980119750088082
17.052113193678796,1.0084935980967442
17.085483278206542,1.054763577875704
17.11885336273429,1.0236670217707262
17.15222344726204,0.914232456531564
17.185593531789785,0.7378639679924803
17.21896361631753,0.5173633082578653
17.252333700845277,0.28387046049795184
17.285703785373027,0.0708350101398963
17.319073869900773,-0.09466799237104383
17.35244395442852,-0.20106823719657338
17.385814038956266,-0.25815283246719645
17.419184123484015,-0.2959399637145841
