Time (s),Filtered Signal
0.0,-0.02124841479685201
0.03337004405286344,-0.7230138566659357
0.06674008810572687,-1.3165237251402733
0.10011013215859031,-1.7313158237239938
0.13348017621145375,-1.950090432822636
0.16685022026431717,-2.0002066910284233
0.20022026431718062,-1.9272545940211199
0.23359030837004408,-1.768142037428521
0.2669603524229075,-1.5397179301133623
0.3003303964757709,-1.2477715090973533
0.33370044052863435,-0.907487809282028
0.3670704845814978,-0.558679555326408
0.40044052863436125,-0.2622125461483811
0.43381057268722467,-0.07620940232359218
0.46718061674008815,-0.024431208591191706
0.5005506607929515,-0.07609352114712405
0.533920704845815,-0.15173834157322388
0.5672907488986785,-0.155967371224211
0.6006607929515418,-0.022612481105862028
0.6340308370044053,0.25007607067831505
0.6674008810572687,0.5928119663161004
0.7007709251101322,0.8920742067948536
0.7341409691629956,1.0387329510341552
0.767511013215859,0.9762361927433999
0.8008810572687225,0.7264341235536356
0.834251101321586,0.3818831664598658
0.8676211453744493,0.0689108033405473
0.9009911894273128,-0.10175601195108183
0.9343612334801763,-0.07587450230457049
0.9677312775330397,0.12758701435620776
1.001101321585903,0.42828764625434573
1.0344713656387665,0.7175840515649796
1.06784140969163,0.8981358141568038
1.1012114537444935,0.9146319320592287
1.134581497797357,0.765482012655264
1.1679515418502202,0.49385521540000565
1.2013215859030837,0.16478446081069634
1.2346916299559472,-0.16005730808637822
1.2680616740088106,-0.43885651896600164
1.3014317180616741,-0.6521280151268594
1.3348017621145374,-0.7939029090256206
1.3681718061674009,-0.8603213068378773
1.4015418502202643,-0.8446383484853955
1.4349118942731278,-0.7422069858560636
1.4682819383259913,-0.5613965238636379
1.5016519823788548,-0.3317146756847261
1.535022026431718,-0.10164279645129064
1.5683920704845815,0.07517639513248334
1.601762114537445,0.15981268267718945
1.6351321585903085,0.14470198782045038
1.668502202643172,0.05895340026300314
1.7018722466960352,-0.04096335751188649
1.7352422907488987,-0.09237152156124996
1.7686123348017622,-0.05169439772779878
1.8019823788546256,0.08596402738482957
1.8353524229074891,0.2814858106654947
1.8687224669603526,0.4642809484372109
1.9020925110132159,0.5592133562986646
1.9354625550660793,0.5177781620822978
1.9688325991189428,0.3404307737909011
2.002202643171806,0.07968459861610165
2.0355726872246698,-0.1785810794830205
2.068942731277533,-0.34848461310513357
2.1023127753303967,-0.37807725808826814
2.13568281938326,-0.26907236722466227
2.1690528634361232,-0.07389512140161562
2.202422907488987,0.1280253643415529
2.23579295154185,0.263485947452934
2.269162995594714,0.2934553657735095
2.302533039647577,0.2245423444286517
2.3359030837004404,0.10105880252892266
2.369273127753304,-0.01695866502003434
2.4026431718061674,-0.07978385855983239
2.436013215859031,-0.06806043385269027
2.4693832599118943,-3.1249621742901384e-06
2.5027533039647576,0.07661468069130525
2.5361233480176213,0.10515961390805517
2.5694933920704845,0.046315357991848286
2.6028634361233483,-0.1007598100777493
2.6362334801762115,-0.2926398510068163
2.6696035242290748,-0.456398827518724
2.7029735682819385,-0.520908586015931
2.7363436123348017,-0.4513719153165423
2.7697136563876654,-0.2699246445081875
2.8030837004405287,-0.050091654077141806
2.8364537444933924,0.1146700737602198
2.8698237885462556,0.15427732286992585
2.903193832599119,0.05566216057725575
2.9365638766519826,-0.130978921044242
2.969933920704846,-0.31727907113214543
3.0033039647577096,-0.4204118306026454
3.036674008810573,-0.4023456002133254
3.070044052863436,-0.28373102931613475
3.1034140969162998,-0.1255227792985244
3.136784140969163,0.010291229410784584
3.1701541850220267,0.09747032606143358
3.20352422907489,0.1579854716916182
3.2368942731277532,0.24287254318006776
3.270264317180617,0.3931976994625061
3.30363436123348,0.605044095433232
3.337004405286344,0.8205667874054209
3.370374449339207,0.9523748096018462
3.4037444933920704,0.9292690762604108
3.437114537444934,0.7384573123563204
3.4704845814977974,0.43997372565045895
3.503854625550661,0.14313638719342148
3.5372246696035243,-0.04473860215162005
3.5705947136563876,-0.07137249737010423
3.6039647577092513,0.0338991530378846
3.6373348017621145,0.17494006780726742
3.6707048458149782,0.23789202544440696
3.7040748898678415,0.14865716778074517
3.737444933920705,-0.09171640274988989
3.7708149779735685,-0.4117782273389069
3.8041850220264317,-0.7099573516545915
3.8375550660792954,-0.9061605001575982
3.8709251101321587,-0.9753785987274693
3.9042951541850224,-0.9462661640764914
3.9376651982378856,-0.8694916837876201
3.971035242290749,-0.7784742412362888
4.004405286343612,-0.6681389185823754
4.037775330396476,-0.5043162879647538
4.0711453744493395,-0.25621876783755815
4.104515418502203,0.07005606764880407
4.137885462555066,0.41921464217979015
4.171255506607929,0.7044850300568478
4.2046255506607935,0.8461414762129561
4.237995594713657,0.8097519001901659
4.27136563876652,0.623661553274686
4.304735682819383,0.36692628607499217
4.3381057268722465,0.1344827492383955
4.371475770925111,-0.002659066896544534
4.404845814977974,-0.023175251780883196
4.438215859030837,0.0435688905119591
4.4715859030837,0.13897865198569304
4.504955947136564,0.20603150995949587
4.538325991189428,0.2131012905903717
4.571696035242291,0.1602264437084213
4.605066079295154,0.06828996081401904
4.638436123348018,-0.03873557914714766
4.671806167400881,-0.14578032957470813
4.705176211453745,-0.24605908890858905
4.738546255506608,-0.3310607849417136
4.7719162995594715,-0.38169502652451864
4.805286343612335,-0.3706137089130394
4.838656387665198,-0.27751683087453677
4.872026431718062,-0.10885765911658578
4.905396475770925,0.09200817557180015
4.938766519823789,0.2544107595542308
4.972136563876652,0.3087194166918002
5.005506607929515,0.22057465369882528
5.038876651982379,0.012785283946303117
5.072246696035243,-0.23845965804347
5.105616740088106,-0.43363282902218075
5.138986784140969,-0.4928466337757094
5.172356828193832,-0.3910286022770615
5.2057268722466965,-0.16783486808194978
5.23909691629956,0.0925875737466213
5.272466960352423,0.3014916268917884
5.305837004405286,0.40462222067984627
5.3392070484581495,0.4010877293479454
5.372577092511014,0.3341238084678902
5.405947136563877,0.2613577092142709
5.43931718061674,0.2226981256234583
5.4726872246696034,0.22357942374343853
5.506057268722468,0.24071616997482784
5.539427312775331,0.24363243448035946
5.572797356828194,0.2165750666403115
5.606167400881057,0.1668998404201779
5.639537444933921,0.11603716734487748
5.672907488986785,0.0809186858423654
5.706277533039648,0.059729844800917094
5.739647577092511,0.03242486292791834
5.7730176211453745,-0.023947848481491545
5.806387665198238,-0.11551771572774203
5.839757709251102,-0.22147612502075226
5.873127753303965,-0.3018465998111257
5.9064977973568284,-0.3198836971349834
5.939867841409692,-0.26590108279923247
5.973237885462555,-0.16748833327312865
6.006607929515419,-0.07877261656806848
6.039977973568282,-0.05393186425989874
6.073348017621146,-0.11968121968954697
6.106718061674009,-0.26194902263896735
6.140088105726872,-0.4332733207366184
6.173458149779736,-0.5752895994525846
6.2068281938325995,-0.6427595561818754
6.240198237885463,-0.6165684611418057
6.273568281938326,-0.5017046480565681
6.306938325991189,-0.31625639077416456
6.3403083700440535,-0.08207965061129059
6.373678414096917,0.17589690544642614
6.40704845814978,0.4237268526460925
6.440418502202643,0.6151793162976731
6.4737885462555065,0.7002287008716969
6.507158590308371,0.6460838636553042
6.540528634361234,0.46076703198153063
6.573898678414097,0.20381844333489807
6.60726872246696,-0.026869865420474624
6.640638766519824,-0.13071859744506792
6.674008810572688,-0.048027473458947506
6.707378854625551,0.2094162195124384
6.740748898678414,0.5568853611254417
6.774118942731278,0.8671171488542685
6.807488986784141,1.0198953480097683
6.840859030837005,0.9488614099953384
6.874229074889868,0.6650936118251299
6.9075991189427315,0.24819077771173273
6.940969162995595,-0.18935679743286896
6.974339207048458,-0.5471872839970835
7.007709251101322,-0.7712994149628742
7.041079295154185,-0.8639024905761312
7.074449339207049,-0.8676382325020645
7.107819383259912,-0.8348973088065161
7.141189427312775,-0.7988963859856768
7.174559471365639,-0.7605735273738516
7.207929515418503,-0.6959472033310632
7.241299559471366,-0.5774883682144631
7.274669603524229,-0.39611981106288174
7.308039647577092,-0.17113310691247274
7.3414096916299565,0.05716510243936752
7.37477973568282,0.24732460096553946
7.408149779735683,0.37753278632162784
7.441519823788546,0.45546729687377435
7.47488986784141,0.5115696033873188
7.508259911894274,0.5791277071145153
7.541629955947137,0.6716603737865507
7.575,0.7697788046063154
7.608370044052863,0.8252937951242867
7.641740088105728,0.7819992622333249
7.675110132158591,0.6041749854247379
7.708480176211454,0.29936349288271635
7.741850220264317,-0.07626953547617855
7.775220264317181,-0.4341309432497053
7.808590308370045,-0.6850341912168024
7.841960352422908,-0.7729802243621562
7.875330396475771,-0.6957003374274607
7.9087004405286345,-0.5026260852973804
7.942070484581498,-0.2714836583050773
7.975440528634362,-0.0747450947219807
8.008810572687224,0.04830515368595296
8.042180616740088,0.1013111760458626
8.075550660792953,0.11903046634272374
8.108920704845815,0.1412627089287716
8.142290748898679,0.18670753459775308
8.175660792951541,0.2406073731470274
8.209030837004406,0.26255550003024153
8.24240088105727,0.21001372034724705
8.275770925110132,0.06466144485089348
8.309140969162996,-0.15269562514763022
8.342511013215859,-0.38659185820765335
8.375881057268723,-0.5683038739695281
8.409251101321587,-0.6432048664614711
8.44262114537445,-0.5909116122900474
8.475991189427313,-0.4299046358946089
8.509361233480176,-0.2067961589538953
8.54273127753304,0.022514831840965185
8.576101321585904,0.21054482385656623
8.609471365638766,0.32865992581208964
8.64284140969163,0.3693532554783867
8.676211453744493,0.3431320503162974
8.709581497797357,0.2732038311152753
8.742951541850221,0.18949623268930138
8.776321585903084,0.12216587282565194
8.809691629955948,0.09490462851895928
8.84306167400881,0.11936444068438408
8.876431718061674,0.192409186944821
8.909801762114538,0.2970220309205099
8.9431718061674,0.40628542510729776
8.976541850220265,0.48910454122690594
9.009911894273127,0.5166290197225457
9.043281938325991,0.4688587549558451
9.076651982378856,0.34070706659334193
9.110022026431718,0.14582379948179763
9.143392070484582,-0.08413596131718828
9.176762114537445,-0.3061929904836476
9.210132158590309,-0.4775952048217951
9.243502202643173,-0.5685012503717368
9.276872246696035,-0.5709927760163853
9.3102422907489,-0.5009438294054828
9.343612334801762,-0.3922392581511539
9.376982378854626,-0.285740333435044
9.41035242290749,-0.21689151039786472
9.443722466960352,-0.20567148203417962
9.477092511013216,-0.25130563734065564
9.510462555066079,-0.332587200691234
9.543832599118943,-0.41337359517928696
9.577202643171807,-0.4520034834106076
9.61057268722467,-0.4128200870508769
9.643942731277534,-0.2773896634061011
9.677312775330396,-0.05239759003646746
9.71068281938326,0.22886783969175228
9.744052863436124,0.5133600901430778
9.777422907488987,0.742748627069331
9.81079295154185,0.8715374426276413
9.844162995594713,0.8824095448922403
9.877533039647577,0.7922966270382443
9.910903083700441,0.6455575042902044
9.944273127753304,0.4957785082076935
9.977643171806168,0.38310753885664106
10.01101321585903,0.3170806857333452
10.044383259911895,0.27348371548985173
10.077753303964759,0.20772359681045005
10.111123348017621,0.07899479267671486
10.144493392070485,-0.12641048278477607
10.177863436123348,-0.3842782385989081
10.211233480176212,-0.6394268988373641
10.244603524229076,-0.8266961432068672
10.277973568281938,-0.8958141634859946
10.311343612334802,-0.8295300316202898
10.344713656387665,-0.649090986595788
10.378083700440529,-0.4071800000333005
10.411453744493393,-0.17227699320742296
10.444823788546255,-0.009293028633118318
10.47819383259912,0.03907317704306255
10.511563876651982,-0.03421658616958394
10.544933920704846,-0.19692856523907384
10.57830396475771,-0.3868298821641906
10.611674008810573,-0.532385334091764
10.645044052863437,-0.5776011268258557
10.678414096916299,-0.5004217915420235
10.711784140969163,-0.31636114203585713
10.745154185022027,-0.0664532639387172
10.77852422907489,0.20309861336827478
10.811894273127754,0.4582639454907443
10.845264317180618,0.6831266145172094
10.87863436123348,0.8737237967656811
10.912004405286345,1.0263817997272209
10.945374449339207,1.1295208622552593
10.978744493392071,1.164409992098367
11.012114537444935,1.1139023551776426
11.045484581497798,0.9731369568361775
11.078854625550662,0.7554198689784877
11.112224669603524,0.48985360006558143
11.145594713656388,0.21220847368777637
11.178964757709252,-0.046021609454907686
11.212334801762115,-0.2651351652715085
11.245704845814979,-0.4384938435504422
11.279074889867841,-0.5680765502440103
11.312444933920705,-0.6573401434835998
11.34581497797357,-0.7053117119053497
11.379185022026432,-0.7052672970634964
11.412555066079296,-0.6494860988499672
11.445925110132158,-0.5384711283000847
11.479295154185023,-0.38952719703136235
11.512665198237887,-0.23790845866460286
11.546035242290749,-0.1263171861789699
11.579405286343613,-0.08541416963726041
11.612775330396476,-0.11547598244663251
11.64614537444934,-0.1817544948017549
11.679515418502204,-0.2301277010376074
11.712885462555066,-0.21757888771852124
11.74625550660793,-0.14118242756479643
11.779625550660793,-0.04724548590196176
11.812995594713657,-0.011649523839410515
11.846365638766521,-0.09858054167580858
11.879735682819383,-0.318438683231557
11.913105726872248,-0.6085654413652841
11.94647577092511,-0.8503061573974566
11.979845814977974,-0.9177653780974534
12.013215859030838,-0.7366469926118473
12.0465859030837,-0.324577775433063
12.079955947136565,0.20860996570475684
12.113325991189427,0.7036678033022907
12.146696035242291,1.0194968042650476
12.180066079295155,1.0938103395933738
12.213436123348018,0.967316882622175
12.246806167400882,0.759262469265631
12.280176211453744,0.6064005517864979
12.313546255506608,0.5958543084469093
12.346916299559473,0.725048400075128
12.380286343612335,0.907460867277055
12.413656387665199,1.0192246267535734
12.447026431718061,0.9613229616088221
12.480396475770926,0.7057926575541779
12.51376651982379,0.30462148259019606
12.547136563876652,-0.1394182017147177
12.580506607929516,-0.5214091285020859
12.613876651982379,-0.7759095975674665
12.647246696035243,-0.8920594456992931
12.680616740088107,-0.8995281735678674
12.71398678414097,-0.8389820888998814
12.747356828193833,-0.7371359056500225
12.780726872246696,-0.6001636273392724
12.81409691629956,-0.4255017979579456
12.847466960352424,-0.2202271144463817
12.880837004405286,-0.01140425509751012
12.91420704845815,0.15926444045160726
12.947577092511013,0.25305045942994026
12.980947136563877,0.2528422809095556
13.014317180616741,0.17154792657160187
13.047687224669604,0.04575133965283491
13.081057268722468,-0.08120055476452968
13.11442731277533,-0.17714944886409906
13.147797356828194,-0.23105901802726667
13.181167400881058,-0.2510633857468486
13.21453744493392,-0.253257213770949
13.247907488986785,-0.24818597677176266
13.281277533039647,-0.23243559959804974
13.314647577092511,-0.1897159371029153
13.348017621145376,-0.10118219764018364
13.381387665198238,0.03959989877035284
13.414757709251102,0.21422650249991135
13.448127753303964,0.3766997119714098
13.481497797356829,0.46441405085085957
13.514867841409693,0.421306983012803
13.548237885462555,0.225111129792847
13.58160792951542,-0.0936308608707369
13.614977973568282,-0.45208674455470665
13.648348017621146,-0.7390925515796299
13.68171806167401,-0.8553056867037776
13.715088105726872,-0.7530129681399639
13.748458149779736,-0.45717301560179413
13.781828193832599,-0.05681572054698184
13.815198237885463,0.33033161795220334
13.848568281938327,0.6041723763092122
13.88193832599119,0.7184954446718758
13.915308370044054,0.6915283582211185
13.948678414096916,0.5882045032990613
13.98204845814978,0.4851387315579983
14.015418502202644,0.43629038609178467
14.048788546255507,0.45459387196089157
14.08215859030837,0.5149205746075526
14.115528634361233,0.5727505428537762
14.148898678414097,0.5867719487976951
14.182268722466961,0.534578164869167
14.215638766519824,0.416677903517533
14.249008810572688,0.250830581927947
14.28237885462555,0.06252790143376713
14.315748898678414,-0.12292688419475788
14.349118942731279,-0.28440726806903693
14.382488986784141,-0.40594994285300834
14.415859030837005,-0.4771389014940986
14.449229074889868,-0.4946232194381947
14.482599118942732,-0.4646559820490325
14.515969162995596,-0.4047894553292336
14.549339207048458,-0.3421643520760348
14.582709251101322,-0.3066870457965715
14.616079295154185,-0.319794070144647
14.649449339207049,-0.38271458316066614
14.682819383259913,-0.4705158941751402
14.716189427312775,-0.5376974327905386
14.74955947136564,-0.5365405713587688
14.782929515418502,-0.4420769055104619
14.816299559471366,-0.2713169306550992
14.84966960352423,-0.08397762175790321
14.883039647577093,0.040457033238050284
14.916409691629957,0.041660546020865816
14.94977973568282,-0.0854038389657622
14.983149779735683,-0.2779286339460036
15.016519823788547,-0.4271603615485658
15.04988986784141,-0.4279219019065429
15.083259911894274,-0.2327644865305153
15.116629955947138,0.11743506380167187
15.15,0.5048209691948801
15.183370044052865,0.7855982411727062
15.216740088105727,0.8574990251579483
15.250110132158591,0.7103321667968528
15.283480176211455,0.43316557258406874
15.316850220264318,0.17281094696378846
15.350220264317182,0.06310233919882764
15.383590308370044,0.15988931993212474
15.416960352422908,0.41413679900868533
15.450330396475772,0.6961294848218432
15.483700440528635,0.8579747968367991
15.517070484581499,0.8031653775441707
15.550440528634361,0.5300187421595081
15.583810572687225,0.13011319968665702
15.61718061674009,-0.25503051414081607
15.650550660792952,-0.49700469799966107
15.683920704845816,-0.5340933263150025
15.717290748898678,-0.3925520596746122
15.750660792951543,-0.1686307354367294
15.784030837004407,0.018031771198548124
15.817400881057269,0.0774479229228765
15.850770925110133,-0.014496982400105284
15.884140969162996,-0.21090557676196386
15.91751101321586,-0.4197507341256926
15.950881057268724,-0.5475582409478298
15.984251101321586,-0.540995765161018
16.01762114537445,-0.40846413752338445
16.050991189427315,-0.2130906425950919
16.084361233480177,-0.041166687295412674
16.11773127753304,0.03906440322780528
16.151101321585905,0.008895830725039572
16.184471365638768,-0.09413178789620678
16.21784140969163,-0.19755249762539423
16.251211453744492,-0.23256734864225412
16.284581497797358,-0.17009994801542838
16.31795154185022,-0.035655190787870515
16.351321585903083,0.10456636045701528
16.38469162995595,0.17875317168810095
16.41806167400881,0.14744954047140818
16.451431718061674,0.02528042551747188
16.48480176211454,-0.12373043138819398
16.518171806167402,-0.21416974826606097
16.551541850220264,-0.1770695231378206
16.584911894273127,0.008963866282056795
16.618281938325993,0.3054495508389229
16.651651982378855,0.6242714501165573
16.685022026431717,0.8559248694047797
16.718392070484583,0.9058709321593478
16.751762114537446,0.7273433657251273
16.785132158590308,0.3403640302298321
16.818502202643174,-0.16941440780228706
16.851872246696036,-0.6728315801955875
16.8852422907489,-1.034801527097821
16.91861233480176,-1.1564033375225335
16.951982378854627,-1.0078303100515706
16.98535242290749,-0.6401106201658815
17.01872246696035,-0.16969344562589925
17.052092511013218,0.26058186523671245
17.08546255506608,0.5311106733557938
17.118832599118942,0.5872347995663868
17.152202643171808,0.45627377578848693
17.18557268722467,0.2323442389003079
17.218942731277533,0.034733293498790674
17.2523127753304,-0.04287560643390554
17.28568281938326,0.02932066796175389
17.319052863436124,0.2079442118074982
