Frequency (Hz),Amplitude
0.0,0.19647888259308288
0.04,0.2089967970981937
0.08,0.24266598405028514
0.12,0.2901126553236455
0.16,0.3455657947080331
0.19999999999999998,0.4055846403425796
0.24,0.4682276741649405
0.27999999999999997,0.5323670444465559
0.32,0.5973093140006495
0.36,0.6626002896440908
0.39999999999999997,0.7279234291181129
0.44,0.7930450194489541
0.48,0.8577833430289383
0.52,0.9219906242252331
0.5599999999999999,0.9855420634587554
0.6,1.0483289547242738
0.64,1.1102542399543494
0.6799999999999999,1.1712295646524322
0.72,1.231173285306258
0.76,1.2900090959451287
0.7999999999999999,1.3476650668662111
0.84,1.4040729634875921
0.88,1.4591677591532861
0.9199999999999999,1.5128872844715824
0.96,1.5651719741956613
1.0,1.6159646847037608
1.04,1.665210563160477
1.0799999999999998,1.7128569548766364
1.1199999999999999,1.758853339126093
1.1600000000000001,1.8031512862899082
1.2,1.8457044310472692
1.24,1.8864684576577755
1.28,1.925401094341086
1.3199999999999998,1.962462114464894
1.3599999999999999,1.9976133427747844
1.4,2.0308186652907896
1.44,2.0620440417910557
1.48,2.0912575200284755
1.52,2.1184292509997595
1.5599999999999998,2.1435315047209142
1.5999999999999999,2.166538686068678
1.64,2.1874273503305863
1.68,2.206176218172734
1.72,2.222766189787644
1.76,2.2371803580279477
1.7999999999999998,2.2494040203671566
1.8399999999999999,2.2594246895584513
1.88,2.2672321028871916
1.92,2.2728182299342925
1.9599999999999997,2.2761772787861614
2.0,2.277305700643348
2.0399999999999996,2.276202192795226
2.08,2.2728676999419952
2.12,2.267305413858831
2.1599999999999997,2.2595207714104433
2.2,2.2495214509378405
2.2399999999999998,2.2373173670535333
2.28,2.2229206638967707
2.3200000000000003,2.20634570691754
2.36,2.187609073277379
2.4,2.16672954097734
2.44,2.1437280768496243
2.48,2.118627823580536
2.5199999999999996,2.0914540859700064
2.56,2.0622343166788224
2.6,2.0309981017712526
2.6399999999999997,1.9977771464311906
2.68,1.9626052613185083
2.7199999999999998,1.925518350144469
2.76,1.886554399188489
2.8,1.8457534696634839
2.84,1.8031576940775835
2.88,1.758811278055435
2.92,1.7127605095001774
2.96,1.6650537775355354
2.9999999999999996,1.6157416044211714
3.04,1.564876694662782
3.08,1.5125140069567857
3.1199999999999997,1.4587108565894278
3.16,1.4035270587088533
3.1999999999999997,1.3470251268994324
3.2399999999999998,1.2892705473186932
3.28,1.230332157270434
3.32,1.1702826700273743
3.36,1.109199407519745
3.4,1.0471653334254518
3.44,0.9842705285401699
3.4799999999999995,0.9206143309487096
3.52,0.8563084987925047
3.5599999999999996,0.791481986873889
3.5999999999999996,0.7262883438189518
3.64,0.6609175009361521
3.6799999999999997,0.5956151803690666
3.7199999999999998,0.5307160245695746
3.76,0.4667024028081266
3.7999999999999994,0.4043129786779215
3.84,0.3447496015960188
3.88,0.290072392836813
3.9199999999999995,0.2438853092678237
3.96,0.21205849348712627
4.0,0.2016696377856582
4.04,0.21588809980932214
4.079999999999999,0.2505227514576011
4.12,0.2984527364198547
4.16,0.3541838698011954
4.199999999999999,0.4144150806722735
4.24,0.47726038619202665
4.28,0.5416115603120267
4.319999999999999,0.6067808876461581
4.36,0.6723147123406921
4.4,0.7378952079396395
4.4399999999999995,0.80328684658229
4.4799999999999995,0.8683060497378204
4.5200000000000005,0.9328033021888706
4.56,0.9966522289633625
4.6,1.059742708685174
4.640000000000001,1.1219764081514187
4.68,1.1832638150945864
4.72,1.2435222243403705
4.76,1.3026743461819124
4.8,1.3606473301514281
4.84,1.4173720718265324
4.88,1.4727827160455618
4.92,1.5268162986695286
4.96,1.579412487511358
5.0,1.6305133951674653
5.039999999999999,1.6800634445725662
5.08,1.7280092735874557
5.12,1.7742996687132364
5.159999999999999,1.8188855206722219
5.2,1.8617197964716785
5.24,1.9027575239132986
5.279999999999999,1.9419557854892193
5.319999999999999,1.979273719323632
5.36,2.014672525351788
5.3999999999999995,2.048115475327639
5.4399999999999995,2.0795679255532895
5.48,2.108997331454107
5.52,2.1363732633008383
5.56,2.16166742251809
5.6,2.184853658126558
5.64,2.2059079829519055
5.68,2.2248085893011993
5.72,2.2415358638628025
5.76,2.256072401630166
5.8,2.2684030186867274
5.84,2.2785147637195595
5.879999999999999,2.2863969281554675
5.92,2.2920410548351775
5.96,2.295440945160885
5.999999999999999,2.2965926646696455
6.04,2.2954945470011507
6.08,2.29214719624335
6.119999999999999,2.2865534876539853
6.16,2.2787185667706047
6.2,2.2686498469366465
6.239999999999999,2.2563570052870205
6.279999999999999,2.24185197725391
6.32,2.2251489496727634
6.359999999999999,2.2062643525904253
6.3999999999999995,2.1852168499028135
6.44,2.162027328979517
6.4799999999999995,2.1367188894687374
6.52,2.1093168315192887
6.56,2.0798486437097106
6.6,2.048343991040176
6.64,2.0148347034249317
6.68,1.9793547652260766
6.72,1.9419403065005185
6.76,1.902629596799189
6.8,1.8614630425738403
6.84,1.8184831895276972
6.88,1.7737347316151473
6.92,1.727264528884209
6.959999999999999,1.6791216370084354
7.0,1.629357352236509
7.04,1.5780252766903111
7.08,1.5251814106006931
7.119999999999999,1.4708842803848878
7.16,1.4151951147400659
7.199999999999999,1.3581780856121948
7.239999999999999,1.2999006377060423
7.28,1.240433940247769
7.32,1.1798535097872545
7.359999999999999,1.1182400758667255
7.3999999999999995,1.055680797290467
7.4399999999999995,0.9922709939022222
7.4799999999999995,0.9281166519353405
7.52,0.8633381166547122
7.5600000000000005,0.7980756532308387
7.599999999999999,0.7324980290583869
7.64,0.6668161313149867
7.68,0.6013052511864698
7.719999999999999,0.5363427962232415
7.76,0.4724743762689106
7.800000000000001,0.410533393063969
7.839999999999999,0.3518615965245029
7.88,0.2987067502971033
7.92,0.25483740170142416
7.959999999999999,0.22596948184394708
8.0,0.21829235343898926
8.040000000000001,0.23395381500845422
8.08,0.2688746585675678
8.12,0.31665542382759954
8.159999999999998,0.37224453510634103
8.2,0.43248028151855183
8.24,0.4954892610994674
8.28,0.5601401779315361
8.32,0.625717575217411
8.36,0.6917436863708142
8.399999999999999,0.7578814460979383
8.44,0.8238803290097984
8.48,0.8895450654566616
8.52,0.9547169341713863
8.56,1.019262203748433
8.6,1.083064775506025
8.639999999999999,1.1460213746519723
8.68,1.208038332745637
8.72,1.2690293905824608
8.76,1.328914171375618
8.8,1.3876171039417544
8.84,1.4450666540012431
8.879999999999999,1.5011947702194748
8.92,1.5559364823204056
8.959999999999999,1.609229608442934
9.0,1.6610145419769216
9.040000000000001,1.7112340968741575
9.079999999999998,1.7598333963974133
9.12,1.8067597943987956
9.16,1.8519628211148076
9.2,1.8953941475240352
9.24,1.937007563794743
9.280000000000001,1.9767589684278117
9.32,2.014606365493886
9.36,2.050509867953313
9.399999999999999,2.08443170549016
9.44,2.1163362356269912
9.48,2.146189957143512
9.52,2.1739615250198367
9.559999999999999,2.199621766278989
9.6,2.223143696223789
9.639999999999999,2.244502534658813
9.68,2.2636757217642858
9.72,2.2806429333501894
9.76,2.2953860952689418
9.8,2.3078893968062686
9.84,2.3181393029041972
9.879999999999999,2.3261245650994136
9.92,2.3318362310852416
9.959999999999999,2.3352676528277465
10.0,2.3364144931862483
10.04,2.335274731007097
10.079999999999998,2.331848664676895
10.12,2.3261389141386264
10.16,2.3181504213913917
10.2,2.307890449512581
10.24,2.295368580260561
10.280000000000001,2.2805967103373073
10.319999999999999,2.2635890464143387
10.36,2.2443620990528172
10.4,2.222934675680787
10.44,2.199327872828741
10.48,2.1735650678703533
10.52,2.1456719105710382
10.559999999999999,2.1156763148151563
10.6,2.0836084509673287
10.639999999999999,2.0495007394291385
10.68,2.013387846085503
10.72,1.9753066805043278
10.76,1.9352963979695155
10.799999999999999,1.8933984067068563
10.84,1.849656382026158
10.879999999999999,1.8041162895799394
10.92,1.7568264205711475
10.96,1.707837442586223
11.0,1.6572024708689546
11.04,1.6049771664025472
11.08,1.5512198693059407
11.12,1.4959917790307056
11.16,1.4393571970495667
11.2,1.3813838537380094
11.24,1.3221433498630308
11.28,1.2617117559141546
11.319999999999999,1.200170431685933
11.36,1.137607157698394
11.4,1.0741177152777241
11.44,1.0098081236728034
11.48,0.9447978582228718
11.52,0.8792245648042347
11.559999999999999,0.8132511096627746
11.6,0.7470763661018229
11.64,0.6809521400987523
11.68,0.6152104564545714
11.72,0.5503087826182103
11.759999999999998,0.4869069220985268
11.799999999999999,0.42599997506388293
11.84,0.3691464565069086
11.879999999999999,0.31883130689640193
11.92,0.27889589995474284
11.96,0.25449845114764397
11.999999999999998,0.25036385962556057
12.04,0.267482153530271
12.08,0.3022352492030605
12.12,0.3493135610510173
12.16,0.40430771557134787
12.200000000000001,0.4642567995445726
12.239999999999998,0.5272956801414844
12.28,0.5922450714267589
12.32,0.658334808835102
12.36,0.725039702967382
12.4,0.7919847089438443
12.44,0.8588895944228093
12.479999999999999,0.9255358961457274
12.52,0.9917466411901881
12.559999999999999,1.0573735557884503
12.6,1.1222887851448455
12.64,1.186379404539073
12.68,1.2495437022067652
12.719999999999999,1.311688613949946
12.76,1.3727279230433544
12.799999999999999,1.4325809790016724
12.84,1.4911717746538538
12.88,1.5484282748266005
12.92,1.6042819244148943
12.959999999999999,1.658667286114878
12.999999999999998,1.711521773039313
13.04,1.7627854515304477
13.08,1.812400896409205
13.12,1.8603130857181245
13.16,1.906469325414089
13.2,1.9508191968941209
13.239999999999998,1.9933145219917814
13.28,2.033909341363607
13.32,2.0725599031315376
13.36,2.1092246593533033
13.4,2.1438642684241325
13.44,2.176441601916883
13.479999999999999,2.2069217546771567
13.52,2.2352720572289715
13.559999999999999,2.2614620897330777
13.6,2.285463696886389
13.64,2.3072510032672464
13.68,2.3268004287240767
13.719999999999999,2.3440907034801453
13.76,2.3591028826883957
13.799999999999999,2.3718203602209678
13.84,2.3822288815204895
13.88,2.3903165553763888
13.919999999999998,2.3960738645207367
13.959999999999999,2.3994936749660694
14.0,2.400571244032751
14.04,2.3993042270372875
14.08,2.3956926826355693
14.120000000000001,2.389739076837886
14.16,2.381448285735668
14.2,2.370827597004698
14.239999999999998,2.357886710276131
14.28,2.34263773649674
14.32,2.32509519643362
14.36,2.305276018518212
14.399999999999999,2.283199536270853
14.44,2.2588874856027195
14.479999999999999,2.232364002358936
14.52,2.2036556205485507
14.56,2.1727912718076996
14.6,2.1398022867673863
14.64,2.10472239915376
14.68,2.06758775364615
14.719999999999999,2.028436918768787
14.76,1.9873109064132608
14.799999999999999,1.944253200002754
14.84,1.8993097938476677
14.879999999999999,1.852529246947958
14.919999999999998,1.8039627554305635
14.959999999999999,1.7536642490546015
15.0,1.7016905188918265
15.04,1.648101385566397
15.079999999999998,1.5929599205643798
15.120000000000001,1.536332737464005
15.159999999999998,1.4782903760342425
15.199999999999998,1.4189078108175883
15.24,1.358265128300001
15.28,1.2964484350085481
15.319999999999999,1.233551085907804
15.36,1.1696753631525152
15.399999999999999,1.1049347975012151
15.439999999999998,1.0394574215564727
15.48,0.973390397367013
15.52,0.9069067080302741
15.559999999999999,0.8402150076826027
15.600000000000001,0.7735743965580565
15.639999999999999,0.7073170137419938
15.679999999999998,0.6418832183487062
15.72,0.577877165488372
15.76,0.5161550153062368
15.799999999999999,0.45796250015041495
15.84,0.40513485475565164
15.879999999999999,0.36032992381854123
15.919999999999998,0.3271137622239868
15.96,0.3094350694276673
16.0,0.31008156898575806
16.04,0.32898637196942143
16.080000000000002,0.3632841897858128
16.12,0.4090422776384933
16.16,0.4627543409581405
16.200000000000003,0.5218207158697122
16.24,0.5844483843479852
16.279999999999998,0.649418955533889
16.319999999999997,0.7158931071741074
16.36,0.7832767090289339
16.4,0.8511350868012462
16.439999999999998,0.919138989084989
16.48,0.9870303520149579
16.52,1.0546002893029904
16.56,1.1216746819687389
16.6,1.188104561530274
16.64,1.2537595710672127
16.68,1.318523440204482
16.72,1.38229080275931
16.759999999999998,1.444964925804442
16.799999999999997,1.506456068038233
16.84,1.5666802796473525
16.88,1.6255585165116289
16.919999999999998,1.6830159812934995
16.96,1.738981630350536
17.0,1.7933878032356718
17.04,1.8461699437654513
17.080000000000002,1.897266390123645
17.12,1.9466182174411957
17.16,1.994169120549552
17.2,2.039865327672251
17.24,2.0836555380549275
17.279999999999998,2.1254908781796864
17.32,2.1653248724331178
17.36,2.203113425015564
17.4,2.238814810574161
17.44,2.2723896715731913
17.48,2.3038010208239763
17.52,2.3330142479139773
17.56,2.3599971285231933
17.6,2.384719835812163
17.64,2.4071549532219088
17.68,2.4272774881518098
17.72,2.445064886083162
17.759999999999998,2.4604970447998795
17.799999999999997,2.473556328427417
17.84,2.484227581069733
17.88,2.4924981398747197
17.919999999999998,2.4983578474029366
17.96,2.501799063214504
18.0,2.5028166746260556
18.04,2.501408106625029
18.080000000000002,2.4975733309633865
18.12,2.491314874488419
18.159999999999997,2.482637826805532
18.2,2.471549847408148
18.24,2.4580611724545913
18.279999999999998,2.4421846214222818
18.32,2.423935603928001
18.36,2.4033321270712973
18.4,2.3803948037393656
18.44,2.3551468624091085
18.48,2.3276141591004227
18.52,2.2978251922790385
18.560000000000002,2.265811121685487
18.6,2.2316057922875894
18.64,2.1952457648301555
18.679999999999996,2.156770354803069
18.72,2.1162216820891957
18.759999999999998,2.073644734115071
18.799999999999997,2.029087446048422
18.84,1.9826008025190323
18.88,1.9342389665544437
18.919999999999998,1.8840594430163158
18.96,1.83212328593262
19.0,1.7784953619335502
19.04,1.723244685782025
19.080000000000002,1.666444849122041
19.119999999999997,1.608174570595443
19.159999999999997,1.5485184051899874
19.2,1.4875676642367646
19.24,1.4254216165809723
19.279999999999998,1.362189068651314
19.32,1.297990460264718
19.36,1.23296066977449
19.4,1.1672528052829048
19.44,1.1010433811440714
19.48,1.0345394602106353
19.52,0.9679886098649427
19.560000000000002,0.9016929102630148
19.6,0.8360288051365905
19.639999999999997,0.7714753103361681
19.68,0.708653880927935
19.72,0.6483835791231651
19.759999999999998,0.5917535225584233
19.8,0.5402069850246597
19.84,0.49561018411179447
19.88,0.4602353029690091
19.919999999999998,0.4365353393672731
19.96,0.4266124788788108
20.0,0.43151019549569375
20.04,0.4507777285985592
20.08,0.4826750287282505
20.119999999999997,0.5248360122988704
20.159999999999997,0.574900954434636
20.2,0.6308546503992922
20.24,0.6911081583861625
20.279999999999998,0.7544530184489112
20.32,0.8199793165967769
20.36,0.8869983086511963
20.4,0.954981289200695
20.44,1.023514695024929
20.48,1.0922681320151373
20.52,1.1609718431599927
20.560000000000002,1.2294008289418703
20.599999999999998,1.2973635928177596
20.639999999999997,1.3646940965675471
20.68,1.4312459532871178
20.72,1.4968881925501079
20.759999999999998,1.5615021408309167
20.8,1.624979101353121
20.84,1.6872186131137317
20.88,1.7481271339711326
20.92,1.8076170374257594
20.96,1.8656058437360934
21.0,1.922015627721235
21.04,1.9767725609485798
21.08,2.0298065569637367
21.119999999999997,2.08105099612187
21.159999999999997,2.130442512332147
21.2,2.177920828253636
21.24,2.223428628614721
21.279999999999998,2.266911463671359
21.32,2.308317676586673
21.36,2.3475983498578117
21.4,2.3847072669455964
21.44,2.4196008860574882
21.48,2.452238323653334
21.52,2.4825813457288213
21.56,2.510594365315602
21.599999999999998,2.5362444449432164
21.639999999999997,2.559501303054818
21.68,2.580337323569184
21.72,2.5987275679469994
21.759999999999998,2.614649789257279
21.8,2.62808444785727
21.84,2.639014728400575
21.88,2.647426557978492
21.92,2.6533086252815763
21.96,2.6566524007454513
22.0,2.6574521577196384
22.04,2.655704994772827
22.08,2.6514108593253756
22.119999999999997,2.644572572882131
22.16,2.635195858228414
22.2,2.623289369052791
22.24,2.6088647225746557
22.28,2.5919365358872395
22.32,2.572522466882137
22.36,2.550643260805627
22.4,2.5263228037172603
22.44,2.4995881843865555
22.48,2.470469766485507
22.519999999999996,2.4390012733273565
22.56,2.4052198878841025
22.599999999999998,2.3691663714097015
22.639999999999997,2.330885204733028
22.68,2.2904247572027177
22.72,2.247837489415084
22.759999999999998,2.2031801973010383
22.8,2.156514306972393
22.84,2.107906232042306
22.88,2.057427808082326
22.92,2.005156822647971
22.96,1.9511776641418452
23.0,1.8955821190095412
23.04,1.8384703547959114
23.08,1.7799521369644695
23.119999999999997,1.7201483407793294
23.16,1.659192836802762
23.2,1.5972348506511773
23.24,1.5344419256228259
23.28,1.4710036515505616
23.32,1.40713636496167
23.36,1.3430890727997575
23.400000000000002,1.279150899087581
23.44,1.2156603873611502
23.479999999999997,1.1530169821453162
23.519999999999996,1.0916949022297358
23.56,1.0322593009025538
23.599999999999998,0.9753839055680608
23.639999999999997,0.921867980096324
23.68,0.8726481658871195
23.72,0.8287974392908254
23.759999999999998,0.7914997492572782
23.8,0.7619872169973201
23.84,0.74143156268779
23.88,0.7307971464509945
23.92,0.7306876994827199
23.96,0.7412379060426286
23.999999999999996,0.7620941604204001
24.04,0.7924923134805436
24.08,0.8313982106929123
24.119999999999997,0.8776590594643477
24.16,0.9301257872302596
24.2,0.9877311596387854
24.24,1.0495276054757656
24.28,1.1146967314508012
24.32,1.1825425367849216
24.36,1.252477132464635
24.400000000000002,1.324004330978227
24.439999999999998,1.3967039088966917
24.479999999999997,1.4702177488447856
24.52,1.5442381922266368
24.56,1.6184985097778655
24.599999999999998,1.6927652253384224
24.64,1.7668319855742354
24.68,1.8405146848610063
24.72,1.9136475935440473
24.759999999999998,1.986080281483874
24.8,2.0576751693813398
24.84,2.1283055750702835
24.88,2.1978541503533386
24.92,2.2662116266105654
24.959999999999997,2.3332758052297935
24.999999999999996,2.3989507428098347
25.04,2.4631460918903514
25.08,2.5257765663443172
25.119999999999997,2.586761507076477
25.16,2.6460245287314725
25.2,2.7034932320611036
25.24,2.7590989696864345
25.28,2.812776655413651
25.32,2.864464609172537
25.36,2.9141044311583015
25.4,2.96164089995935
25.439999999999998,3.0070218904134673
25.479999999999997,3.050198307704678
25.52,3.09112403483366
25.56,3.1297558910969996
25.599999999999998,3.1660535996195396
25.64,3.1999797623184323
25.68,3.231499840952718
25.72,3.2605821431395707
25.76,3.2871978124078756
25.8,3.3113208215184646
25.84,3.3329279684143747
25.880000000000003,3.351998874278927
25.919999999999998,3.3685159832777365
25.959999999999997,3.3824645636466726
25.999999999999996,3.393832709863608
26.04,3.402611345709928
26.08,3.4087942280901355
26.119999999999997,3.41237795153603
26.16,3.4133619533774304
26.2,3.4117485196155912
26.24,3.407542791589577
26.28,3.4007527735811345
26.32,3.3913893415613816
26.36,3.3794662533440776
26.4,3.3650001604769515
26.439999999999998,3.348010622275889
26.479999999999997,3.3285201224885856
26.52,3.306554089166587
26.56,3.282140918429507
26.599999999999998,3.2553120029258302
26.64,3.226101765933635
26.68,3.19454770220616
26.72,3.1606904268555454
26.76,3.124573733788741
26.8,3.08624466546913
26.84,3.045753596083317
26.88,3.0031543305541337
26.919999999999998,2.9585042222696667
26.959999999999997,2.911864312906483
27.0,2.863299498330064
27.04,2.812878725274595
27.08,2.760675224360554
27.119999999999997,2.7067667860271043
27.16,2.6512360871672276
27.2,2.594171077689623
27.24,2.5356654379286105
27.28,2.4758191198184454
27.32,2.414738987075182
27.36,2.352539572311204
27.4,2.289343972047399
27.439999999999998,2.2252849039458438
27.479999999999997,2.1605059541510117
27.52,2.0951630461640818
27.56,2.029426165748782
27.599999999999998,1.9634813782245637
27.64,1.8975331738990588
27.68,1.8318071723418778
27.72,1.7665532036445826
27.76,1.7020487601865615
27.8,1.638602769216189
27.839999999999996,1.576559565948375
27.88,1.5163028379118422
27.919999999999998,1.4582591521824433
27.959999999999997,1.4029004590861807
28.0,1.3507446909406695
28.04,1.302353268888281
28.08,1.258324064998115
28.12,1.2192782732832397
28.16,1.1858399192901246
