Frequency (Hz),Amplitude
0.0,1.1356840911860047
0.019801980198019802,1.1351678299128876
0.039603960396039604,1.1336196633214708
0.0594059405940594,1.1310414435898735
0.07920792079207921,1.127436259349478
0.09900990099009901,1.1228084382578896
0.1188118811881188,1.1171635507455024
0.13861386138613863,1.1105084150852038
0.15841584158415842,1.1028511039853062
0.1782178217821782,1.0942009529619061
0.19801980198019803,1.084568570811746
0.21782178217821782,1.0739658525813214
0.2376237623762376,1.0624059955157705
0.25742574257425743,1.0499035185754741
0.27722772277227725,1.0364742862329082
0.297029702970297,1.022135537412747
0.31683168316831684,1.00690592062068
0.33663366336633666,0.9908055365292693
0.3564356435643564,0.9738559895624233
0.37623762376237624,0.9560804503569565
0.39603960396039606,0.9375037313969965
0.4158415841584158,0.918152378635481
0.43564356435643564,0.8980547825643421
0.45544554455445546,0.8772413130055512
0.4752475247524752,0.8557444829134833
0.495049504950495,0.8335991477618966
0.5148514851485149,0.810842748707723
0.5346534653465347,0.7875156097701919
0.5544554455445545,0.7636613018497116
0.5742574257425742,0.739327089674806
0.594059405940594,0.7145644818688921
0.613861386138614,0.6894299094522278
0.6336633663366337,0.6639855644157732
0.6534653465346534,0.6383004376499273
0.6732673267326733,0.6124516044608573
0.6930693069306931,0.58652581579364
0.7128712871287128,0.5606214630284808
0.7326732673267327,0.5348509913787587
0.7524752475247525,0.5093438365404945
0.7722772277227723,0.4842499419819487
0.7920792079207921,0.45974386356545643
0.8118811881188118,0.436029356638272
0.8316831683168316,0.41334412686842137
0.8514851485148516,0.39196405633195064
0.8712871287128713,0.37220564263830086
0.891089108910891,0.35442462210916237
0.9108910891089109,0.33900796842290626
0.9306930693069307,0.32635616698777326
0.9504950495049505,0.3168537378298514
0.9702970297029703,0.3108292917583547
0.99009900990099,0.30851176684150095
1.00990099009901,0.30999448202115176
1.0297029702970297,0.31521919901402173
1.0495049504950495,0.32398624825027245
1.0693069306930694,0.33598681958032406
1.0891089108910892,0.3508460573444376
1.108910891089109,0.3681646642478304
1.1287128712871286,0.3875510550278016
1.1485148514851484,0.408641679235271
1.1683168316831685,0.43111099644223083
1.188118811881188,0.45467411203049246
1.2079207920792079,0.47908501588298064
1.227722772277228,0.5041326409563023
1.2475247524752475,0.5296361647434491
1.2673267326732673,0.5554403543332725
1.2871287128712872,0.5814113428528556
1.3069306930693068,0.6074329805904465
1.3267326732673268,0.6334037733074002
1.3465346534653466,0.6592343584717775
1.3663366336633662,0.6848454469749652
1.3861386138613863,0.710166154636648
1.405940594059406,0.7351326537607409
1.4257425742574257,0.7596870844142006
1.4455445544554455,0.7837766750624098
1.4653465346534653,0.8073530313918866
1.4851485148514851,0.8303715600924377
1.504950495049505,0.8527910009777103
1.5247524752475248,0.874573046198504
1.5445544554455446,0.8956820296184517
1.5643564356435644,0.9160846728581701
1.5841584158415842,0.9357498772395011
1.6039603960396038,0.9546485530177324
1.6237623762376237,0.9727534789960353
1.6435643564356437,0.9900391869681935
1.6633663366336633,1.006481866507526
1.683168316831683,1.022059286473549
1.7029702970297032,1.0367507302882104
1.7227722772277227,1.0505369425789501
1.7425742574257426,1.063400085223487
1.7623762376237624,1.0753237011850842
1.782178217821782,1.086292684813184
1.801980198019802,1.0962932575177597
1.8217821782178218,1.1053129479166295
1.8415841584158414,1.1133405757120045
1.8613861386138615,1.120366238682818
1.881188118811881,1.1263813022879534
1.900990099009901,1.1313783914668523
1.920792079207921,1.1353513843017387
1.9405940594059405,1.1382954072725135
1.9603960396039604,1.1402068318937943
1.98019801980198,1.1410832725754054
2.0,1.1409235855946938
2.01980198019802,1.1397278691127537
2.0396039603960396,1.1374974642082742
2.0594059405940595,1.1342349569436077
2.0792079207920793,1.129944181518988
2.099009900990099,1.1246302246136615
2.118811881188119,1.11829943105861
2.1386138613861387,1.1109594110356147
2.1584158415841586,1.10261904905364
2.1782178217821784,1.0932885150171967
2.1980198019801978,1.0829792777752867
2.217821782178218,1.0717041216260095
2.237623762376238,1.059477166354158
2.257425742574257,1.046313891501313
2.2772277227722775,1.0322311657149905
2.297029702970297,1.0172472822012226
2.3168316831683167,1.0013820015218335
2.336633663366337,0.9846566032428445
2.3564356435643563,0.9670939482668203
2.376237623762376,0.9487185540850493
2.3960396039603964,0.9295566856852
2.4158415841584158,0.9096364654725128
2.4356435643564356,0.8889880063395253
2.455445544554456,0.8676435729931377
2.4752475247524752,0.8456377778700984
2.495049504950495,0.8230078195106758
2.514851485148515,0.7997937731973909
2.5346534653465347,0.7760389461059066
2.5544554455445545,0.7517903122824944
2.5742574257425743,0.7270990466039242
2.594059405940594,0.7020211816504994
2.6138613861386135,0.6766184172874756
2.633663366336634,0.6509591198083801
2.6534653465346536,0.6251195557115273
2.673267326732673,0.5991854142076527
2.6930693069306932,0.5732536813993535
2.712871287128713,0.5474349355193406
2.7326732673267324,0.5218561322325764
2.7524752475247527,0.4966639335276826
2.7722772277227725,0.4720285886065604
2.792079207920792,0.44814827647138794
2.811881188118812,0.42525363145667844
2.8316831683168315,0.403611847634609
2.8514851485148514,0.3835292516890524
2.8712871287128716,0.36535054820002333
2.891089108910891,0.34945221427584006
2.910891089108911,0.336227157097119
2.9306930693069306,0.32605848934782855
2.9504950495049505,0.31928294877230357
2.9702970297029703,0.31614915898224355
2.99009900990099,0.3167808218156191
3.00990099009901,0.32115653087097784
3.0297029702970297,0.329113548829782
3.0495049504950495,0.3403741107819974
3.0693069306930694,0.35458494228437415
3.089108910891089,0.37135823549751185
3.108910891089109,0.3903053308121872
3.128712871287129,0.4110594899151355
3.148514851485148,0.43328828402142733
3.1683168316831685,0.4566981325101241
3.1881188118811883,0.48103383623926943
3.2079207920792077,0.5060754135293549
3.227722772277228,0.5316338069399619
3.2475247524752473,0.5575463941280915
3.267326732673267,0.5836727895639979
3.2871287128712874,0.6098911463854961
3.3069306930693068,0.6360950115270952
3.3267326732673266,0.6621907082224164
3.346534653465347,0.68809518590905
3.366336633663366,0.713734267804131
3.386138613861386,0.7390412286865026
3.4059405940594063,0.7639556428543277
3.4257425742574257,0.7884224512157464
3.4455445544554455,0.8123912052573409
3.4653465346534653,0.8358154534706175
3.485148514851485,0.8586522424694251
3.504950495049505,0.8808617105209573
3.5247524752475248,0.9024067556649641
3.5445544554455446,0.9232527641686169
3.564356435643564,0.9433673879138275
3.5841584158415842,0.962720361579279
3.603960396039604,0.9812833522780968
3.6237623762376234,0.9990298357409537
3.6435643564356437,1.015934994270599
3.6633663366336635,1.0319756325994478
3.683168316831683,1.0471301085055338
3.702970297029703,1.0613782756221373
3.722772277227723,1.0747014363431198
3.7425742574257423,1.087082303102666
3.762376237623762,1.0985049666137763
3.7821782178217824,1.108954869898575
3.801980198019802,1.1184187871473115
3.8217821782178216,1.1268848066104387
3.841584158415842,1.134342316867165
3.8613861386138613,1.1407819959294863
3.881188118811881,1.146195802738185
3.9009900990099013,1.1505769706899547
3.9207920792079207,1.1539200029057803
3.9405940594059405,1.1562206690127534
3.96039603960396,1.1574760032662565
3.98019801980198,1.157684303889151
4.0,1.1568451335504666
4.01980198019802,1.1549593209497668
4.03960396039604,1.1520289635158458
4.0594059405940595,1.1480574312712561
4.079207920792079,1.14304937195846
4.099009900990099,1.1370107175703388
4.118811881188119,1.129948692479121
4.138613861386139,1.1218718234147749
4.158415841584159,1.1127899516085602
4.178217821782178,1.1027142474919807
4.198019801980198,1.091657228428243
4.217821782178218,1.0796327800558259
4.237623762376238,1.0666561819457496
4.257425742574258,1.0527441384204155
4.2772277227722775,1.0379148155582958
4.297029702970297,1.0221878856231592
4.316831683168317,1.0055845804177042
4.336633663366336,0.9881277553818186
4.356435643564357,0.9698419666498637
4.376237623762377,0.9507535637679531
4.3960396039603955,0.9308908013757538
4.415841584158416,0.9102839739072337
4.435643564356436,0.8889655782996526
4.455445544554455,0.8669705108678561
4.475247524752476,0.8443363059611751
4.4950495049504955,0.8211034258477539
4.514851485148514,0.7973156135555834
4.534653465346535,0.7730203232485043
4.554455445544555,0.7482692462499567
4.574257425742574,0.7231189551746349
4.594059405940594,0.6976316938995516
4.613861386138614,0.6718763473529824
4.633663366336633,0.6459296322252365
4.653465346534653,0.619877557302071
4.673267326732674,0.5938172091770992
4.693069306930693,0.5678589234866063
4.712871287128713,0.5421288994351542
4.732673267326733,0.5167722988390487
4.752475247524752,0.4919568275417797
4.772277227722772,0.46787670652142666
4.792079207920793,0.44475677243282036
4.811881188118812,0.4228561648584277
4.8316831683168315,0.4024706261856614
4.851485148514852,0.38393186367420745
4.871287128712871,0.36760181318367485
4.891089108910891,0.35385931787446534
4.910891089108912,0.34307727303368835
4.930693069306931,0.3355903606787928
4.9504950495049505,0.33165726333299894
4.97029702970297,0.3314254990633225
4.99009900990099,0.33490906795101416
5.00990099009901,0.34198647284835565
5.02970297029703,0.3524198010904972
5.0495049504950495,0.3658882713815785
5.069306930693069,0.38202615230787723
5.089108910891089,0.4004563245167858
5.108910891089109,0.4208148403383698
5.128712871287129,0.44276580858502435
5.148514851485149,0.4660083080380681
5.1683168316831685,0.49027779198737076
5.188118811881188,0.5153442242615424
5.207920792079208,0.5410086000444407
5.227722772277227,0.5670989133575022
5.247524752475248,0.5934661765710803
5.267326732673268,0.6199807922031862
5.2871287128712865,0.6465293931463103
5.306930693069307,0.6730121661354969
5.326732673267327,0.6993406233766136
5.346534653465346,0.7254357670147757
5.366336633663367,0.751226586785655
5.3861386138613865,0.7766488346265928
5.405940594059405,0.8016440266870141
5.425742574257426,0.8261586306746505
5.445544554455446,0.8501434036429041
5.465346534653465,0.873552851674711
5.485148514851486,0.8963447883103367
5.504950495049505,0.9184799730307774
5.524752475247524,0.9399218147474349
5.544554455445545,0.9606361281865965
5.564356435643565,0.9805909334157861
5.584158415841584,0.9997562906467343
5.603960396039604,1.018104163958837
5.623762376237624,1.0356083087938783
5.643564356435643,1.052244179038909
5.663366336633663,1.0679888502893224
5.683168316831684,1.0828209565075757
5.702970297029703,1.09672063779572
5.7227722772277225,1.109669497407143
5.742574257425743,1.1216505664533816
5.762376237623762,1.1326482750318763
5.782178217821782,1.1426484287215979
5.801980198019803,1.1516381895757706
5.821782178217822,1.1596060608919296
5.841584158415841,1.166541875165539
5.861386138613861,1.1724367847394377
5.881188118811881,1.1772832547514052
5.900990099009901,1.181075058059199
5.920792079207921,1.1838072718899566
5.9405940594059405,1.185476276020033
5.96039603960396,1.1860797523451563
5.98019801980198,1.1856166857502197
6.0,1.184087366234651
6.01980198019802,1.1814933922949076
6.03960396039604,1.1778376756109281
6.0594059405940595,1.1731244471301212
6.079207920792079,1.1673592646918214
6.099009900990099,1.16054902238856
6.118811881188119,1.1527019619197534
6.138613861386139,1.1438276862600216
6.158415841584159,1.133937176041066
6.178217821782178,1.1230428091346907
6.198019801980198,1.1111583840290753
6.217821782178218,1.0982991477138988
6.237623762376237,1.0844818289375897
6.257425742574258,1.0697246778771583
6.2772277227722775,1.0540475134755178
6.297029702970296,1.0374717799611402
6.316831683168317,1.0200206143821071
6.336633663366337,1.0017189273749398
6.356435643564356,0.982593499865245
6.376237623762377,0.962673098984748
6.396039603960396,0.9419886172145738
6.415841584158415,0.9205732396623497
6.435643564356436,0.8984626454931218
6.455445544554456,0.8756952509130338
6.475247524752475,0.8523125028138175
6.495049504950495,0.828359234298955
6.514851485148515,0.8038840959146375
6.534653465346534,0.7789400795898884
6.554455445544554,0.7535851561358541
6.574257425742575,0.7278830517183507
6.594059405940594,0.7019041939789005
6.6138613861386135,0.6757268642528652
6.633663366336634,0.6494385981183277
6.653465346534653,0.6231378812249865
6.673267326732673,0.596936188896263
6.693069306930694,0.5709604125432455
6.712871287128713,0.5453556968647747
6.732673267326732,0.5202886682982056
6.752475247524753,0.49595095056864996
6.772277227722772,0.4725627141155567
6.792079207920792,0.450375764885817
6.811881188118813,0.42967532263053726
6.8316831683168315,0.41077918000135505
6.851485148514851,0.3940324646622204
6.871287128712871,0.3797959904418838
6.891089108910891,0.368426606396635
6.910891089108911,0.36024952271634086
6.930693069306931,0.3555254556772538
6.9504950495049505,0.3544188093522772
6.97029702970297,0.35697512515109664
6.99009900990099,0.36311471737700735
7.00990099009901,0.37264457508956184
7.02970297029703,0.3852846203462446
7.0495049504950495,0.4007005695588125
7.069306930693069,0.418535545383786
7.089108910891089,0.4384352748085945
7.108910891089109,0.460065066456384
7.128712871287128,0.4831192277394883
7.148514851485149,0.507324736613541
7.1683168316831685,0.5324411401474186
7.188118811881187,0.5582583072270003
7.207920792079208,0.5845931831627251
7.227722772277228,0.6112862666735187
7.247524752475247,0.6381982142100542
7.267326732673268,0.665206769002906
7.287128712871287,0.6922040872252706
7.306930693069306,0.7190944645601766
7.326732673267327,0.7457924322162427
7.346534653465347,0.7722211775222578
7.366336633663366,0.7983112414046521
7.3861386138613865,0.823999447764501
7.405940594059406,0.8492280248557914
7.425742574257425,0.8739438845145386
7.445544554455446,0.8980980306397234
7.465346534653466,0.9216450733016148
7.485148514851485,0.9445428291276576
7.504950495049505,0.9667519921969336
7.524752475247524,0.9882358626265236
7.544554455445544,1.008960122442969
7.564356435643565,1.0288926502870241
7.584158415841584,1.0480033680803822
7.603960396039604,1.0662641140587856
7.623762376237624,1.0836485376054203
7.643564356435643,1.100132012149981
7.663366336633663,1.1156915630713402
7.683168316831684,1.1303058080870885
7.702970297029703,1.1439549080565665
7.7227722772277225,1.1566205264854306
7.742574257425743,1.1682857963159776
7.762376237623762,1.17893529283045
7.782178217821782,1.1885550116958588
7.801980198019803,1.1971323513453227
7.821782178217822,1.2046560990307158
7.841584158415841,1.2111164199986106
7.861386138613862,1.2165048493413593
7.881188118811881,1.2208142861606768
7.900990099009901,1.2240389897556718
7.92079207920792,1.2261745776129123
7.9405940594059405,1.227218025035392
7.96039603960396,1.227167666301496
7.980198019801979,1.2260231972963445
8.0,1.2237856796072828
8.01980198019802,1.2204575461243978
8.03960396039604,1.2160426082372955
8.05940594059406,1.210546064771852
8.07920792079208,1.2039745128675505
8.099009900990099,1.1963359610582884
8.118811881188119,1.1876398448894288
8.138613861386139,1.1778970454836193
8.158415841584159,1.1671199115597728
8.178217821782178,1.1553222855170986
8.198019801980198,1.1425195343224872
8.217821782178218,1.1287285860898744
8.237623762376238,1.1139679734195864
8.257425742574258,1.0982578847813176
8.277227722772277,1.0816202254845462
8.297029702970297,1.064078690095318
8.316831683168317,1.0456588485416451
8.336633663366337,1.0263882486168792
8.356435643564357,1.00629653816145
8.376237623762377,0.9854156109024932
8.396039603960396,0.9637797807879015
8.415841584158416,0.9414259907022489
8.435643564356436,0.9183940627399135
8.455445544554456,0.8947269987855008
8.475247524752476,0.870471342070095
8.495049504950495,0.8456776126931874
8.514851485148515,0.8204008328800954
8.534653465346535,0.7947011610210925
8.554455445544555,0.7686446573033795
8.574257425742575,0.7423042078997925
8.594059405940595,0.715760638940835
8.613861386138613,0.6891040552725899
8.633663366336634,0.6624354411453246
8.653465346534654,0.6358685584217203
8.673267326732672,0.6095321691045789
8.693069306930694,0.5835725871788102
8.712871287128714,0.5581565209550896
8.732673267326732,0.5334740882382715
8.752475247524753,0.5097417556326201
8.772277227722773,0.48720475177047595
8.792079207920791,0.4661382214564137
8.811881188118813,0.44684604036001946
8.831683168316832,0.42965587624984647
8.85148514851485,0.41490894373456777
8.871287128712872,0.40294325192534597
8.891089108910892,0.3940703147285197
8.91089108910891,0.3885473804562737
8.930693069306932,0.3865497479599622
8.950495049504951,0.38814945202342993
8.97029702970297,0.39330612382178953
8.990099009900991,0.4018727305977432
9.00990099009901,0.41361443678197607
9.029702970297029,0.4282352691289463
9.04950495049505,0.44540620062237785
9.06930693069307,0.46478960296947136
9.089108910891088,0.4860574666806914
9.10891089108911,0.5089030247055661
9.12871287128713,0.5330467869881591
9.148514851485148,0.5582384993153313
9.16831683168317,0.5842564830703899
9.188118811881187,0.6109055063124395
9.207920792079207,0.638013986610268
9.227722772277229,0.6654310290680505
9.247524752475247,0.693023585794526
9.267326732673267,0.720673879037691
9.287128712871288,0.7482771418679184
9.306930693069306,0.7757396801240588
9.326732673267326,0.8029772335009666
9.346534653465348,0.8299136024314174
9.366336633663366,0.8564795044546646
9.386138613861386,0.8826116251399503
9.405940594059407,0.9082518320245327
9.425742574257425,0.9333465241238182
9.445544554455445,0.9578460936801579
9.465346534653467,0.9817044806006793
9.485148514851485,1.004878803358691
9.504950495049505,1.0273290529713015
9.524752475247526,1.049017839045722
9.544554455445544,1.0699101788590664
9.564356435643564,1.0899733220590233
9.584158415841586,1.1091766049016596
9.603960396039604,1.1274913290278326
9.623762376237623,1.144890660665695
9.643564356435645,1.1613495468695685
9.663366336633663,1.1768446459962905
9.683168316831683,1.1913542701034787
9.702970297029704,1.2048583373508444
9.722772277227723,1.2173383328119816
9.742574257425742,1.2287772763736236
9.762376237623764,1.2391596966226746
9.782178217821782,1.2484716098075608
9.801980198019802,1.2567005031164458
9.821782178217823,1.263835321646494
9.841584158415841,1.269866458550276
9.861386138613861,1.2747857479417846
9.881188118811881,1.2785864602280355
9.900990099009901,1.2812632996061812
9.92079207920792,1.2828124035322923
9.94059405940594,1.2832313440286294
9.96039603960396,1.282519130753181
9.98019801980198,1.2806762158098293
10.0,1.2777045003315883
10.01980198019802,1.2736073429239796
10.03960396039604,1.2683895701127388
10.05940594059406,1.2620574890008647
10.07920792079208,1.2546189024064698
10.099009900990099,1.246083126826863
10.118811881188119,1.2364610136578258
10.138613861386139,1.2257649741930305
10.158415841584159,1.2140090090396662
10.178217821782178,1.2012087427163853
10.198019801980198,1.187381464353246
10.217821782178218,1.1725461755952225
10.237623762376238,1.1567236470280526
10.257425742574258,1.1399364847052755
10.277227722772277,1.1222092086678348
10.297029702970297,1.1035683457247285
10.316831683168317,1.0840425392183808
10.336633663366337,1.0636626790497277
10.356435643564357,1.042462055905627
10.376237623762377,1.0204765444400254
10.396039603960396,0.9977448211392058
10.415841584158416,0.9743086237832657
10.435643564356436,0.9502130608371228
10.455445544554454,0.9255069808016273
10.475247524752476,0.9002434135622972
10.495049504950495,0.8744800981096167
10.514851485148514,0.8482801136614412
10.534653465346535,0.8217126341271651
10.554455445544555,0.7948538288413352
10.574257425742573,0.7677879352029977
10.594059405940595,0.7406085306177783
10.613861386138614,0.7134200307795859
10.633663366336632,0.6863394368813882
