Time (s),Filtered Signal
0.0,0.03327343934598996
0.033370165745856356,-0.20793790908756885
0.06674033149171271,-0.36932677152911597
0.10011049723756907,-0.3962687923590394
0.13348066298342542,-0.2766430490122466
0.16685082872928178,-0.04240994550122718
0.20022099447513814,0.2439688257828586
0.2335911602209945,0.5125091154326186
0.26696132596685085,0.7088195995786949
0.30033149171270723,0.8085232597093908
0.33370165745856356,0.8183888569137371
0.3670718232044199,0.7656191134447901
0.4004419889502763,0.6816803731585904
0.43381215469613266,0.5885955714301527
0.467182320441989,0.4932952007574943
0.5005524861878453,0.39095819428348544
0.5339226519337017,0.27384382780739075
0.5672928176795581,0.14007160175895939
0.6006629834254145,-0.002201144899742293
0.6340331491712707,-0.13672312102585388
0.6674033149171271,-0.24552577812434484
0.7007734806629835,-0.3162433083766079
0.7341436464088398,-0.34702942259650993
0.7675138121546962,-0.3472769315220757
0.8008839779005525,-0.3342670352784349
0.8342541436464089,-0.3272888035814004
0.8676243093922653,-0.3413288121711094
0.9009944751381216,-0.3822624705545563
0.934364640883978,-0.4448892701067919
0.9677348066298344,-0.5143742993743324
1.0011049723756906,-0.5707760589116283
1.0344751381215471,-0.5954149425556396
1.0678453038674034,-0.5770592985004729
1.1012154696132597,-0.5156442620013194
1.1345856353591162,-0.42185755996145
1.1679558011049724,-0.312459442028506
1.201325966850829,-0.20312742598022784
1.2346961325966852,-0.10198639238902313
1.2680662983425415,-0.006941487556082458
1.301436464088398,0.0917229303327283
1.3348066298342542,0.20457711076804871
1.3681767955801105,0.3353812762118201
1.401546961325967,0.4763807339272217
1.4349171270718233,0.6090470219475558
1.4682872928176796,0.7100959435146287
1.501657458563536,0.7600461351656725
1.5350276243093923,0.7504079465225602
1.5683977900552488,0.6863545888653667
1.601767955801105,0.5839612750245827
1.6351381215469614,0.4636282511433904
1.6685082872928179,0.3428800880490287
1.7018784530386741,0.2316633189232938
1.7352486187845306,0.13172849591677244
1.768618784530387,0.03959064798199258
1.8019889502762432,-0.04897485960514749
1.8353591160220997,-0.13523691320525316
1.868729281767956,-0.21608501025601617
1.9020994475138122,-0.2850383770780287
1.9354696132596687,-0.33487467374354735
1.968839779005525,-0.36074702945426296
2.0022099447513813,-0.3627692893134474
2.0355801104972375,-0.3472116696156678
2.0689502762430942,-0.3255928475610692
2.1023204419889505,-0.31137153757545183
2.135690607734807,-0.31487242409380545
2.169060773480663,-0.3382633311345336
2.2024309392265193,-0.3730556438789228
2.235801104972376,-0.40197943018136467
2.2691712707182323,-0.4051507545173789
2.3025414364640886,-0.3681228339488765
2.335911602209945,-0.28810551964890413
2.369281767955801,-0.17531590699921307
2.402651933701658,-0.0488636425657481
2.436022099447514,0.07060650373558841
2.4693922651933704,0.167778655281067
2.5027624309392267,0.23595793801088202
2.536132596685083,0.2760222747251417
2.5695027624309392,0.29271436703659404
2.602872928176796,0.2910690849654226
2.636243093922652,0.2750450643994212
2.6696132596685085,0.24853607435646372
2.7029834254143648,0.21719163778767794
2.736353591160221,0.18896757397519942
2.7697237569060777,0.1722884052060777
2.803093922651934,0.17244454136398576
2.8364640883977903,0.18823563814444932
2.8698342541436466,0.2110372662098951
2.903204419889503,0.22730424989407597
2.936574585635359,0.22371291014163117
2.969944751381216,0.19272348845872822
3.003314917127072,0.13608497777958917
3.0366850828729284,0.06477592594206028
3.0700552486187846,-0.004542062549647949
3.103425414364641,-0.05513795419498342
3.1367955801104976,-0.07589819927872515
3.170165745856354,-0.06526464047889327
3.20353591160221,-0.03216456371686646
3.2369060773480665,0.006638034830162132
3.2702762430939227,0.03250950923322386
3.3036464088397794,0.03286633829033724
3.3370165745856357,0.00842506741735142
3.370386740331492,-0.023665961170164264
3.4037569060773483,-0.03380199324877467
3.4371270718232045,0.008307814703921985
3.4704972375690613,0.11714684387566199
3.5038674033149175,0.2768995438242631
3.537237569060774,0.4370096598690301
3.57060773480663,0.5231638879577598
3.6039779005524863,0.462629967669598
3.6373480662983426,0.21526435927498602
3.6707182320441993,-0.20322570473352242
3.7040883977900556,-0.7177274006297752
3.737458563535912,-1.213913311868393
3.770828729281768,-1.5753065849600822
3.8041988950276244,-1.7220720226723896
3.837569060773481,-1.6352648850686033
3.8709392265193374,-1.357001861229563
3.9043093922651937,-0.9680982572123047
3.93767955801105,-0.5545294623276563
3.9710497237569062,-0.17797615491292718
4.0044198895027625,0.13772610723300735
4.037790055248619,0.4009733986000548
4.071160220994475,0.6335502229992487
4.104530386740332,0.8498995912717633
4.1379005524861885,1.0452436272680092
4.171270718232044,1.197518190493042
4.204640883977901,1.280416941059485
4.238011049723757,1.2792420272302627
4.271381215469614,1.200428948088786
4.30475138121547,1.0696874088696116
4.338121546961326,0.9202243165683038
4.371491712707183,0.7778008978017943
4.404861878453039,0.6505978684774744
4.438232044198895,0.5286701228102314
4.471602209944752,0.3923546297974605
4.504972375690608,0.22456329312791362
4.538342541436465,0.020670272052982778
4.5717127071823205,-0.20820549192483845
4.605082872928177,-0.4389927178605701
4.638453038674034,-0.644788555878166
4.67182320441989,-0.8032437018282216
4.7051933701657465,-0.9018833156276133
4.738563535911602,-0.9390309357302664
4.771933701657459,-0.9211284235411599
4.805303867403316,-0.858563773545067
4.8386740331491715,-0.762196709250049
4.872044198895028,-0.6417808743153304
4.905414364640884,-0.5060916205657958
4.938784530386741,-0.3636135540024622
4.972154696132597,-0.22264419397072918
5.005524861878453,-0.09049942840851538
5.03889502762431,0.027537259834987966
5.072265193370166,0.12855514894457215
5.105635359116023,0.21122556957191121
5.1390055248618784,0.274415222407253
5.172375690607735,0.3163141013292858
5.205745856353592,0.3348877510913608
5.239116022099448,0.32946910388303163
5.272486187845304,0.30234709126982356
5.30585635359116,0.25903418572505127
5.339226519337017,0.2067185923662165
5.372596685082874,0.15172222615045594
5.4059668508287295,0.09766408397234658
5.439337016574586,0.045738457904134236
5.472707182320442,-0.0029200950648355867
5.506077348066299,-0.044513419947385675
5.5394475138121555,-0.07193396571295435
5.572817679558011,-0.07759062591685548
5.606187845303868,-0.05872834786042791
5.639558011049724,-0.022063615444272145
5.672928176795581,0.015829857389860365
5.706298342541437,0.03394049721982868
5.739668508287293,0.016208380513322344
5.77303867403315,-0.03965972534106097
5.806408839779006,-0.11875076745313846
5.839779005524862,-0.1931824957703968
5.873149171270718,-0.2324472941921851
5.906519337016575,-0.21523805963147882
5.939889502762432,-0.13752564460396452
5.9732596685082875,-0.013658506313854592
6.006629834254144,0.12939666858651186
6.04,0.2616654260469378
6.073370165745857,0.35949358895797207
6.1067403314917135,0.4113029426998251
6.140110497237569,0.4185034164471446
6.173480662983426,0.39230724147339385
6.206850828729282,0.3483452343243452
6.240220994475139,0.301106475337379
6.273591160220995,0.2597030312135662
6.306961325966851,0.2258155071505418
6.340331491712708,0.19414941089548657
6.373701657458564,0.1552446455139141
6.40707182320442,0.09987024752594986
6.440441988950277,0.023561422179002846
6.473812154696133,-0.07052744134233742
6.50718232044199,-0.1719294428984029
6.5405524861878455,-0.2665701490311727
6.573922651933702,-0.34240282111945625
6.607292817679559,-0.3942401921881221
6.640662983425415,-0.42513049479356957
6.674033149171271,-0.4432946795084177
6.707403314917127,-0.456133985298754
6.740773480662984,-0.4646876283170444
6.774143646408841,-0.4619222277931224
6.8075138121546965,-0.4361838885214505
6.840883977900553,-0.3781491674927454
6.874254143646409,-0.2874491169467972
6.907624309392266,-0.17515417818973425
6.9409944751381225,-0.060542979089977036
6.974364640883978,0.03627162118422075
7.007734806629835,0.10207943243318714
7.041104972375691,0.13488593165353968
7.074475138121548,0.14309199195920677
7.107845303867403,0.14063249827435803
7.14121546961326,0.141008091579014
7.174585635359117,0.1530956815166255
7.207955801104973,0.18000750476061017
7.241325966850829,0.22031199336808557
7.274696132596685,0.26987664979749615
7.308066298342542,0.32291921135957646
7.341436464088399,0.37207311076689403
7.3748066298342545,0.4083905281521359
7.408176795580111,0.4224308602054936
7.441546961325967,0.40680668700879646
7.474917127071824,0.35933460363012787
7.5082872928176805,0.2850724032618401
7.541657458563536,0.19561863016803077
7.575027624309393,0.10520623304529937
7.608397790055249,0.024868822081845796
7.641767955801106,-0.04259309569286209
7.675138121546962,-0.1038966712597076
7.708508287292818,-0.17131248385011316
7.741878453038675,-0.2546205465621052
7.775248618784531,-0.3527285860039689
7.808618784530387,-0.44961617500063605
7.841988950276244,-0.5176801546861385
7.8753591160221,-0.5279769638181137
7.908729281767957,-0.46308252411566336
7.9420994475138125,-0.3264591184651822
7.975469613259669,-0.1435392066820013
8.008839779005525,0.046333445989305486
8.042209944751383,0.20350445972963369
8.075580110497238,0.3009913440537974
8.108950276243094,0.3313636131782723
8.14232044198895,0.3054034421162893
8.175690607734808,0.24446961801019923
8.209060773480664,0.17099779591285255
8.24243093922652,0.10146324787144831
8.275801104972377,0.04392339669099177
8.309171270718233,-0.00046496845224721067
8.342541436464089,-0.03422275016239694
8.375911602209946,-0.06085061917171234
8.409281767955802,-0.08363130263576216
8.442651933701658,-0.1055189927200557
8.476022099447514,-0.12907146586840387
8.509392265193371,-0.15570481391377108
8.542762430939227,-0.18439081836310414
8.576132596685083,-0.21061772628766418
8.60950276243094,-0.2265535306338721
8.642872928176796,-0.22284455647344806
8.676243093922652,-0.19164631204028537
8.709613259668508,-0.1297575524516001
8.742983425414366,-0.04049170422235957
8.776353591160222,0.06666387003478004
8.809723756906077,0.1786107050522011
8.843093922651935,0.2823694335306116
8.87646408839779,0.3682585153264797
8.909834254143647,0.4309648154748617
8.943204419889504,0.4680185600606495
8.97657458563536,0.47674186805508284
9.009944751381216,0.4519388401442555
9.043314917127072,0.38656087543952167
9.07668508287293,0.2760029695379003
9.110055248618785,0.12422716821296892
9.143425414364641,-0.05198128078944835
9.176795580110499,-0.22422165864141527
9.210165745856354,-0.36026809806286897
9.24353591160221,-0.4358200268343766
9.276906077348068,-0.44473334955394633
9.310276243093924,-0.40219986625045506
9.34364640883978,-0.33850142026932006
9.377016574585635,-0.28579947641983433
9.410386740331493,-0.2642380003778997
9.443756906077349,-0.2741746180305306
9.477127071823205,-0.29818128026677804
9.510497237569062,-0.3113015382091998
9.543867403314918,-0.2938232069657441
9.577237569060774,-0.2398796182225115
9.610607734806631,-0.15793610357928772
9.643977900552487,-0.06391397831540288
9.677348066298343,0.02840493707173636
9.710718232044199,0.11406212839493603
9.744088397790057,0.1972613430333333
9.777458563535912,0.285800838518172
9.810828729281768,0.3833089294121157
9.844198895027626,0.4839509187423361
9.877569060773482,0.5726079119361374
9.910939226519337,0.63033933712613
9.944309392265193,0.6420575379576556
9.97767955801105,0.6023199205084999
10.011049723756907,0.5164542766411024
10.044419889502763,0.39702319500698513
10.07779005524862,0.25821150072286364
10.111160220994476,0.1115568610487449
10.144530386740332,-0.03488264819469345
10.17790055248619,-0.17436566906209042
10.211270718232045,-0.29879640394955387
10.244640883977901,-0.39825777865523027
10.278011049723757,-0.4637607116072947
10.311381215469615,-0.4917499544631235
10.34475138121547,-0.48731388908200074
10.378121546961326,-0.4634156773513552
10.411491712707184,-0.43564891795633903
10.44486187845304,-0.41475406412193483
10.478232044198895,-0.40079246869207696
10.511602209944753,-0.3824225397871514
10.544972375690609,-0.3422717788350323
10.578342541436465,-0.2661784148706187
10.61171270718232,-0.15181358714253365
10.645082872928178,-0.012201086856304146
10.678453038674034,0.12794089039340684
10.71182320441989,0.24150903642860702
10.745193370165747,0.3095743122931419
10.778563535911603,0.3281963006627018
10.811933701657459,0.3084704342010838
10.845303867403315,0.270212913134815
10.878674033149172,0.2327293772929348
10.912044198895028,0.20723910645569948
10.945414364640884,0.19429981385773218
10.978784530386742,0.1867915353631742
11.012154696132598,0.17618792601171618
11.045524861878453,0.15839304839505508
11.078895027624311,0.13598984229735972
11.112265193370167,0.11592756665301343
11.145635359116023,0.10427038788940492
11.179005524861878,0.10125889523753749
11.212375690607736,0.099739599869465
11.245745856353592,0.08810842611387326
11.279116022099448,0.056345638965084405
11.312486187845305,0.0019235356686380962
11.345856353591161,-0.06764889544451404
11.379226519337017,-0.13711766204011194
11.412596685082875,-0.18954319696461353
11.44596685082873,-0.2131465635337974
11.479337016574586,-0.20568246465948156
11.512707182320442,-0.17448820247201868
11.5460773480663,-0.13259334226928976
11.579447513812156,-0.09310667974375368
11.612817679558011,-0.06462754980243707
11.646187845303869,-0.04953719892124084
11.679558011049725,-0.04534414245938179
11.71292817679558,-0.047744549822098345
11.746298342541436,-0.053460229692479405
11.779668508287294,-0.06140817022566189
11.81303867403315,-0.0719291911442862
11.846408839779006,-0.08495082635260903
11.879779005524863,-0.09846844716882032
11.91314917127072,-0.10838899693507666
11.946519337016575,-0.10986366743842892
11.979889502762433,-0.09930907272426655
12.013259668508288,-0.07591638934090607
12.046629834254144,-0.041779204475337776
12.08,-0.0006127502114657329
12.113370165745858,0.0441119818696261
12.146740331491714,0.09043424614171712
12.18011049723757,0.13773766425817935
12.213480662983427,0.18521366615062035
12.246850828729283,0.22995016626637094
12.280220994475139,0.26604943773072154
12.313591160220996,0.2857482878244141
12.346961325966852,0.28240543554129316
12.380331491712708,0.2540258243760043
12.413701657458564,0.2054131965222318
12.447071823204421,0.14748689756418226
12.480441988950277,0.09361712343039341
12.513812154696133,0.05437319489798141
12.54718232044199,0.03303207977593263
12.580552486187846,0.02403176880364359
12.613922651933702,0.015313951962048399
12.64729281767956,-0.0062451292591829246
12.680662983425416,-0.04856248659753168
12.714033149171271,-0.10997184870280767
12.747403314917127,-0.1787825895052365
12.780773480662985,-0.23719654851078292
12.81414364640884,-0.26812136470969106
12.847513812154697,-0.26207001944591307
12.880883977900554,-0.22116744843637526
12.91425414364641,-0.15848254273865775
12.947624309392266,-0.09301025003985915
12.980994475138122,-0.042645141031299086
13.01436464088398,-0.018343511691613308
13.047734806629835,-0.02186733436127142
13.081104972375691,-0.04750011040482878
13.114475138121549,-0.08610988423060444
13.147845303867404,-0.1290644083875006
13.18121546961326,-0.1701486760400297
13.214585635359118,-0.20519472786142395
13.247955801104974,-0.2305256806722453
13.28132596685083,-0.24173805869045956
13.314696132596685,-0.23374575768565684
13.348066298342543,-0.2019839288245395
13.381436464088399,-0.1439667602707138
13.414806629834255,-0.06039000823884138
13.448176795580112,0.04450471600349108
13.481546961325968,0.1630528448149036
13.514917127071824,0.28444163165396175
13.548287292817681,0.3952207269723571
13.581657458563537,0.4806526122362901
13.615027624309393,0.5275411729195384
13.648397790055249,0.5283985561680168
13.681767955801106,0.4855021087144993
13.715138121546962,0.4124247016798412
13.748508287292818,0.3309591727707266
13.781878453038676,0.2633288050732468
13.815248618784532,0.22240034353728802
13.848618784530387,0.20464252031896843
13.881988950276245,0.19022431795531605
13.9153591160221,0.15154504198476032
13.948729281767957,0.06698794192577237
13.982099447513813,-0.06668137241528037
14.01546961325967,-0.2298705040475772
14.048839779005526,-0.38654137159117463
14.082209944751382,-0.498711860989715
14.11558011049724,-0.5420934631216124
14.148950276243095,-0.5153449660361764
14.182320441988951,-0.4388619117718267
14.215690607734807,-0.3443881192337118
14.249060773480664,-0.26104810016369645
14.28243093922652,-0.20451593394116224
14.315801104972376,-0.17373831738513076
14.349171270718234,-0.15549363005661918
14.38254143646409,-0.1333886360395327
14.415911602209945,-0.09639560749232955
14.449281767955803,-0.04310231762224131
14.482651933701659,0.01942716096013588
14.516022099447515,0.0804669005240513
14.54939226519337,0.1308977227399622
14.582762430939228,0.16611733191689868
14.616132596685084,0.18567802285981114
14.64950276243094,0.19090677808935663
14.682872928176797,0.1828574111500941
14.716243093922653,0.1623095442085847
14.749613259668509,0.1316543211395629
14.782983425414367,0.09675375553897131
14.816353591160222,0.06655555358303518
14.849723756906078,0.049722882474248865
14.883093922651934,0.04983287539696933
14.916464088397792,0.06216268014063281
14.949834254143648,0.07455868404312296
14.983204419889503,0.0725801707514357
15.016574585635361,0.04649939154472568
15.049944751381217,-0.0034696663226916314
15.083314917127073,-0.06641747562248343
15.116685082872928,-0.12478042220389501
15.150055248618786,-0.1611458546567292
15.183425414364642,-0.16471538251607387
15.216795580110498,-0.13483371372960956
15.250165745856355,-0.08052001834647188
15.283535911602211,-0.016604827988823723
15.316906077348067,0.041775984328566405
15.350276243093925,0.08419497639767956
15.38364640883978,0.10766609526609325
15.417016574585636,0.11622875281198854
15.450386740331492,0.11775368061883237
15.48375690607735,0.11949228889937395
15.517127071823205,0.12445823224026399
15.550497237569061,0.1303641727218237
15.583867403314919,0.13160383669708772
15.617237569060775,0.12320897671534597
15.65060773480663,0.1046013644311062
15.683977900552488,0.08092160522133889
15.717348066298344,0.06087277599228905
15.7507182320442,0.0518772207123918
15.784088397790056,0.0549801360826988
15.817458563535913,0.06241420044760144
15.85082872928177,0.0596570171232425
15.884198895027625,0.031586559875892546
15.917569060773483,-0.029923123921471055
15.950939226519338,-0.12068224837643131
15.984309392265194,-0.22402510061250325
16.01767955801105,-0.3162736465793124
16.051049723756908,-0.37549596518332334
16.084419889502765,-0.3895568365322733
16.11779005524862,-0.35982677061774326
16.151160220994477,-0.29912091964932325
16.18453038674033,-0.22526417862013062
16.21790055248619,-0.153626380769245
16.251270718232046,-0.09211571705857287
16.2846408839779,-0.04055034770734438
16.318011049723758,0.0060031124336429815
16.351381215469615,0.052203890100665805
16.38475138121547,0.0985462769900667
16.418121546961327,0.14052414438212948
16.451491712707185,0.17102577818373196
16.48486187845304,0.18448534984158996
16.518232044198896,0.18053625520854447
16.551602209944754,0.16525159885232366
16.584972375690608,0.14923615614987357
16.618342541436466,0.14327796754322242
16.651712707182323,0.15339333311946016
16.685082872928177,0.17748307971348368
16.718453038674035,0.20527535739303157
16.751823204419892,0.22189268570930326
16.785193370165747,0.21374963833921723
16.818563535911604,0.17431194015223145
16.851933701657458,0.1071707112392611
16.885303867403316,0.025037480480554944
16.918674033149173,-0.054882374886947784
16.952044198895027,-0.1170547609650708
16.985414364640885,-0.15264969581840834
17.018784530386743,-0.16147170397958016
17.052154696132597,-0.15038155263349115
17.085524861878454,-0.12938925997126613
17.118895027624312,-0.10742973338464121
17.152265193370166,-0.08961010411804418
17.185635359116024,-0.07672526799458412
17.21900552486188,-0.06669681387496948
17.252375690607735,-0.05686106845758307
