Frequency (Hz),Amplitude
0.0,0.6840486667145416
0.020066889632107024,0.6840090068661245
0.04013377926421405,0.6838901748168044
0.060200668896321065,0.6836926126637247
0.0802675585284281,0.6834170559327426
0.10033444816053512,0.6830645316211119
0.12040133779264213,0.6826363554510403
0.14046822742474915,0.6821341283279896
0.1605351170568562,0.6815597319961378
0.1806020066889632,0.6809153238822047
0.20066889632107024,0.680203331117608
0.22073578595317725,0.6794264437283901
0.24080267558528426,0.6785876069814509
0.2608695652173913,0.6776900128761874
0.2809364548494983,0.6767370907703857
0.3010033444816054,0.6757324971303696
0.3210702341137124,0.6746801043965753
0.34113712374581934,0.6735839889579603
0.3612040133779264,0.6724484182306771
0.3812709030100334,0.6712778368403258
0.4013377926421405,0.6700768519102898
0.42140468227424743,0.6688502174639874
0.4414715719063545,0.6676028179538229
0.4615384615384615,0.666339650936009
0.4816053511705685,0.6650658089172024
0.5016722408026756,0.6637864604068767
0.5217391304347826,0.6625068302173642
0.5418060200668896,0.6612321790627375
0.5618729096989966,0.6599677825173268
0.5819397993311036,0.6587189094046283
0.6020066889632107,0.6574907996976698
0.6220735785953176,0.6562886420227989
0.6421404682274248,0.6551175508689027
0.6622073578595318,0.6539825436150654
0.6822742474916387,0.6528885174989715
0.7023411371237458,0.6518402266583166
0.7224080267558528,0.650842259385263
0.7424749163879598,0.6498990157418042
0.7625418060200668,0.6490146856893535
0.7826086956521738,0.6481932278903536
0.802675585284281,0.6474383493418948
0.8227424749163879,0.6467534860018803
0.8428093645484949,0.6461417845661401
0.862876254180602,0.6456060855509611
0.882943143812709,0.6451489078287697
0.903010033444816,0.6447724347557808
0.923076923076923,0.6444785020191989
0.9431438127090299,0.6442685873180408
0.963210702341137,0.644143801976043
0.983277591973244,0.6441048845678573
1.0033444816053512,0.6441521966208815
1.0234113712374582,0.6442857204350746
1.0434782608695652,0.6445050590421327
1.0635451505016722,0.644809438304434
1.0836120401337792,0.6451977111326548
1.1036789297658862,0.6456683637804501
1.1237458193979932,0.6462195241542321
1.1438127090301002,0.6468489720576984
1.1638795986622072,0.6475541512729861
1.1839464882943145,0.6483321833653174
1.2040133779264215,0.6491798830841239
1.2240802675585283,0.6500937752227032
1.2441471571906353,0.6510701127892873
1.2642140468227423,0.6521048963361794
1.2842809364548495,0.6531938942890616
1.3043478260869565,0.654332664117103
1.3244147157190636,0.655516574184505
1.3444816053511706,0.6567408261267037
1.3645484949832773,0.6580004775986097
1.3846153846153846,0.6592904652479232
1.4046822742474916,0.6606056277740211
1.4247491638795986,0.6619407289412175
1.4448160535117056,0.6632904804241273
1.4648829431438126,0.6646495643732289
1.4849498327759196,0.6660126555985374
1.5050167224080266,0.6673744432802073
1.5250836120401337,0.6687296521248954
1.5451505016722407,0.6700730628974843
1.5652173913043477,0.6713995322672551
1.5852842809364547,0.672704011917489
1.605351170568562,0.6739815668761209
1.625418060200669,0.6752273930335368
1.6454849498327757,0.6764368338210507
1.6655518394648827,0.6776053960305267
1.6856187290969897,0.6787287647617264
1.705685618729097,0.6798028174891578
1.725752508361204,0.6808236372448996
1.745819397993311,0.6817875249176524
1.765886287625418,0.6826910106714544
1.7859531772575248,0.6835308644898397
1.806020066889632,0.6843041058533742
1.826086956521739,0.6850080125593183
1.846153846153846,0.6856401286934224
1.866220735785953,0.6861982717637347
1.8862876254180598,0.6866805390063352
1.9063545150501673,0.687085312872347
1.926421404682274,0.6874112657046737
1.9464882943143813,0.6876573636117717
1.966555183946488,0.6878228695443135
1.9866220735785953,0.68790734557918
2.0066889632107023,0.6879106544132516
2.026755852842809,0.6878329600677193
2.0468227424749164,0.6876747278018223
2.0668896321070234,0.6874367232327455
2.0869565217391304,0.6871200106567062
2.1070234113712374,0.6867259505641823
2.1270903010033444,0.6862561963407072
2.1471571906354514,0.6857126901427092
2.1672240802675584,0.6850976579367865
2.1872909698996654,0.6844136036892903
2.2073578595317724,0.6836633026924425
2.2274247491638794,0.6828497940124651
2.2474916387959865,0.681976372045056
2.267558528428094,0.681046577163934
2.2876254180602005,0.6800641854487732
2.3076923076923075,0.6790331974803042
2.3277591973244145,0.67795782619227
2.3478260869565215,0.6768424837725265
2.367892976588629,0.675691767608944
2.3879598662207355,0.674510445279896
2.408026755852843,0.6733034385938587
2.4280936454849495,0.6720758066886984
2.4481605351170566,0.6708327282073873
2.468227424749164,0.6695794825747257
2.4882943143812706,0.6683214304075039
2.508361204013378,0.667063993099948
2.5284280936454846,0.6658126316358607
2.548494983277592,0.6645728246892226
2.568561872909699,0.6633500460862997
2.5886287625418056,0.6621497417134085
2.608695652173913,0.6609773059661666
2.6287625418060196,0.6598380578477988
2.648829431438127,0.6587372168355267
2.668896321070234,0.6576798786451251
2.688963210702341,0.6566709910340996
2.709030100334448,0.6557153297935526
2.7290969899665547,0.6548174750867973
2.749163879598662,0.6539817882998209
2.769230769230769,0.6532123895733272
2.789297658862876,0.6525131361892506
2.809364548494983,0.6518876019852753
2.82943143812709,0.6513390579690659
2.849498327759197,0.6508704542998784
2.869565217391304,0.6504844037980253
2.8896321070234112,0.6501831671333007
2.9096989966555182,0.6499686398314699
2.9297658862876252,0.6498423412230528
2.9498327759197323,0.6498054054420764
2.9698996655518393,0.6498585745635191
2.9899665551839463,0.6500021939477806
3.0100334448160533,0.6502362098386143
3.0301003344481603,0.6505601692384012
3.0501672240802673,0.6509732220613098
3.0702341137123748,0.651474125542378
3.0903010033444813,0.652061250857057
3.1103678929765888,0.6527325918849349
3.1304347826086953,0.6534857760303747
3.1505016722408024,0.6543180769944742
3.1705685618729094,0.655226429375907
3.1906354515050164,0.6562074449637988
3.210702341137124,0.6572574305739662
3.2307692307692304,0.6583724072702865
3.250836120401338,0.6595481308062802
3.270903010033445,0.6607801131177504
3.2909698996655514,0.6620636446957756
3.311036789297659,0.6633938176697827
3.3311036789297654,0.6647655494338122
3.351170568561873,0.6661736066533803
3.3712374581939795,0.6676126294975222
3.391304347826087,0.6690771559483404
3.411371237458194,0.6705616460496593
3.4314381270903005,0.6720605059669287
3.451505016722408,0.6735681117407166
3.471571906354515,0.675078832628013
3.491638795986622,0.6765870539364763
3.511705685618729,0.6780871992682915
3.531772575250836,0.6795737521011417
3.551839464882943,0.6810412766448891
3.5719063545150496,0.6824844379220554
3.591973244147157,0.6838980210302393
3.612040133779264,0.6852769495529835
3.632107023411371,0.686616303093655
3.652173913043478,0.6879113339141667
3.672240802675585,0.6891574826663792
3.692307692307692,0.6903503932098941
3.712374581939799,0.6914859265141574
3.732441471571906,0.6925601736469945
3.752508361204013,0.6935694678547173
3.7725752508361197,0.6945103957411692
3.7926421404682276,0.6953798075550143
3.8127090301003346,0.6961748265956139
3.832775919732441,0.6968928577483223
3.852842809364548,0.6975315951601878
3.872909698996655,0.6980890290664578
3.8929765886287626,0.6985634517777096
3.9130434782608696,0.6989534628360561
3.933110367892976,0.6992579733474023
3.953177257525083,0.699476209495218
3.9732441471571907,0.6996077152389807
3.9933110367892977,0.6996523541987469
4.013377926421405,0.6996103107247411
4.033444816053511,0.6994820901486625
4.053511705685618,0.6992685182111765
4.073578595317726,0.6989707396574972
4.093645484949833,0.6985902159909236
4.113712374581939,0.6981287223716968
4.133779264214047,0.6975883436468839
4.153846153846153,0.696971469494814
4.173913043478261,0.6962807886661498
4.193979933110368,0.6955192823023906
4.214046822742475,0.6946902163116159
4.234113712374581,0.6937971327808136
4.254180602006689,0.6928438404041464
4.274247491638796,0.6918344039068861
4.294314381270903,0.6907731324463579
4.314381270903009,0.6896645669724031
4.334448160535117,0.6885134665333313
4.354515050167224,0.6873247935160064
4.374581939799331,0.6861036978136539
4.394648829431437,0.6848554999201252
4.414715719063545,0.6835856729552009
4.434782608695651,0.6822998236336466
4.454849498327759,0.6810036721982282
4.474916387959866,0.6797030313468657
4.494983277591973,0.6784037841940918
4.5150501672240795,0.6771118613183689
4.535117056856188,0.675833216958989
4.555183946488294,0.6745738044391784
4.575250836120401,0.673339550905357
4.595317725752508,0.6721363314863104
4.615384615384615,0.670969942990301
4.635451505016722,0.6698460772716115
4.655518394648829,0.6687702944120552
4.6755852842809364,0.6677479958751369
4.695652173913043,0.6667843978031828
4.71571906354515,0.6658845046372439
4.735785953177258,0.6650530832490402
4.7558528428093645,0.6642946377804492
4.775919732441471,0.6636133853901639
4.795986622073578,0.663013233109184
4.816053511705686,0.6624977560051264
4.8361204013377925,0.6620701768509907
4.856187290969899,0.6617333474866024
4.8762541806020065,0.6614897320502094
4.896321070234113,0.6613413922436745
4.916387959866221,0.661289974777871
4.936454849498328,0.6613367011254121
4.956521739130435,0.661482359685315
4.976588628762541,0.6617273004407872
4.996655518394649,0.6620714321647565
5.016722408026756,0.6625142222017915
5.036789297658863,0.6630546988270315
5.056856187290969,0.6636914561561856
5.076923076923077,0.6644226615533624
5.096989966555184,0.6652460654584669
5.117056856187291,0.6661590135316886
5.137123745819398,0.6671584609913026
5.157190635451505,0.6682409890009676
5.177257525083611,0.6694028229471044
5.197324414715719,0.670639852432656
5.217391304347826,0.6719476528034427
5.237458193979933,0.6733215080162983
5.257525083612039,0.6747564346534263
5.277591973244148,0.6762472068868958
5.297658862876254,0.6777883821985681
5.317725752508361,0.6793743276650348
5.337792642140468,0.680999246623606
5.357859531772575,0.6826572055441597
5.377926421404682,0.684342160941475
5.397993311036789,0.6860479861743087
5.418060200668896,0.6877684979899774
5.438127090301003,0.6894974826858757
5.458193979933109,0.6912287217732191
5.478260869565218,0.692956017041398
5.498327759197324,0.6946732149346524
5.518394648829431,0.6963742301657694
5.538461538461538,0.6980530685035081
5.558528428093646,0.6997038486823004
5.578595317725752,0.7013208233932147
5.598662207357859,0.7028983993250187
5.618729096989966,0.7044311562332362
5.638795986622073,0.7059138650224264
5.65886287625418,0.7073415048342684
5.678929765886288,0.7087092791393208
5.698996655518394,0.7100126308357337
5.719063545150501,0.7112472563616156
5.739130434782608,0.7124091188312176
5.759197324414716,0.7134944602070513
5.7792642140468224,0.7144998125218561
5.799331103678929,0.7154220081648142
5.8193979933110365,0.7162581892468599
5.839464882943144,0.7170058160593187
5.8595317725752505,0.7176626746393797
5.879598662207358,0.718226883454442
5.8996655518394645,0.7186968992157624
5.919732441471571,0.7190715218294392
5.9397993311036785,0.7193498984910423
5.959866220735786,0.7195315269267611
5.9799331103678925,0.7196162577818844
5.999999999999999,0.7196042961541458
6.020066889632107,0.7194962022663604
6.040133779264214,0.7192928912700101
6.060200668896321,0.718995632168061
6.080267558528428,0.7186060458423803
6.100334448160535,0.7181261021680395
6.120401337792642,0.7175581161942532
6.1404682274247495,0.7169047433686305
6.160535117056856,0.716168973779461
6.180602006688963,0.7153541253885651
6.200668896321069,0.7144638362254367
6.2207357859531776,0.7135020555125672
6.240802675585284,0.7124730336908284
6.260869565217391,0.7113813113142221
6.280936454849498,0.7102317067835847
6.301003344481605,0.7090293028908905
6.321070234113712,0.7077794321477692
6.341137123745819,0.7064876608757655
6.361204013377926,0.70515977204031
6.381270903010033,0.7038017468157413
6.40133779264214,0.7024197448766718
6.421404682274248,0.7010200834182143
6.441471571906354,0.6996092149179459
6.461538461538461,0.6981937036635956
6.481605351170568,0.6967802010822822
6.501672240802676,0.6953754199214879
6.521739130434782,0.6939861073463853
6.54180602006689,0.6926190170345343
6.561872909698996,0.6912808803657825
6.581939799331103,0.6899783768225818
6.60200668896321,0.6887181037347909
6.622073578595318,0.6875065455200373
6.642140468227424,0.6863500425897521
6.662207357859531,0.6852547601073671
6.682274247491639,0.6842266568015107
6.702341137123746,0.6832714540517847
6.722408026755852,0.6823946054763211
6.742474916387959,0.6816012672610623
6.762541806020066,0.6808962694767504
6.782608695652174,0.6802840886336196
6.80267558528428,0.6797688217230378
6.822742474916388,0.6793541619913808
6.842809364548494,0.6790433766826043
6.862876254180601,0.6788392869734721
6.882943143812709,0.6787442503083684
6.903010033444816,0.6787601453195604
6.9230769230769225,0.6788883594943342
6.94314381270903,0.6791297797223522
6.963210702341137,0.6794847858259371
6.983277591973244,0.6799532471430825
7.0033444816053505,0.6805345221989324
7.023411371237458,0.6812274614664047
7.0434782608695645,0.6820304131818762
7.063545150501672,0.6829412321478663
7.083612040133779,0.6839572914223407
7.103678929765886,0.6850754967640282
7.123745819397993,0.6862923036761712
7.143812709030099,0.6876037368668759
7.1638795986622075,0.6890054119244848
7.183946488294314,0.6904925589900568
7.204013377926421,0.6920600481970094
7.224080267558528,0.6937024166404078
7.2441471571906355,0.6954138966343008
7.264214046822742,0.6971884450160056
7.2842809364548495,0.699019773259564
7.304347826086956,0.7009013781678157
7.324414715719063,0.7028265729221094
7.34448160535117,0.7047885182809445
7.364548494983278,0.7067802537327171
7.384615384615384,0.7087947284233926
7.404682274247491,0.7108248316963105
7.424749163879598,0.712863423098472
7.444816053511706,0.7149033617249475
7.464882943143812,0.716937534790099
7.48494983277592,0.7189588853310366
7.505016722408026,0.7209604389646124
7.525083612040134,0.7229353296343402
7.545150501672239,0.724876824297607
7.565217391304348,0.7267783465161465
7.585284280936455,0.7286334989245657
7.605351170568561,0.730436084561391
7.625418060200669,0.732180127056558
7.645484949832775,0.7338598896764252
7.665551839464882,0.7354698932339122
7.685618729096991,0.7370049328763336
7.705685618729096,0.7384600937676087
7.725752508361204,0.7398307656844507
7.74581939799331,0.7411126565479906
7.765886287625418,0.7423018049133001
7.785953177257525,0.7433945914397554
7.806020066889631,0.7443877493643957
7.826086956521739,0.7452783739994601
7.846153846153847,0.7460639312735776
7.866220735785952,0.7467422653336526
7.88628762541806,0.7473116052222762
7.906354515050166,0.7477705706416782
7.926421404682274,0.7481181768128281
7.946488294314381,0.7483538384337598
7.966555183946488,0.7484773727379513
7.986622073578595,0.7484890016492055
8.006688963210701,0.7483893530253231
8.02675585284281,0.7481794609789697
8.046822742474916,0.7478607652591741
8.066889632107022,0.7474351096733346
8.08695652173913,0.7469047395247875
8.107023411371236,0.7462722980372191
8.127090301003344,0.7455408217333532
8.147157190635452,0.7447137347312042
8.167224080267557,0.7437948419184492
8.187290969899665,0.7427883209620851
8.207357859531772,0.741698713108348
8.227424749163879,0.740530912725977
8.247491638795987,0.7392901555449223
8.267558528428093,0.737982005542166
8.2876254180602,0.736612340427452
8.307692307692307,0.7351873356831651
8.327759197324415,0.7337134471160913
8.347826086956522,0.7321973918831999
8.367892976588628,0.7306461279596375
8.387959866220736,0.7290668320249767
8.408026755852843,0.727466875753302
8.42809364548495,0.7258538005040209
8.448160535117056,0.724235290423927
8.468227424749163,0.7226191439860981
8.488294314381271,0.7210132440088167
8.508361204013378,0.7194255262167254
8.528428093645484,0.7178639464275255
8.548494983277592,0.7163364464701412
8.568561872909697,0.7148509189639726
8.588628762541806,0.7134151711139127
8.608695652173914,0.7120368877008934
8.628762541806019,0.7107235934733451
8.648829431438127,0.7094826151695777
8.668896321070234,0.7083210434248026
8.68896321070234,0.7072456948381155
8.709030100334449,0.7062630744942137
8.729096989966555,0.7053793392499409
8.749163879598662,0.7046002621082519
8.769230769230768,0.7039311980086993
8.789297658862875,0.7033770513661364
8.809364548494983,0.7029422456852297
8.82943143812709,0.7026306955691454
8.849498327759196,0.7024457814245121
8.869565217391303,0.7023903271435707
8.889632107023411,0.7024665810161892
8.909698996655518,0.7026762000916519
8.929765886287624,0.7030202381719199
8.949832775919733,0.7034991375763269
8.96989966555184,0.7041127247722522
8.989966555183946,0.7048602099194087
9.010033444816054,0.7057401903268521
9.030100334448159,0.7067506577743612
9.050167224080267,0.7078890096027703
9.070234113712376,0.7091520634339894
9.09030100334448,0.7105360753404218
9.110367892976589,0.7120367612475805
9.130434782608695,0.7136493213216183
9.150501672240802,0.7153684670681123
9.17056856187291,0.7171884508480266
9.190635451505017,0.7191030975030878
9.210702341137123,0.7211058377743
9.23076923076923,0.7231897431952206
9.250836120401337,0.7253475621444356
9.270903010033445,0.72757175674984
9.290969899665551,0.7298545403490069
9.311036789297658,0.7321879152262278
9.331103678929765,0.7345637103653
9.351170568561873,0.7369736189783799
9.37123745819398,0.7394092355937412
9.391304347826086,0.7418620925090494
9.411371237458194,0.7443236954405158
9.4314381270903,0.7467855582224838
9.451505016722408,0.7492392364348268
9.471571906354516,0.751676359857924
9.49163879598662,0.7540886636758859
9.511705685618729,0.7564680183678792
9.531772575250837,0.7588064582452435
9.551839464882942,0.7610962086076826
9.57190635451505,0.7633297115058765
9.591973244147155,0.7654996501098955
9.612040133779264,0.7675989716930565
9.632107023411372,0.7696209092491888
9.652173913043477,0.7715590017683376
9.672240802675585,0.7734071132007699
9.692307692307692,0.7751594501433526
9.712374581939798,0.7768105782844273
9.732441471571907,0.7783554376446998
9.752508361204013,0.7797893566519993
9.77257525083612,0.7811080650864759
9.792642140468226,0.7823077059318029
9.812709030100335,0.7833848461648482
9.832775919732441,0.7843364865139101
9.852842809364548,0.785160070211397
9.872909698996656,0.7858534907631444
9.89297658862876,0.786415098751752
9.91304347826087,0.7868437076866496
9.933110367892976,0.7871385989081521
9.953177257525082,0.7872995255475015
9.97324414715719,0.7873267155390339
9.993311036789297,0.7872208736748926
10.013377926421404,0.7869831826865025
10.033444816053512,0.7866153033311498
10.053511705685617,0.7861193734555803
10.073578595317725,0.7854980060026995
10.093645484949834,0.7847542859210179
10.113712374581938,0.7838917659307151
10.133779264214047,0.7829144610943689
10.153846153846153,0.7818268421348675
10.17391304347826,0.7806338274379058
10.193979933110368,0.7793407736718434
10.214046822742475,0.7779534649538417
10.234113712374581,0.7764781004879423
10.254180602006688,0.7749212805984514
10.274247491638796,0.7732899910812849
10.294314381270903,0.7715915857959059
10.31438127090301,0.7698337674225326
10.334448160535118,0.7680245663132393
10.354515050167223,0.7661723173708892
10.37458193979933,0.7642856348985211
10.394648829431437,0.7623733853717822
10.414715719063544,0.760444658100868
10.434782608695652,0.7585087337643123
10.454849498327757,0.7565750508162654
10.474916387959865,0.754653169791338
10.494983277591974,0.7527527355565515
10.515050167224079,0.7508834375882782
10.535117056856187,0.7490549683834119
10.555183946488295,0.7472769801479492
10.5752508361204,0.7455590399417701
10.595317725752508,0.7439105834960121
10.615384615384615,0.7423408679574843
10.635451505016722,0.7408589238527074
10.65551839464883,0.739473506601288
10.675585284280936,0.7381930479431111
10.695652173913043,0.7370256076760197
10.71571906354515,0.735978826127458
10.735785953177256,0.7350598778057978
10.755852842809364,0.7342754266917351
