Frequency (Hz),Amplitude
0.0,2.0291991668472042
0.019867549668874173,2.030480033154067
0.039735099337748346,2.0343127321459247
0.059602649006622516,2.040667769710313
0.07947019867549669,2.0494966640587595
0.09933774834437085,2.0607329225092763
0.11920529801324503,2.074293340742826
0.13907284768211922,2.0900795637148897
0.15894039735099338,2.1079798394565503
0.17880794701986755,2.127870894327783
0.1986754966887417,2.149619860499983
0.2185430463576159,2.173086192694583
0.23841059602649006,2.1981235203624974
0.2582781456953642,2.2245813923406095
0.27814569536423844,2.2523068824283006
0.2980132450331126,2.2811460353426454
0.31788079470198677,2.3109451424377623
0.33774834437086093,2.3415518449806862
0.3576158940397351,2.372816069464708
0.3774834437086093,2.4045908044079605
0.3973509933774834,2.4367327314595846
0.4172185430463576,2.4691027256327636
0.4370860927152318,2.501566240354772
0.45695364238410596,2.533993593026306
0.4768211920529801,2.566260166154058
0.49668874172185434,2.598246538068995
0.5165562913907285,2.629838555938576
0.5364238410596026,2.6609273623569147
0.5562913907284769,2.69140938535165
0.5761589403973509,2.7211863002489736
0.5960264900662252,2.750164970534034
0.6158940397350993,2.778257373659236
0.6357615894039735,2.8053805166998003
0.6556291390728477,2.8314563458364024
0.6754966887417219,2.856411652854798
0.695364238410596,2.880177981182472
0.7152317880794702,2.9026915334219954
0.7350993377483444,2.9238930818774524
0.7549668874172186,2.943727883191962
0.7748344370860927,2.9621455979088664
0.7947019867549668,2.9791002155266546
0.8145695364238411,2.9945499854268425
0.8344370860927152,3.0084573539081694
0.8543046357615894,3.020788907450082
0.8741721854304636,3.0315153222487687
0.8940397350993378,3.0406113200132494
0.9139072847682119,3.0480556299733106
0.9337748344370861,3.0538309570310975
0.9536423841059603,3.0579239559808533
0.9735099337748344,3.060325211723497
0.9933774834437087,3.0610292254129123
1.0132450331125828,3.0600344064855935
1.033112582781457,3.057343070544587
1.0529801324503312,3.05296144308944
1.0728476821192052,3.0468996691052856
1.0927152317880795,3.039171828545284
1.1125827814569538,3.029795957758232
1.1324503311258278,3.018794076928024
1.1523178807947019,3.0061922235996477
1.1721854304635762,2.9920204923671396
1.1920529801324504,2.976313080788962
1.2119205298013245,2.9591083415734007
1.2317880794701985,2.940448841036684
1.2516556291390728,2.9203814237764187
1.271523178807947,2.898957283416764
1.2913907284768211,2.876232039164747
1.3112582781456954,2.8522658177619453
1.3311258278145695,2.8271233402148415
1.3509933774834437,2.8008740124319096
1.370860927152318,2.773592018575364
1.390728476821192,2.7453564155398
1.410596026490066,2.7162512264870067
1.4304635761589404,2.686365530783046
1.4503311258278146,2.6557935469890723
1.4701986754966887,2.6246347047399063
1.4900662251655628,2.5929937003961765
1.5099337748344372,2.5609805302736897
1.5298013245033113,2.5287104940414076
1.5496688741721854,2.496304159551765
1.5695364238410596,2.463887278954186
1.5894039735099337,2.4315906444940936
1.609271523178808,2.3995498709903194
1.6291390728476822,2.367905090719606
1.6490066225165563,2.3368005454583223
1.6688741721854303,2.3063840599168857
1.6887417218543048,2.276806380966439
1.7086092715231789,2.2482203681438646
1.728476821192053,2.2207800231883805
1.7483443708609272,2.1946393500583494
1.7682119205298013,2.1699510422001906
1.7880794701986755,2.1468650009004366
1.8079470198675496,2.1255266973043665
1.8278145695364238,2.106075400889168
1.847682119205298,2.088642308347493
1.8675496688741722,2.0733486182176613
1.8874172185430464,2.0603036071959444
1.9072847682119205,2.0496027727176873
1.9271523178807946,2.0413261118877215
1.9470198675496688,2.035536608090579
1.9668874172185429,2.032278992849415
1.9867549668874174,2.0315788414563998
2.0066225165562916,2.0334420469047423
2.0264900662251657,2.0378546986898765
2.0463576158940397,2.0447833726365063
2.066225165562914,2.054175816923514
2.086092715231788,2.065961999877046
2.1059602649006623,2.0800554686397943
2.1258278145695364,2.096354955813751
2.1456953642384105,2.114746164327619
2.165562913907285,2.135103659173146
2.185430463576159,2.1572927977873646
2.205298013245033,2.1811716378072696
2.2251655629139075,2.206592770529145
2.2450331125827816,2.233405039456422
2.2649006622516556,2.2614551147129682
2.2847682119205297,2.2905889049335526
2.3046357615894038,2.320652797881064
2.324503311258278,2.351494729098214
2.3443708609271523,2.382965084228677
2.364238410596027,2.414917445265707
2.384105960264901,2.4472091940575087
2.403973509933775,2.4797019881424687
2.423841059602649,2.512262124659684
2.443708609271523,2.5447608079347983
2.463576158940397,2.5770743356113255
2.4834437086092715,2.609084217082716
2.5033112582781456,2.640677236643162
2.52317880794702,2.6717454723405267
2.543046357615894,2.702186280075897
2.562913907284768,2.731902251113525
2.5827814569536423,2.760801149884872
2.6026490066225163,2.788795837812249
2.622516556291391,2.815804187852507
2.642384105960265,2.8417489935693454
2.662251655629139,2.8665578757782226
2.6821192052980134,2.8901631891618225
2.7019867549668874,2.9125019307145514
2.7218543046357615,2.93351565142966
2.741721854304636,2.953150372280256
2.76158940397351,2.971356505253514
2.781456953642384,2.988088779966396
2.801324503311258,3.0033061762101636
2.821192052980132,3.016971862632708
2.8410596026490067,3.0290531416643294
2.8609271523178808,3.0395214007179536
2.8807947019867552,3.048352069643491
2.9006622516556293,3.0555245843837713
2.9205298013245033,3.0610223567624457
2.9403973509933774,3.0648327503287796
2.9602649006622515,3.0669470621885453
2.9801324503311255,3.067360510761189
3.0,3.066072229419352
3.0198675496688745,3.063085265986682
3.0397350993377485,3.058406588090382
3.0596026490066226,3.0520470943870355
3.0794701986754967,3.044021631699818
3.0993377483443707,3.0343490181231623
3.119205298013245,3.0230520721638463
3.1390728476821192,3.0101576479940837
3.1589403973509933,2.99569667689109
3.1788079470198674,2.97970421492458
3.198675496688742,2.962219496927569
3.218543046357616,2.943285996741589
3.23841059602649,2.9229514936619867
3.2582781456953644,2.9012681449165227
3.2781456953642385,2.878292563885093
3.2980132450331126,2.854085903604092
3.3178807947019866,2.8287139448862817
3.3377483443708607,2.8022471881182964
3.3576158940397347,2.774760947461421
3.3774834437086096,2.7463354457675986
3.3973509933774837,2.7170559080174845
3.4172185430463577,2.6870126504807117
3.437086092715232,2.6563011620768364
3.456953642384106,2.6250221735691643
3.47682119205298,2.5932817092454057
3.4966887417218544,2.561191114626918
3.5165562913907285,2.528867052507804
3.5364238410596025,2.496431458275083
3.556291390728477,2.4640114440338188
3.576158940397351,2.4317391396129744
3.596026490066225,2.3997514571383993
3.615894039735099,2.368189764643106
3.6357615894039736,2.337199453289626
3.6556291390728477,2.306929382391858
3.6754966887417218,2.2775311867654886
3.695364238410596,2.249158432256182
3.7152317880794703,2.2219656078506174
3.7350993377483444,2.196106946808455
3.754966887417219,2.1717350749473234
3.774834437086093,2.148999491648008
3.794701986754967,2.128044898242671
3.814569536423841,2.1090093989139547
3.834437086092715,2.092022610522881
3.854304635761589,2.0772037290932315
3.8741721854304636,2.0646596109709603
3.8940397350993377,2.054482934762184
3.9139072847682117,2.046750514833861
3.9337748344370858,2.041521837402893
3.9536423841059607,2.0388378853663025
3.9735099337748347,2.0387203078864955
3.993377483443709,2.041170975814634
4.013245033112583,2.046171945415112
4.033112582781457,2.053685832157867
4.052980132450331,2.063656575487573
4.072847682119205,2.076010556395485
4.0927152317880795,2.090658013992143
4.112582781456953,2.1074946963010026
4.132450331125828,2.126403674745672
4.152317880794702,2.1472572512321517
4.172185430463576,2.1699188907322484
4.19205298013245,2.194245119867483
4.211920529801325,2.220087341991184
4.231788079470199,2.247293530469855
4.251655629139073,2.2757097732066693
4.271523178807947,2.3051816520822017
4.291390728476821,2.33555545032444
4.311258278145695,2.3666791885315
4.33112582781457,2.398403496044219
4.3509933774834435,2.430582328659615
4.370860927152318,2.463073546459961
4.390728476821192,2.4957393670400814
4.410596026490066,2.528446709904206
4.43046357615894,2.5610674475246444
4.450331125827815,2.59347857773365
4.470198675496689,2.6255623309503355
4.490066225165563,2.657206224379639
4.509933774834438,2.688303073879858
4.529801324503311,2.7187509727644033
4.549668874172186,2.7484532454410813
4.569536423841059,2.7773183825351273
4.589403973509934,2.8052599630109207
4.6092715231788075,2.832196567808847
4.629139072847682,2.858051688647683
4.649006622516556,2.882753634903091
4.66887417218543,2.906235440848378
4.688741721854305,2.928434775023946
4.708609271523179,2.9492938530741326
4.728476821192054,2.9687593550423474
4.748344370860927,2.9867823478362636
4.768211920529802,3.0033182133541088
4.788079470198675,3.018326582591037
4.80794701986755,3.031771275913586
4.827814569536423,3.0436202495927542
4.847682119205298,3.0538455486165352
4.867549668874172,3.062423265755326
4.887417218543046,3.0693335068247287
4.9072847682119205,3.074560362075334
4.927152317880794,3.078091883635987
4.947019867549669,3.079920068942459
4.966887417218543,3.080040850095599
4.986754966887418,3.0784540891099135
5.006622516556291,3.07516357903302
5.026490066225166,3.070177050938058
5.04635761589404,3.06350618681188
5.066225165562914,3.055166638381858
5.086092715231788,3.045178051940357
5.105960264900662,3.0335640992379425
5.125827814569536,3.0203525145212016
5.14569536423841,3.0055751377872966
5.1655629139072845,2.9892679643117135
5.185430463576159,2.971471200475359
5.205298013245033,2.952229325868668
5.225165562913908,2.9315911615786563
5.245033112582782,2.9096099444654273
5.264900662251656,2.886343407100586
5.28476821192053,2.8618538628651646
5.304635761589404,2.8362082954795196
5.324503311258278,2.8094784519539657
5.344370860927152,2.781740937595349
5.364238410596027,2.753077311270571
5.3841059602649,2.723574178600244
5.403973509933775,2.6933232801230242
5.4238410596026485,2.662421570721044
5.443708609271523,2.630971285720267
5.463576158940397,2.5990799880696183
5.483443708609272,2.566860589859687
5.503311258278146,2.5344313401731497
5.52317880794702,2.501915769886586
5.543046357615895,2.4694425826046262
5.562913907284768,2.4371454794625977
5.582781456953643,2.4051629041713336
5.602649006622516,2.373637693517584
5.622516556291391,2.342716617733213
5.642384105960264,2.312549794899985
5.662251655629139,2.2832899640936284
5.682119205298013,2.2550916035425184
5.701986754966887,2.228109882940182
5.7218543046357615,2.2024994434389096
5.741721854304636,2.1784130049286876
5.7615894039735105,2.155999808022339
5.781456953642384,2.1354039076007396
5.801324503311259,2.1167623454784237
5.821192052980132,2.1002032411283973
5.841059602649007,2.085843850596689
5.860927152317881,2.0737886536622936
5.880794701986755,2.064127536756108
5.900662251655629,2.0569341429637436
5.920529801324503,2.052264459630235
5.940397350993377,2.0501557080828303
5.960264900662251,2.0506255887682863
5.980132450331126,2.053671919274368
6.0,2.0592726834926753
6.0198675496688745,2.067386489279424
6.039735099337749,2.0779534113212903
6.059602649006623,2.0908961774197894
6.079470198675497,2.1061216416614497
6.099337748344371,2.1235224780168807
6.119205298013245,2.142979023254241
6.139072847682119,2.1643611984855378
6.158940397350993,2.1875304434933556
6.178807947019867,2.2123416061689833
6.198675496688741,2.2386447397308684
6.218543046357616,2.266286771703971
6.23841059602649,2.2951130198991003
6.258278145695365,2.3249685410412164
6.2781456953642385,2.355699306725384
6.298013245033113,2.3871532087459775
6.317880794701987,2.419180901475474
6.337748344370861,2.451636492947103
6.357615894039735,2.4843780988086883
6.377483443708609,2.5172682746015456
6.397350993377484,2.550174342138898
6.417218543046357,2.582968625356493
6.437086092715232,2.615528610107056
6.456953642384105,2.647737041152151
6.47682119205298,2.679481968218857
6.496688741721854,2.7106567515445037
6.516556291390729,2.741160035912352
6.5364238410596025,2.7708957008369355
6.556291390728477,2.7997727933243133
6.5761589403973515,2.827705448526404
6.596026490066225,2.854612802635773
6.6158940397351,2.8804189015260433
6.635761589403973,2.9050526079258003
6.655629139072848,2.9284475093101934
6.675496688741721,2.9505418281930282
6.695364238410596,2.971278336090056
6.715231788079469,2.9906042720900388
6.735099337748344,3.0084712667027746
6.754966887417219,3.024835271441824
6.774834437086093,3.0396564944361737
6.794701986754967,3.052899342240231
6.814569536423841,3.06453236792019
6.8344370860927155,3.0745282254287027
6.854304635761589,3.082863630236976
6.874172185430464,3.0895193261662035
6.894039735099337,3.0944800583488656
6.913907284768212,3.0977345522478457
6.933774834437086,3.0992754986688227
6.95364238410596,3.0990995447144067
6.973509933774834,3.0972072906453767
6.993377483443709,3.093603292634983
7.013245033112583,3.0882960714232026
7.033112582781457,3.081298126898417
7.052980132450331,3.0726259586534668
7.072847682119205,3.062300092577929
7.0927152317880795,3.0503451135590955
7.112582781456954,3.036789704366985
7.132450331125828,3.021666690792019
7.152317880794702,3.005013093085518
7.172185430463576,2.986870183718228
7.19205298013245,2.9672835514185305
7.211920529801324,2.946303171373955
7.231788079470198,2.9239834813720536
7.251655629139073,2.9003834635137156
7.271523178807947,2.875566730944785
7.291390728476822,2.8496016188141655
7.311258278145695,2.822561278365912
7.33112582781457,2.794523772701195
7.3509933774834435,2.7655721722893882
7.370860927152318,2.7357946477559154
7.390728476821192,2.7052845568136474
7.410596026490066,2.6741405214244938
7.430463576158941,2.6424664903696167
7.450331125827814,2.6103717813631455
7.470198675496689,2.5779710956701347
7.490066225165562,2.5453844968919683
7.509933774834438,2.512737344189243
7.52980132450331,2.480160168763721
7.549668874172186,2.447788480984524
7.569536423841059,2.415762494214242
7.589403973509934,2.384226750295995
7.6092715231788075,2.3533296309691862
7.629139072847682,2.3232227393917695
7.649006622516557,2.294060136695316
7.66887417218543,2.2659974203425186
7.6887417218543055,2.2391906342460333
7.708609271523178,2.213795005367936
7.728476821192054,2.1899635079897974
7.748344370860927,2.1678452650446984
7.768211920529802,2.147583805664091
7.788079470198675,2.129315209018454
7.80794701986755,2.1131661759609592
7.827814569536423,2.0992520810075033
7.847682119205298,2.0876750666884125
7.8675496688741715,2.0785222490781763
7.887417218543046,2.0718641062004775
7.907284768211921,2.0677531191150993
7.927152317880795,2.0662227283525625
7.9470198675496695,2.0672866560812437
7.966887417218543,2.070938627714666
7.986754966887418,2.0771525069315957
8.006622516556291,2.085882837055086
8.026490066225167,2.097065761373672
8.046357615894038,2.11062027714556
8.066225165562914,2.126449764202461
8.086092715231787,2.1444437202101794
8.105960264900663,2.1644796310605985
8.125827814569536,2.1864249062710015
8.14569536423841,2.210138814871676
8.165562913907285,2.2354743659832104
8.185430463576159,2.262280088914529
8.205298013245034,2.290401678992866
8.225165562913906,2.3196834864849842
8.245033112582782,2.3499698361422947
8.264900662251655,2.3811061736212755
8.28476821192053,2.412940042059416
8.304635761589404,2.44532189738493
8.324503311258278,2.4781057746167736
8.344370860927151,2.5111498196680855
8.364238410596027,2.5443167022480573
8.3841059602649,2.5774739256214345
8.403973509933774,2.610494048473059
8.42384105960265,2.6432548331508103
8.443708609271523,2.675639333301212
8.463576158940398,2.707535932507671
8.483443708609272,2.738838344096892
8.503311258278146,2.7694455808694305
8.52317880794702,2.799261902185224
8.543046357615895,2.8281967446239684
8.562913907284768,2.856164641358488
8.582781456953642,2.8830851344309516
8.602649006622515,2.9088826833036467
8.62251655629139,2.9334865723599304
8.642384105960264,2.9568308194469526
8.66225165562914,2.978854087066525
8.682119205298013,2.9994995974238106
8.701986754966887,3.018715052221248
8.721854304635762,3.03645255782888
8.741721854304636,3.052668556259267
8.76158940397351,3.0673237622192255
8.781456953642383,3.0803831063921012
8.801324503311259,3.09181568501713
8.821192052980132,3.1015947157716974
8.841059602649008,3.1096974999210554
8.86092715231788,3.116105390677244
8.880794701986755,3.120803767697871
8.90066225165563,3.1237820176558513
8.920529801324504,3.125033520818974
8.940397350993377,3.1245556435921573
8.960264900662251,3.122349736992936
8.980132450331126,3.118421141051037
9.0,3.112779195143883
9.019867549668875,3.1054372543001385
9.039735099337747,3.0964127115217135
9.059602649006623,3.0857270261885636
9.079470198675496,3.073405758619532
9.099337748344372,3.0594786108628824
9.119205298013245,3.043979473781075
9.139072847682119,3.026946480471431
9.158940397350994,3.008422066025654
9.178807947019868,2.9884530335712567
9.198675496688743,2.967090626453269
9.218543046357615,2.9443906062984184
9.23841059602649,2.920413336550541
9.258278145695364,2.8952238708667783
9.27814569536424,2.868892045511262
9.298013245033111,2.8414925745653927
9.317880794701987,2.8131051463816634
9.33774834437086,2.783814519228792
9.357615894039736,2.7537106134973017
9.37748344370861,2.72288859714512
9.397350993377483,2.6914489602511695
9.417218543046358,2.659497573602229
9.437086092715232,2.6271457251622192
9.456953642384107,2.594510127065248
9.47682119205298,2.561712884449123
9.496688741721854,2.52888141603251
9.516556291390728,2.4961483148843664
9.536423841059603,2.463651136410535
9.556291390728477,2.4315320992931544
9.57615894039735,2.39993768409905
9.596026490066224,2.36901811369913
9.6158940397351,2.338926699722041
9.635761589403973,2.3098190402430374
9.655629139072847,2.2818520560398574
9.675496688741722,2.255182856281388
9.695364238410596,2.2299674296589713
9.715231788079471,2.2063591638444384
9.735099337748345,2.1845072047425824
9.754966887417218,2.16455467708441
9.774834437086092,2.146636799026351
9.794701986754967,2.130878934864392
9.814569536423841,2.1173946407784174
9.834437086092716,2.1062837675451815
9.854304635761588,2.09763069018892
9.874172185430464,2.0915027364656633
9.894039735099337,2.087948883078817
9.913907284768213,2.086998780245858
9.933774834437086,2.088662151922499
9.95364238410596,2.0929286015187514
9.973509933774835,2.09976783275471
9.993377483443709,2.1091302742296474
10.013245033112582,2.1209480762712403
10.033112582781456,2.1351364314935997
10.052980132450331,2.1515951576165255
10.072847682119205,2.1702104733029146
10.09271523178808,2.190856895238791
10.112582781456952,2.213399187006618
10.132450331125828,2.237694296631358
10.152317880794701,2.263593228884502
10.172185430463577,2.290942809306028
10.192052980132452,2.3195873083190746
10.211920529801324,2.3493699048275807
10.2317880794702,2.3801339786150764
10.251655629139073,2.411724229272562
10.271523178807948,2.443987626082183
10.29139072847682,2.4767741982645326
10.311258278145695,2.509937678390948
10.331125827814569,2.5433360137798897
10.350993377483444,2.576831761588114
10.370860927152318,2.6102923833290013
10.390728476821192,2.643590453938101
10.410596026490065,2.676603799467696
10.43046357615894,2.709215576196988
10.450331125827816,2.741314302525716
10.470198675496688,2.772793853576149
10.490066225165563,2.803553427030306
10.509933774834437,2.8334974874226475
10.529801324503312,2.862535694919049
10.549668874172186,2.890582823554457
10.56953642384106,2.9175586729758174
10.589403973509933,2.94338797694061
10.609271523178808,2.968000311144757
10.629139072847682,2.9913300023874134
10.649006622516556,3.0133160406105284
10.66887417218543,3.033901994967548
10.688741721854305,3.053035934765232
10.70860927152318,3.0706703558753494
10.728476821192054,3.086762113018842
10.748344370860927,3.1012723581752084
10.7682119205298,3.114166485257115
10.788079470198676,3.1254140811077247
