Frequency (Hz),Amplitude
0.0,1.1523928653131237
0.04,1.1520147580221134
0.08,1.1508811641656573
0.12,1.1489942692459294
0.16,1.1463577206247548
0.19999999999999998,1.1429766348690362
0.24,1.138857608150663
0.27999999999999997,1.134008729817335
0.32,1.1284395992838279
0.36,1.12216134642643
0.39999999999999997,1.115186655695621
0.44,1.1075297941937103
0.48,1.0992066439938868
0.52,1.0902347390044962
0.5599999999999999,1.0806333067053417
0.6,1.0704233151001277
0.64,1.0596275252379295
0.6799999999999999,1.0482705496534466
0.72,1.036378917056788
0.76,1.0239811435624557
0.7999999999999999,1.0111078106774665
0.84,0.997791650160635
0.88,0.984067635708016
0.9199999999999999,0.9699730811991896
0.96,0.9555477449388139
1.0,0.9408339389274774
1.04,0.9258766416723968
1.0799999999999998,0.9107236123750237
1.1199999999999999,0.8954255034820187
1.1600000000000001,0.8800359675285673
1.2,0.8646117529140583
1.24,0.8492127817107442
1.28,0.8339022008135953
1.3199999999999998,0.818746395715101
1.3599999999999999,0.8038149539922839
1.4,0.7891805633380766
1.44,0.7749188268415825
1.48,0.7611079764976181
1.52,0.7478284649823508
1.5599999999999998,0.7351624160489151
1.5999999999999999,0.7231929160323256
1.64,0.7120031334892447
1.68,0.701675261443678
1.72,0.6922892873559611
1.76,0.6839216096810031
1.7999999999999998,0.676643536064531
1.8399999999999999,0.6705197154827772
1.88,0.6656065729045337
1.92,0.6619508277745908
1.9599999999999997,0.6595881840989255
2.0,0.6585422779262762
2.0399999999999996,0.6588239564197194
2.08,0.6604309419121995
2.12,0.6633479064763392
2.1599999999999997,0.6675469511795237
2.2,0.672988453647363
2.2399999999999998,0.6796222219555492
2.28,0.6873888753099893
2.3200000000000003,0.6962213639644386
2.36,0.7060465421617684
2.4,0.7167867169536408
2.44,0.728361110084791
2.48,0.7406871870223991
2.5199999999999996,0.7536818242554317
2.56,0.7672623013754083
2.6,0.7813471170842478
2.6399999999999997,0.7958566377182411
2.68,0.8107135931963623
2.7199999999999998,0.8258434388862901
2.76,0.8411746032814674
2.8,0.8566386411785777
2.84,0.8721703107694165
2.88,0.8877075911568915
2.92,0.9031916546099503
2.96,0.9185668056276189
2.9999999999999996,0.9337803967445425
3.04,0.9487827290714514
3.08,0.9635269438674878
3.1199999999999997,0.9779689099984081
3.16,0.9920671109358078
3.1999999999999997,1.0057825339760917
3.2399999999999998,1.0190785635768709
3.28,1.0319208800943822
3.32,1.0442773647305217
3.36,1.0561180111374515
3.4,1.0674148438590922
3.44,1.0781418435935561
3.4799999999999995,1.0882748791230124
3.52,1.0977916456646144
3.5599999999999996,1.106671609337678
3.5999999999999996,1.1148959574099462
3.64,1.1224475539729164
3.6799999999999997,1.1293109006977762
3.7199999999999998,1.135472102335542
3.76,1.1409188366444816
3.7999999999999994,1.145640328452583
3.84,1.149627327591035
3.88,1.1528720904651146
3.9199999999999995,1.155368365060789
3.96,1.1571113792179233
4.0,1.1580978320340969
4.04,1.1583258882962106
4.079999999999999,1.1577951758702874
4.12,1.1565067860130664
4.16,1.1544632766021494
4.199999999999999,1.1516686783146266
4.24,1.148128503817185
4.28,1.1438497600639532
4.319999999999999,1.1388409638314196
4.36,1.1331121606527317
4.4,1.1266749473463016
4.4399999999999995,1.1195424983655242
4.4799999999999995,1.111729596226963
4.5200000000000005,1.103252666302784
4.56,1.0941298162883955
4.6,1.0843808806765713
4.640000000000001,1.07402747058255
4.68,1.0630930292680978
4.72,1.0516028937023696
4.76,1.0395843624687444
4.8,1.0270667702737002
4.84,1.0140815692280252
4.88,1.0006624169426002
4.92,0.9868452712982857
4.96,0.9726684914972652
5.0,0.9581729446634688
5.039999999999999,0.9434021168114768
5.08,0.9284022264224067
5.12,0.913222338124937
5.159999999999999,0.897914473052001
5.2,0.8825337113017173
5.24,0.8671382805522937
5.279999999999999,0.8517896232530762
5.319999999999999,0.8365524329437197
5.36,0.8214946481766882
5.3999999999999995,0.8066873903142644
5.4399999999999995,0.792204829279937
5.48,0.778123959383002
5.52,0.7645242659158855
5.56,0.7514872627576531
5.6,0.7390958822094744
5.64,0.7274337013011171
5.68,0.7165839943941628
5.72,0.7066286104946398
5.76,0.6976466854254564
5.8,0.6897132135951276
5.84,0.6828975206208547
5.879999999999999,0.6772616949159052
5.92,0.6728590512988074
5.96,0.6697327101189546
5.999999999999999,0.6679143788034451
6.04,0.667423417276062
6.08,0.6682662537985885
6.119999999999999,0.6704361944740286
6.16,0.6739136405842457
6.2,0.6786666969441055
6.239999999999999,0.6846521257792497
6.279999999999999,0.6918165780225163
6.32,0.7000980198821579
6.359999999999999,0.709427267936788
6.3999999999999995,0.7197295501343488
6.44,0.7309260209908758
6.4799999999999995,0.7429351744555905
6.52,0.7556741147524283
6.56,0.7690596618476201
6.6,0.7830092824947205
6.64,0.7974418492243017
6.68,0.8122782379240867
6.72,0.8274417799776633
6.76,0.8428585877388451
6.8,0.8584577729676318
6.84,0.8741715772992664
6.88,0.8899354323545107
6.92,0.9056879651272888
6.959999999999999,0.9213709621058687
7.0,0.93692930340484
7.04,0.9523108761400801
7.08,0.9674664744429592
7.119999999999999,0.9823496919151137
7.16,0.9969168109767667
7.199999999999999,1.0111266924458415
7.239999999999999,1.024940667779925
7.28,1.0383224356913887
7.32,1.0512379642799452
7.359999999999999,1.0636553993905038
7.3999999999999995,1.0755449795738083
7.4399999999999995,1.0868789577820137
7.4799999999999995,1.0976315297539587
7.52,1.1077787689207022
7.5600000000000005,1.1172985675788933
7.599999999999999,1.1261705840281708
7.64,1.1343761953415725
7.68,1.141898455428523
7.719999999999999,1.148722058053796
7.76,1.154833304489365
7.800000000000001,1.1602200754964014
7.839999999999999,1.1648718073596998
7.88,1.1687794717251399
7.92,1.1719355590211504
7.959999999999999,1.1743340652768144
8.0,1.175970482181687
8.040000000000001,1.1768417902651032
8.08,1.1769464551057807
8.12,1.1762844265154149
8.159999999999998,1.1748571406730068
8.2,1.1726675252194434
8.24,1.1697200073549676
8.28,1.166020525014775
8.32,1.1615765412310541
8.36,1.1563970618221935
8.399999999999999,1.150492656582333
8.44,1.1438754841760255
8.48,1.136559320973327
8.52,1.1285595940893565
8.56,1.1198934189182148
8.6,1.1105796414730147
8.639999999999999,1.1006388858593736
8.68,1.090093607217071
8.72,1.0789681504600368
8.76,1.0672888151246327
8.8,1.055083926594383
8.84,1.0423839138996887
8.879999999999999,1.0292213941844781
8.92,1.0156312637777827
8.959999999999999,1.0016507955937022
9.0,0.987319742292265
9.040000000000001,0.9726804442475762
9.079999999999998,0.9577779408666822
9.12,0.9426600831583632
9.16,0.9273776446394151
9.2,0.9119844266608896
9.24,0.8965373530139722
9.280000000000001,0.8810965472186524
9.32,0.8657253842046176
9.36,0.850490506182243
9.399999999999999,0.8354617904260134
9.44,0.8207122545558089
9.48,0.806317882870551
9.52,0.7923573556126836
9.559999999999999,0.7789116620615607
9.6,0.7660635785032356
9.639999999999999,0.7538969939127691
9.68,0.7424960701513398
9.72,0.7319442301078587
9.76,0.7223229768101358
9.8,0.7137105590682058
9.84,0.7061805141731796
9.879999999999999,0.6998001344222959
9.92,0.6946289199937061
9.959999999999999,0.6907170936578332
10.0,0.6881042604946748
10.04,0.6868182959913506
10.079999999999998,0.6868745372778516
10.12,0.6882753348166429
10.16,0.6910099971489454
10.2,0.6950551322862383
10.24,0.7003753598657252
10.280000000000001,0.7069243422023791
10.319999999999999,0.7146460630840384
10.36,0.7234762724639069
10.4,0.7333440134385968
10.44,0.7441731539827515
10.48,0.7558838577953586
10.52,0.7683939438375962
10.559999999999999,0.7816201003457679
10.6,0.7954789343827924
10.639999999999999,0.8098878510710354
10.68,0.8247657668815489
10.72,0.8400336686161736
10.76,0.8556150342514591
10.799999999999999,0.8714361340677431
10.84,0.8874262309918793
10.879999999999999,0.9035176983538767
10.92,0.9196460717452661
10.96,0.9357500497299177
11.0,0.9517714560623776
11.04,0.9676551739987799
11.08,0.983349061355738
11.12,0.998803853247398
11.16,1.0139730579360824
11.2,1.0288128499695053
11.24,1.0432819637337485
11.28,1.0573415897040517
11.319999999999999,1.0709552749996547
11.36,1.0840888293184847
11.4,1.0967102369180188
11.44,1.1087895749980827
11.48,1.120298938610628
11.52,1.1312123720542766
11.559999999999999,1.141505806594081
11.6,1.1511570042685655
11.64,1.1601455074974836
11.68,1.1684525941778907
11.72,1.1760612379473465
11.759999999999998,1.182956073296876
11.799999999999999,1.1891233652294253
11.84,1.1945509831791719
11.879999999999999,1.199228378931446
11.92,1.203146568310464
11.96,1.2062981164316846
11.999999999999998,1.208677126346548
12.04,1.210279230939069
12.08,1.2111015879659517
12.12,1.211142878164261
12.16,1.21040330638315
12.200000000000001,1.2088846057286586
12.239999999999998,1.2065900447429687
12.28,1.2035244376719119
12.32,1.19969415790672
12.36,1.1951071547180308
12.4,1.1897729734317293
12.44,1.183702779227184
12.479999999999999,1.1769093847681802
12.52,1.1694072819050054
12.559999999999999,1.1612126777116218
12.6,1.1523435351435642
12.64,1.1428196186184654
12.68,1.1326625448297964
12.719999999999999,1.121895839102696
12.76,1.110544997584825
12.799999999999999,1.0986375555306476
12.84,1.0862031618779233
12.88,1.0732736602235327
12.92,1.0598831761722096
12.959999999999999,1.0460682108452812
12.999999999999998,1.031867740083047
13.04,1.0173233185377224
13.08,1.0024791874146304
13.12,0.987382384056373
13.16,0.9720828508542503
13.2,0.9566335400894488
13.239999999999998,0.941090510230573
13.28,0.9255130079266052
13.32,0.9099635284270746
13.36,0.8945078454436495
13.4,0.8792149995755284
13.44,0.8641572324288936
13.479999999999999,0.8494098515960075
13.52,0.8350510099155445
13.559999999999999,0.8211613811859866
13.6,0.8078237141060625
13.64,0.795122247105166
13.68,0.7831419693864902
13.719999999999999,0.7719677184110909
13.76,0.7616831115771561
13.799999999999999,0.7523693201456033
13.84,0.7441037063133842
13.88,0.7369583590212786
13.919999999999998,0.7309985793086663
13.959999999999999,0.7262813799521554
14.0,0.7228540745469832
14.04,0.7207530358960619
14.08,0.7200027008069056
14.120000000000001,0.7206148873524213
14.16,0.7225884718202447
14.2,0.7259094478418483
14.239999999999998,0.7305513625770306
14.28,0.7364760979275751
14.32,0.7436349420116742
14.36,0.7519698801648758
14.399999999999999,0.7614150268827825
14.44,0.7718981203346277
14.479999999999999,0.7833420081257355
14.52,0.7956660648877599
14.56,0.808787496786101
14.6,0.8226225030790514
14.64,0.8370872788181223
14.68,0.852098854587667
14.719999999999999,0.8675757783391678
14.76,0.8834386508228135
14.799999999999999,0.8996105301048776
14.84,0.9160172226033055
14.879999999999999,0.9325874784542717
14.919999999999998,0.9492531083023676
14.959999999999999,0.9659490371862347
15.0,0.9826133093911207
15.04,0.9991870561975215
15.079999999999998,1.0156144365354896
15.120000000000001,1.0318425587618087
15.159999999999998,1.047821390169747
15.199999999999998,1.0635036594435312
15.24,1.0788447560844667
15.28,1.0938026298511139
15.319999999999999,1.1083376924530381
15.36,1.1224127230936845
15.399999999999999,1.1359927789493818
15.439999999999998,1.1490451112765363
15.48,1.161539087537265
15.52,1.173446119707639
15.559999999999999,1.1847395987672158
15.600000000000001,1.1953948352509625
15.639999999999999,1.2053890056647434
15.679999999999998,1.2147011045145972
15.72,1.2233119016715266
15.76,1.2312039047818129
15.799999999999999,1.2383613264339441
15.84,1.2447700558034887
15.879999999999999,1.2504176345146225
15.919999999999998,1.2552932364787999
15.96,1.2593876514968105
16.0,1.2626932724380244
16.04,1.2652040858400841
16.080000000000002,1.2669156658025642
16.12,1.2678251710790618
16.16,1.267931345303283
16.200000000000003,1.2672345203161666
16.24,1.265736622592296
16.279999999999998,1.2634411827951293
16.319999999999997,1.2603533485215874
16.36,1.2564799003271216
16.4,1.251829271152595
16.439999999999998,1.246411569303428
16.48,1.240238605159517
16.52,1.2333239218206058
16.56,1.2256828299152465
16.6,1.2173324468211801
16.64,1.20829174055962
16.68,1.1985815786330984
16.72,1.1882247820743514
16.759999999999998,1.1772461849584042
16.799999999999997,1.1656726995977313
16.84,1.153533387585944
16.88,1.1408595367720942
16.919999999999998,1.127684744127855
16.96,1.114045004303377
17.0,1.0999788034429598
17.04,1.0855272175351447
17.080000000000002,1.0707340141869102
17.12,1.0556457562208468
17.16,1.0403119048771838
17.2,1.024784919639614
17.24,1.0091203507749797
17.279999999999998,0.9933769195668226
17.32,0.9776165799227634
17.36,0.9619045535501437
17.4,0.9463093292481699
17.44,0.9309026151114205
17.48,0.9157592306736152
17.52,0.9009569243875714
17.56,0.8865761005461029
17.6,0.8726994390770234
17.64,0.8594113919382885
17.68,0.846797541494158
17.72,0.8349438096812316
17.759999999999998,0.8239355123406963
17.799999999999997,0.8138562610289355
17.84,0.8047867249069192
17.88,0.7968032775724444
17.919999999999998,0.78997656711016
17.96,0.7843700608868103
18.0,0.7800386280059084
18.04,0.7770272299520797
18.080000000000002,0.7753697920246819
18.12,0.7750883234303235
18.159999999999997,0.7761923420156034
18.2,0.7786786413386957
18.24,0.7825314149814571
18.279999999999998,0.787722728409207
18.32,0.7942133053522475
18.36,0.8019535764193698
18.4,0.8108849245004804
18.44,0.8209410554272215
18.48,0.8320494231591695
18.52,0.8441326453339381
18.560000000000002,0.857109855663923
18.6,0.8708979524935829
18.64,0.8854127161109805
18.679999999999996,0.9005697797698504
18.72,0.9162854499232957
18.759999999999998,0.9324773794508546
18.799999999999997,0.9490651036033324
18.84,0.9659704521816964
18.88,0.9831178534466654
18.919999999999998,1.0004345458225303
18.96,1.017850713005872
19.0,1.0352995569649277
19.04,1.052717321802414
19.080000000000002,1.07004327977049
19.119999999999997,1.0872196890249237
19.159999999999997,1.1041917310879916
19.2,1.1209074345165575
19.24,1.1373175899724672
19.279999999999998,1.153375660775548
19.32,1.1690376920795011
19.36,1.1842622210341653
19.4,1.1990101896661665
19.44,1.2132448617043285
19.48,1.2269317441777348
19.52,1.240038514304585
19.560000000000002,1.2525349519539581
19.6,1.2643928777857776
19.639999999999997,1.2755860970452502
19.68,1.2860903488970545
19.72,1.2958832611232285
19.759999999999998,1.3049443099707871
19.8,1.313254784915013
19.84,1.3207977580979748
19.88,1.327558058205899
19.919999999999998,1.333522248560796
19.96,1.338678609219242
20.0,1.3430171228930323
20.04,1.3465294645310424
20.08,1.3492089944287091
20.119999999999997,1.3510507547598685
20.159999999999997,1.352051469455164
20.2,1.3522095473813653
20.24,1.3515250888065573
20.279999999999998,1.3499998951668541
20.32,1.347637482181143
20.36,1.344443096391053
20.4,1.3404237352335135
20.44,1.3355881707829225
20.48,1.3299469773283596
20.52,1.3235125629780762
20.560000000000002,1.3162992055079514
20.599999999999998,1.3083230926914429
20.639999999999997,1.299602367364824
20.68,1.2901571774910134
20.72,1.2800097314860959
20.759999999999998,1.2691843590614136
20.8,1.2577075778076068
20.84,1.2456081656997613
20.88,1.2329172396297006
20.92,1.2196683399646295
20.96,1.2058975209820841
21.0,1.1916434468287678
21.04,1.1769474923825014
21.08,1.1618538480475404
21.119999999999997,1.1464096270668467
21.159999999999997,1.1306649733722574
21.2,1.114673167295006
21.24,1.0984907256055954
21.279999999999998,1.0821774913264466
21.32,1.0657967075516241
21.36,1.0494150681133025
21.4,1.033102736369216
21.44,1.0169333216870748
21.48,1.0009838014427779
21.52,0.985334374645326
21.56,0.97006823182351
21.599999999999998,0.9552712247927378
21.639999999999997,0.941031419665424
21.68,0.9274385173353782
21.72,0.9145831280507197
21.759999999999998,0.9025558909764544
21.8,0.8914464361430144
21.84,0.8813421950127566
21.88,0.8723270769239129
21.92,0.8644800413579266
21.96,0.8578736093414248
22.0,0.8525723699178136
22.04,0.8486315477638507
22.08,0.8460957038548241
22.119999999999997,0.8449976410212615
22.16,0.8453575793376188
22.2,0.8471826525264631
22.24,0.8504667570262944
22.28,0.8551907621391003
22.32,0.8613230654993004
22.36,0.8688204559140851
22.4,0.8776292279613312
22.44,0.8876864813164803
22.48,0.8989215332718015
22.519999999999996,0.9112573749224664
22.56,0.924612108811187
22.599999999999998,0.9389003167592636
22.639999999999997,0.954034319366256
22.68,0.9699253016190307
22.72,0.9864842909725039
22.759999999999998,1.0036229843513882
22.8,1.0212544283968699
22.84,1.039293562907277
22.88,1.0576576409933067
22.92,1.0762665413176375
22.96,1.0950429882961872
23.0,1.113912695677026
23.04,1.1328044478119388
23.08,1.151650131463629
23.119999999999997,1.1703847293537757
23.16,1.1889462850004915
23.2,1.2072758468150506
23.24,1.2253173979859153
23.28,1.2430177774022542
23.32,1.2603265957681913
23.36,1.277196150129135
23.400000000000002,1.2935813392598425
23.44,1.3094395817339628
23.479999999999997,1.3247307379887026
23.519999999999996,1.3394170372971834
23.56,1.3534630102488774
23.599999999999998,1.3668354270993288
23.639999999999997,1.379503242170886
23.68,1.391437544355486
23.72,1.4026115136781419
23.759999999999998,1.4130003838186784
23.8,1.422581410452124
23.84,1.431333845250497
23.88,1.4392389153855576
23.92,1.4462798083808843
23.96,1.4524416621791516
23.999999999999996,1.457711560315167
24.04,1.462078532115173
24.08,1.4655335578773638
24.119999999999997,1.4680695790262446
24.16,1.469681513273888
24.2,1.4703662748640396
24.24,1.470122800019181
24.28,1.468952077757112
24.32,1.4668571862901831
24.36,1.4638433352683424
24.400000000000002,1.459917914174527
24.439999999999998,1.4550905472282758
24.479999999999997,1.449373155198302
24.52,1.4427800245669782
24.56,1.4353278845264248
24.599999999999998,1.4270359923150047
24.64,1.4179262274208264
24.68,1.40802319518111
24.72,1.397354340286753
24.759999999999998,1.3859500706530512
24.8,1.3738438920304012
24.84,1.3610725535913535
24.88,1.3476762045274258
24.92,1.3336985614029349
24.959999999999997,1.319187085621466
24.999999999999996,1.3041931698382476
25.04,1.2887723314684458
25.08,1.2729844105642534
25.119999999999997,1.2568937682270085
25.16,1.240569480348551
25.2,1.2240855198065852
25.24,1.207520918249365
25.28,1.190959896290252
25.32,1.1744919483181475
25.36,1.158211865283978
25.4,1.1422196758797882
25.439999999999998,1.1266204837010731
25.479999999999997,1.1115241755940528
25.52,1.0970449748737516
25.56,1.0833008130093136
25.599999999999998,1.0704124953575407
25.64,1.05850264127008
25.68,1.0476943870246251
25.72,1.0381098519456273
25.76,1.0298683837959979
25.8,1.0230846184577072
25.84,1.0178664097518924
25.880000000000003,1.0143127058715569
25.919999999999998,1.0125114665582116
25.959999999999997,1.0125377268063227
25.999999999999996,1.0144519157470067
26.04,1.0182985315864446
26.08,1.0241052546958616
26.119999999999997,1.0318825526320665
26.16,1.0416237961985522
26.2,1.0533058690203656
26.24,1.066890219223315
26.28,1.0823242748007176
26.32,1.0995431268761064
26.36,1.118471378334275
26.4,1.1390250584953816
26.439999999999998,1.1611135156484582
26.479999999999997,1.1846412156358388
26.52,1.2095093934805137
26.56,1.2356175238320692
26.599999999999998,1.2628645929681417
26.64,1.2911501691376384
26.68,1.3203752787252068
26.72,1.3504431031073687
26.76,1.3812595155355216
26.8,1.412733479461406
26.84,1.4447773300018998
26.88,1.4773069592688985
26.919999999999998,1.5102419245327758
26.959999999999997,1.5435054960112542
27.0,1.5770246587503616
27.04,1.6107300807756872
27.08,1.6445560575578424
27.119999999999997,1.6784404409199436
27.16,1.7123245588447493
27.2,1.746153131216739
27.24,1.779874185346321
27.28,1.8134389741473738
27.32,1.846801899049075
27.36,1.8799204390917263
27.4,1.9127550871580352
27.439999999999998,1.945269293902976
27.479999999999997,1.9774294196458042
27.52,2.00920469425972
27.56,2.040567184922558
27.599999999999998,2.071491771463741
27.64,2.101956128947457
27.68,2.131940717062444
27.72,2.16142877583665
27.76,2.1904063271561363
27.8,2.2188621815369944
27.839999999999996,2.246787949573268
27.88,2.2741780574605466
27.919999999999998,2.301029765971535
27.959999999999997,2.3273431922352947
28.0,2.353121333644291
28.04,2.378370093182583
