Frequency (Hz),Amplitude
0.0,2.778476246371617
0.019867549668874173,2.778263364929951
0.039735099337748346,2.7776254544561203
0.059602649006622516,2.7765647149422272
0.07947019867549669,2.775084807829593
0.09933774834437085,2.7731908481641563
0.11920529801324503,2.770889393561675
0.13907284768211922,2.768188429930889
0.15894039735099338,2.7650973538890016
0.17880794701986755,2.7616269517906633
0.1986754966887417,2.757789375279262
0.2185430463576159,2.7535981132582523
0.23841059602649006,2.7490679601704073
0.2582781456953642,2.7442149804646
0.27814569536423844,2.7390564691236507
0.2980132450331126,2.7336109081224347
0.31788079470198677,2.727897918684055
0.33774834437086093,2.721938209203425
0.3576158940397351,2.7157535187120323
0.3774834437086093,2.7093665557663176
0.3973509933774834,2.7028009326545868
0.4172185430463576,2.696081094834187
0.4370860927152318,2.6892322455328266
0.45695364238410596,2.6822802654747835
0.4768211920529801,2.675251627725409
0.49668874172185434,2.6681733076855494
0.5165562913907285,2.661072688311639
0.5364238410596026,2.653977460687099
0.5562913907284769,2.646915520126306
0.5761589403973509,2.639914858053405
0.5960264900662252,2.633003449964048
0.6158940397350993,2.626209139848455
0.6357615894039735,2.619559521527375
0.6556291390728477,2.6130818174283035
0.6754966887417219,2.6068027554057784
0.695364238410596,2.6007484442850863
0.7152317880794702,2.5949442488820833
0.7350993377483444,2.5894146653206205
0.7549668874172186,2.584183197531222
0.7748344370860927,2.5792722358687286
0.7947019867549668,2.574702938829487
0.8145695364238411,2.570495118879507
0.8344370860927152,2.56666713342083
0.8543046357615894,2.5632357819237104
0.8741721854304636,2.56021621023477
0.8940397350993378,2.5576218230363614
0.9139072847682119,2.5554642053783296
0.9337748344370861,2.5537530541319824
0.9536423841059603,2.552496120126349
0.9735099337748344,2.5516991616215052
0.9933774834437087,2.551365909654171
1.0132450331125828,2.551498045658677
1.033112582781457,2.5520951916260857
1.0529801324503312,2.553154912916992
1.0728476821192052,2.5546727336944
1.0927152317880795,2.556642164793989
1.1125827814569538,2.559054743704717
1.1324503311258278,2.5619000861956365
1.1523178807947019,2.565165948997866
1.1721854304635762,2.5688383028372725
1.1920529801324504,2.572901415014656
1.2119205298013245,2.577337940648833
1.2317880794701985,2.582129021633845
1.2516556291390728,2.5872543923164533
1.271523178807947,2.5926924908725995
1.2913907284768211,2.5984205753524248
1.3112582781456954,2.6044148433707215
1.3311258278145695,2.610650554442378
1.3509933774834437,2.617102153999005
1.370860927152318,2.6237433981709954
1.390728476821192,2.6305474784770024
1.410596026490066,2.637487145628777
1.4304635761589404,2.6445348317298456
1.4503311258278146,2.6516627702214075
1.4701986754966887,2.6588431130051164
1.4900662251655628,2.6660480442485777
1.5099337748344372,2.673249890454375
1.5298013245033113,2.6804212264456013
1.5496688741721854,2.6875349769891153
1.5695364238410596,2.694564513841782
1.5894039735099337,2.701483748063656
1.609271523178808,2.708267217495052
1.6291390728476822,2.714890169342043
1.6490066225165563,2.721328637856419
1.6688741721854303,2.7275595171318776
1.6887417218543048,2.7335606290683354
1.7086092715231789,2.739310786581213
1.728476821192053,2.744789852152089
1.7483443708609272,2.749978791832218
1.7682119205298013,2.754859724821161
1.7880794701986755,2.759415968749606
1.8079470198675496,2.763632080798682
1.8278145695364238,2.7674938947882994
1.847682119205298,2.7709885543645076
1.8675496688741722,2.774104542410829
1.8874172185430464,2.7768317068016226
1.9072847682119205,2.77916128260665
1.9271523178807946,2.781085910845965
1.9470198675496688,2.782599653882557
1.9668874172185429,2.7836980075280295
1.9867549668874174,2.7843779099231534
2.0066225165562916,2.784637747241505
2.0264900662251657,2.7844773562500946
2.0463576158940397,2.783898023746485
2.066225165562914,2.7829024828772813
2.086092715231788,2.7814949063283603
2.1059602649006623,2.7796808963629474
2.1258278145695364,2.777467471669464
2.1456953642384105,2.7748630509676873
2.165562913907285,2.7718774333089224
2.185430463576159,2.768521774993745
2.205298013245033,2.764808563019874
2.2251655629139075,2.7607515849631623
2.2450331125827816,2.7563658951862138
2.2649006622516556,2.7516677772625817
2.2847682119205297,2.7466747025003957
2.3046357615894038,2.741405284446382
2.324503311258278,2.735879229252513
2.3443708609271523,2.73011728179038
2.364238410596027,2.7241411674055485
2.384105960264901,2.717973529214602
2.403973509933775,2.7116378608622433
2.423841059602649,2.7051584346747988
2.443708609271523,2.69856022517027
2.463576158940397,2.6918688279138565
2.4834437086092715,2.6851103737417903
2.5033112582781456,2.6783114384158355
2.52317880794702,2.671498947815094
2.543046357615894,2.6647000788223796
2.562913907284768,2.657942156116757
2.5827814569536423,2.651252545144308
2.6026490066225163,2.6446585416023787
2.622516556291391,2.6381872578403027
2.642384105960265,2.6318655066487913
2.662251655629139,2.6257196829812974
2.6821192052980134,2.619775644221166
2.7019867549668874,2.614058589677677
2.7218543046357615,2.6085929400594527
2.741721854304636,2.6034022177345673
2.76158940397351,2.5985089286400385
2.781456953642384,2.593934446747805
2.801324503311258,2.589698902028103
2.821192052980132,2.5858210728722644
2.8410596026490067,2.582318283943857
2.8609271523178808,2.5792063104188974
2.8807947019867552,2.576499289550938
2.9006622516556293,2.574209640455459
2.9205298013245033,2.572347992949487
2.9403973509933774,2.5709231262072914
2.9602649006622515,2.569941917902659
2.9801324503311255,2.569409304403471
3.0,2.569328252467444
3.0198675496688745,2.569699742761234
3.0397350993377485,2.57052276539108
3.0596026490066226,2.5717943274949016
3.0794701986754967,2.57350947280649
3.0993377483443707,2.575661312965042
3.119205298013245,2.5782410702107312
3.1390728476821192,2.5812381309827814
3.1589403973509933,2.584640109822573
3.1788079470198674,2.588432922883001
3.198675496688742,2.592600870258949
3.218543046357616,2.5971267262827613
3.23841059602649,2.601991836874785
3.2582781456953644,2.607176223001693
3.2781456953642385,2.612658689275181
3.2980132450331126,2.6184169367192265
3.3178807947019866,2.6244276787452288
3.3377483443708607,2.6306667593987227
3.3576158940397347,2.637109272978454
3.3774834437086096,2.6437296841755016
3.3973509933774837,2.650501947935938
3.4172185430463577,2.657399628312793
3.437086092715232,2.6643960156398125
3.456953642384106,2.6714642414295255
3.47682119205298,2.678577390469192
3.4966887417218544,2.685708609658963
3.5165562913907285,2.692831213205819
3.5364238410596025,2.6999187838538607
3.556291390728477,2.7069452698939167
3.576158940397351,2.7138850777548713
3.596026490066225,2.7207131600326204
3.615894039735099,2.7274050988617065
3.6357615894039736,2.733937184577963
3.6556291390728477,2.740286489658794
3.6754966887417218,2.7464309379603904
3.695364238410596,2.7523493692990533
3.7152317880794703,2.758021599446219
3.7350993377483444,2.7634284756250906
3.754966887417219,2.7685519276105843
3.774834437086093,2.7733750145438885
3.794701986754967,2.7778819675794364
3.814569536423841,2.7820582284849995
3.834437086092715,2.7858904843155954
3.854304635761589,2.7893666982798595
3.8741721854304636,2.792476136912604
3.8940397350993377,2.7952093936610902
3.9139072847682117,2.7975584089843673
3.9337748344370858,2.79951648705567
3.9536423841059607,2.8010783091474263
3.9735099337748347,2.802239943766941
3.993377483443709,2.8029988535989943
4.013245033112583,2.8033538992988287
4.033112582781457,2.80330534016635
4.052980132450331,2.8028548317192454
4.072847682119205,2.802005420169643
4.0927152317880795,2.8007615337962877
4.112582781456953,2.7991289711911405
4.132450331125828,2.79711488634781
4.152317880794702,2.794727770546843
4.172185430463576,2.7919774309827083
4.19205298013245,2.7888749660671674
4.211920529801325,2.785432737334777
4.231788079470199,2.781664337869159
4.251655629139073,2.7775845571624305
4.271523178807947,2.773209342316275
4.291390728476821,2.7685557554910303
4.311258278145695,2.7636419275092674
4.33112582781457,2.7584870075233776
4.3509933774834435,2.753111108662181
4.370860927152318,2.7475352495807592
4.390728476821192,2.741781291849689
4.410596026490066,2.7358718731365226
4.43046357615894,2.72983033615192
4.450331125827815,2.7236806533577895
4.470198675496689,2.71744734746299
4.490066225165563,2.7111554077660265
4.509933774834438,2.704830202441468
4.529801324503311,2.6984973869094286
4.549668874172186,2.692182808474112
4.569536423841059,2.685912407467637
4.589403973509934,2.679712115190042
4.6092715231788075,2.6736077489929775
4.629139072847682,2.6676249049143674
4.649006622516556,2.661788848331324
4.66887417218543,2.6561244031601623
4.688741721854305,2.650655840191163
4.708609271523179,2.6454067652039996
4.728476821192054,2.6404000075625977
4.748344370860927,2.635657510036391
4.768211920529802,2.631200220636492
4.788079470198675,2.6270479872871277
4.80794701986755,2.623219456175892
4.827814569536423,2.6197319746372907
4.847682119205298,2.616601499422749
4.867549668874172,2.6138425111956027
4.887417218543046,2.61146793606091
4.9072847682119205,2.60948907489668
4.927152317880794,2.607915541196229
4.947019867549669,2.606755208060372
4.966887417218543,2.6060141648949617
4.986754966887418,2.6056966842743656
5.006622516556291,2.605805199327169
5.026490066225166,2.606340291888773
5.04635761589404,2.6073006915477843
5.066225165562914,2.608683285594077
5.086092715231788,2.6104831397551185
5.105960264900662,2.6126935294903246
5.125827814569536,2.615305981499636
5.14569536423841,2.6183103249969193
5.1655629139072845,2.621694752202533
5.185430463576159,2.625445887423339
5.205298013245033,2.6295488640164066
5.225165562913908,2.6339874084721764
5.245033112582782,2.638743930808274
5.264900662251656,2.6437996204335454
5.28476821192053,2.6491345466253615
5.304635761589404,2.6547277627595
5.324503311258278,2.6605574134415
5.344370860927152,2.666600843709203
5.364238410596027,2.672834709507489
5.3841059602649,2.6792350886762457
5.403973509933775,2.685777591739837
5.4238410596026485,2.6924374718395074
5.443708609271523,2.6991897332071706
5.463576158940397,2.7060092376388125
5.483443708609272,2.7128708084870166
5.503311258278146,2.7197493317529404
5.52317880794702,2.7266198539182436
5.543046357615895,2.7334576762152794
5.562913907284768,2.740238445089115
5.582781456953643,2.7469382386564147
5.602649006622516,2.7535336490139946
5.622516556291391,2.760001860293456
5.642384105960264,2.7663207223969697
5.662251655629139,2.7724688203841272
5.682119205298013,2.778425539509462
5.701986754966887,2.7841711259359148
5.7218543046357615,2.789686743170785
5.741721854304636,2.794954524287893
5.7615894039735105,2.799957620013395
5.781456953642384,2.804680242762607
5.801324503311259,2.809107706721849
5.821192052980132,2.813226464073842
5.841059602649007,2.8170241374657725
5.860927152317881,2.820489548819286
5.880794701986755,2.823612744577625
5.900662251655629,2.8263850174816665
5.920529801324503,2.8287989249597945
5.940397350993377,2.830848304209492
5.960264900662251,2.8325282840404014
5.980132450331126,2.833835293539295
6.0,2.8347670676076873
6.0198675496688745,2.835322649412999
6.039735099337749,2.8355023897832554
6.059602649006623,2.8353079435652186
6.079470198675497,2.834742262955281
6.099337748344371,2.833809587801695
6.119205298013245,2.8325154328676696
6.139072847682119,2.8308665720342208
6.158940397350993,2.828871019413724
6.178807947019867,2.8265380073364663
6.198675496688741,2.823877961165683
6.218543046357616,2.8209024708899593
6.23841059602649,2.817624259437998
6.258278145695365,2.8140571476565643
6.2781456953642385,2.810216015891282
6.298013245033113,2.806116762110293
6.317880794701987,2.8017762565128406
6.337748344370861,2.7972122925697867
6.357615894039735,2.7924435344501117
6.377483443708609,2.7874894607975027
6.397350993377484,2.7823703048339636
6.417218543046357,2.7771069907832966
6.437086092715232,2.771721066626684
6.456953642384105,2.7662346332252574
6.47682119205298,2.7606702698704044
6.496688741721854,2.755050956352373
6.516556291390729,2.7493999916707565
6.5364238410596025,2.7437409095462937
6.556291390728477,2.7380973909332766
6.5761589403973515,2.732493173773533
6.596026490066225,2.726951960277333
6.6158940397351,2.7214973220629197
6.635761589403973,2.7161526035332613
6.655629139072848,2.7109408239163795
6.675496688741721,2.7058845784425234
6.695364238410596,2.7010059391768624
6.715231788079469,2.696326356069422
6.735099337748344,2.6918665588229813
6.754966887417219,2.6876464602140526
6.774834437086093,2.6836850615304537
6.794701986754967,2.6800003608101317
6.814569536423841,2.6766092645789152
6.8344370860927155,2.673527503788961
6.854304635761589,2.6707695546537136
6.874172185430464,2.6683485650588668
6.894039735099337,2.6662762872017973
6.913907284768212,2.664563017073925
6.933774834437086,2.663217541352079
6.95364238410596,2.6622470922055603
6.973509933774834,2.6616573104583274
6.993377483443709,2.6614522174680606
7.013245033112583,2.6616341960010717
7.033112582781457,2.662203980292444
7.052980132450331,2.6631606553876845
7.072847682119205,2.6645016657674643
7.0927152317880795,2.6662228331615587
7.112582781456954,2.668318383365001
7.132450331125828,2.670780981779412
7.152317880794702,2.6736017773184275
7.172185430463576,2.67677045423844
7.19205298013245,2.6802752913866414
7.211920529801324,2.6841032282985187
7.231788079470198,2.688239937527122
7.251655629139073,2.692669902547251
7.271523178807947,2.697376500549769
7.291390728476822,2.7023420894233414
7.311258278145695,2.7075480982146747
7.33112582781457,2.7129751203610217
7.3509933774834435,2.7186030090011775
7.370860927152318,2.7244109736920152
7.390728476821192,2.730377677885549
7.410596026490066,2.736481336555431
7.430463576158941,2.7426998134013973
7.450331125827814,2.749010717102904
7.470198675496689,2.755391496139159
7.490066225165562,2.761819531740127
7.509933774834438,2.768272228581513
7.52980132450331,2.774727102884204
7.549668874172186,2.7811618676261993
7.569536423841059,2.7875545146197473
7.589403973509934,2.7938833932499154
7.6092715231788075,2.8001272857108748
7.629139072847682,2.8062654786135646
7.649006622516557,2.8122778308727985
7.66887417218543,2.8181448378119907
7.6887417218543055,2.8238476914516175
7.708609271523178,2.8293683369707865
7.728476821192054,2.834689525352019
7.748344370860927,2.8397948622366407
7.768211920529802,2.8446688530319895
7.788079470198675,2.8492969443231475
7.80794701986755,2.8536655616504047
7.827814569536423,2.8577621437196075
7.847682119205298,2.8615751731164387
7.8675496688741715,2.8650942035975238
7.887417218543046,2.868309884031366
7.907284768211921,2.871213979060238
7.927152317880795,2.8737993865518208
7.9470198675496695,2.8760601519048
7.966887417218543,2.8779914792680064
7.986754966887418,2.879589739726892
8.006622516556291,2.880852476504527
8.026490066225167,2.881778407217837
8.046357615894038,2.88236742322254
8.066225165562914,2.88262058607298
8.086092715231787,2.882540121116021
8.105960264900663,2.8821294082308673
8.125827814569536,2.881392969720108
8.14569536423841,2.88033645535063
8.165562913907285,2.8789666245373873
8.185430463576159,2.8772913256576476
8.205298013245034,2.875319472479027
8.225165562913906,2.8730610176810796
8.245033112582782,2.8705269234478816
8.264900662251655,2.867729129107738
8.28476821192053,2.864680515796336
8.304635761589404,2.8613948681214754
8.324503311258278,2.8578868328104807
8.344370860927151,2.8541718743267332
8.364238410596027,2.8502662274486563
8.3841059602649,2.8461868468134353
8.403973509933774,2.841951353438914
8.42384105960265,2.8375779782505735
8.443708609271523,2.833085502656112
8.463576158940398,2.82849319622807
8.483443708609272,2.823820751575557
8.503311258278146,2.819088216508452
8.52317880794702,2.8143159236227344
8.543046357615895,2.8095244174620726
8.562913907284768,2.804734379440123
8.582781456953642,2.7999665507379783
8.602649006622515,2.795241653423293
8.62251655629139,2.7905803100698723
8.642384105960264,2.7860029621898126
8.66225165562914,2.781529787822824
8.682119205298013,2.777180618659864
8.701986754966887,2.7729748571086392
8.721854304635762,2.7689313937374602
8.741721854304636,2.7650685255596654
8.76158940397351,2.761403875643297
8.781456953642383,2.7579543145488654
8.801324503311259,2.7547358841109153
8.821192052980132,2.7517637240870663
8.841059602649008,2.749052002199185
8.86092715231788,2.746613848086309
8.880794701986755,2.744461291676516
8.90066225165563,2.742605206465496
8.920529801324504,2.741055258162716
8.940397350993377,2.73981985913207
8.960264900662251,2.738906129013215
8.980132450331126,2.7383198618622484
9.0,2.7380655000975307
9.019867549668875,2.738146115478154
9.039735099337747,2.7385633972806662
9.059602649006623,2.739317647774117
9.079470198675496,2.740407785026811
9.099337748344372,2.741831353010066
9.119205298013245,2.743584538897186
9.139072847682119,2.745662197390376
9.158940397350994,2.7480578818454595
9.178807947019868,2.750763881905929
9.198675496688743,2.753771267303549
9.218543046357615,2.757069937435111
9.23841059602649,2.760648676283034
9.258278145695364,2.764495212212336
9.27814569536424,2.768596282149696
9.298013245033111,2.7729376996290367
9.317880794701987,2.7775044261756876
9.33774834437086,2.7822806454951796
9.357615894039736,2.787249839933378
9.37748344370861,2.792394868682228
9.397350993377483,2.7976980472180024
9.417218543046358,2.8031412274774357
9.437086092715232,2.808705878299182
9.456953642384107,2.8143731656848434
9.47682119205298,2.8201240324623633
9.496688741721854,2.8259392769665883
9.516556291390728,2.831799630384274
9.536423841059603,2.837685832444855
9.556291390728477,2.8435787051723245
9.57615894039735,2.849459224447106
9.596026490066224,2.8553085891600523
9.6158940397351,2.861108287772199
9.635761589403973,2.8668401621242037
9.655629139072847,2.8724864683678346
9.675496688741722,2.8780299349181178
9.695364238410596,2.883453817349043
9.715231788079471,2.8887419501776246
9.735099337748345,2.893878795500684
9.754966887417218,2.8988494884660865
9.774834437086092,2.9036398795753096
9.794701986754967,2.9082365738268923
9.814569536423841,2.9126269667213243
9.834437086092716,2.9167992771566675
9.854304635761588,2.9207425772511404
9.874172185430464,2.9244468191343658
9.894039735099337,2.927902858752457
9.913907284768213,2.931102476734729
9.933774834437086,2.9340383963710046
9.95364238410596,2.936704298747984
9.973509933774835,2.9390948350931123
9.993377483443709,2.9412056363718633
10.013245033112582,2.9430333201824754
10.033112582781456,2.944575494989229
10.052980132450331,2.945830761731972
10.072847682119205,2.9467987128461854
10.09271523178808,2.947479928724142
10.112582781456952,2.9478759716439433
10.132450331125828,2.9479893771896997
10.152317880794701,2.9478236431824314
10.172185430463577,2.9473832161382076
10.192052980132452,2.9466734752672457
10.211920529801324,2.945700714024978
10.2317880794702,2.944472119224858
10.251655629139073,2.942995747720975
10.271523178807948,2.941280500668515
10.29139072847682,2.939336095370367
10.311258278145695,2.9371730347196636
10.331125827814569,2.934802574250164
10.350993377483444,2.932236686810235
10.370860927152318,2.929488024880367
10.390728476821192,2.9265698805602023
10.410596026490065,2.923496143258153
10.43046357615894,2.9202812551248933
10.450331125827816,2.91694016428189
10.470198675496688,2.913488275907119
10.490066225165563,2.9099414012524982
10.509933774834437,2.90631570468139
10.529801324503312,2.902627648829228
10.549668874172186,2.898893938006609
10.56953642384106,2.895131459981326
10.589403973509933,2.8913572262936533
10.609271523178808,2.8875883112781895
10.629139072847682,2.8838417899846016
10.649006622516556,2.8801346752092885
10.66887417218543,2.876483853869147
10.688741721854305,2.872906022968136
10.70860927152318,2.8694176254254455
10.728476821192054,2.866034786051547
10.748344370860927,2.862773247974435
10.7682119205298,2.8596483098325898
10.788079470198676,2.856674764062823
