Time (s),Filtered Signal
0.0,-0.0015803970648667945
0.03337004405286344,-0.07202021108665693
0.06674008810572687,-0.15225034696409656
0.10011013215859031,-0.24233087807910722
0.13348017621145375,-0.3280833380675224
0.16685022026431717,-0.3855839062022168
0.20022026431718062,-0.3928029140308693
0.23359030837004408,-0.3427161399961697
0.2669603524229075,-0.25073869455596104
0.3003303964757709,-0.15161993533436677
0.33370044052863435,-0.08618652155846526
0.3670704845814978,-0.08384914419661338
0.40044052863436125,-0.149391643326599
0.43381057268722467,-0.260515039469715
0.46718061674008815,-0.3769706161616538
0.5005506607929515,-0.45622638435039786
0.533920704845815,-0.4679510739531939
0.5672907488986785,-0.40147279979074235
0.6006607929515418,-0.2651138425763664
0.6340308370044053,-0.08059097835759813
0.6674008810572687,0.1231172169559235
0.7007709251101322,0.3140918366158068
0.7341409691629956,0.4608181407850574
0.767511013215859,0.5369253003017446
0.8008810572687225,0.5282964405670516
0.834251101321586,0.4403024924224347
0.8676211453744493,0.30053722979147307
0.9009911894273128,0.1531519034037178
0.9343612334801763,0.044845147226366636
0.9677312775330397,0.007537292281988006
1.001101321585903,0.04555657542824735
1.0344713656387665,0.13375016597350184
1.06784140969163,0.22784490454129266
1.1012114537444935,0.2824500260043026
1.134581497797357,0.2686218850681612
1.1679515418502202,0.1836244591291701
1.2013215859030837,0.049672877573041105
1.2346916299559472,-0.09644464181328352
1.2680616740088106,-0.21749637542590924
1.3014317180616741,-0.28780267810925464
1.3348017621145374,-0.29931252489742705
1.3681718061674009,-0.2611676933561339
1.4015418502202643,-0.19468219812810106
1.4349118942731278,-0.1264550766168734
1.4682819383259913,-0.08154712102334266
1.5016519823788548,-0.07742082316259717
1.535022026431718,-0.11888866905783055
1.5683920704845815,-0.19497148458542052
1.601762114537445,-0.2794846382097831
1.6351321585903085,-0.3369978043063488
1.668502202643172,-0.3338927168119081
1.7018722466960352,-0.251323222691883
1.7352422907488987,-0.09476848896232423
1.7686123348017622,0.10477708093847167
1.8019823788546256,0.2997814538650878
1.8353524229074891,0.44251809473072545
1.8687224669603526,0.5022438113065258
1.9020925110132159,0.4758469133618446
1.9354625550660793,0.38724632675754456
1.9688325991189428,0.27579212159088645
2.002202643171806,0.17892919121534717
2.0355726872246698,0.11710573096068912
2.068942731277533,0.08795463428407164
2.1023127753303967,0.07233559799866493
2.13568281938326,0.048771840720766915
2.1690528634361232,0.008151489116202015
2.202422907488987,-0.039927002991257385
2.23579295154185,-0.07327732027877681
2.269162995594714,-0.07245806803009386
2.302533039647577,-0.03611100834775099
2.3359030837004404,0.013554188619527556
2.369273127753304,0.039556427975346344
2.4026431718061674,0.009196523582462668
2.436013215859031,-0.0870298417132293
2.4693832599118943,-0.22744170518451098
2.5027533039647576,-0.3670246203209383
2.5361233480176213,-0.45741059825065694
2.5694933920704845,-0.4688319577066222
2.6028634361233483,-0.4030933141767933
2.6362334801762115,-0.29153964825607015
2.6696035242290748,-0.17970399013841154
2.7029735682819385,-0.10666093470286102
2.7363436123348017,-0.08900062010113541
2.7697136563876654,-0.11618092339038219
2.8030837004405287,-0.15787266276704248
2.8364537444933924,-0.17827952910136127
2.8698237885462556,-0.1501916853473769
2.903193832599119,-0.06334175202118952
2.9365638766519826,0.07436106470510397
2.969933920704846,0.2407560695822063
3.0033039647577096,0.40556921445423294
3.036674008810573,0.5369396944525079
3.070044052863436,0.6079728853723638
3.1034140969162998,0.6031835048063172
3.136784140969163,0.5235951268833146
3.1701541850220267,0.38817530741417366
3.20352422907489,0.22968844073268763
3.2368942731277532,0.085230510216386
3.270264317180617,-0.015511817541379258
3.30363436123348,-0.059618772179701254
3.337004405286344,-0.05388903893481124
3.370374449339207,-0.020042210225121555
3.4037444933920704,0.01571211907299763
3.437114537444934,0.033997146168054174
3.4704845814977974,0.02922987440019461
3.503854625550661,0.008997264804077313
3.5372246696035243,-0.01356104526735239
3.5705947136563876,-0.03001317888261951
3.6039647577092513,-0.04358569901225996
3.6373348017621145,-0.06851944426710352
3.6707048458149782,-0.12176597589718338
3.7040748898678415,-0.21142443447691853
3.737444933920705,-0.3284202197623228
3.7708149779735685,-0.44636899396393104
3.8041850220264317,-0.530246239584896
3.8375550660792954,-0.5499302584501742
3.8709251101321587,-0.4924019522600489
3.9042951541850224,-0.3672805049097502
3.9376651982378856,-0.20353176712306417
3.971035242290749,-0.03885587009534997
4.004405286343612,0.09398910347942718
4.037775330396476,0.1785588443403594
4.0711453744493395,0.21919795957561578
4.104515418502203,0.23662053815258063
4.137885462555066,0.2563464046892053
4.171255506607929,0.2951673836494971
4.2046255506607935,0.352091472983968
4.237995594713657,0.40828466736387437
4.27136563876652,0.4360798396361249
4.304735682819383,0.4124600590824775
4.3381057268722465,0.33020027849716976
4.371475770925111,0.20137862256749695
4.404845814977974,0.05231599674025187
4.438215859030837,-0.0864786381331062
4.4715859030837,-0.18980565710977124
4.504955947136564,-0.2427644573844581
4.538325991189428,-0.24108802170838653
4.571696035242291,-0.18978412284483373
4.605066079295154,-0.10310230599905733
4.638436123348018,-0.005875464623735521
4.671806167400881,0.06716247554308957
4.705176211453745,0.07819683866209265
4.738546255506608,6.971784079269519e-05
4.7719162995594715,-0.16785245675522775
4.805286343612335,-0.39037368107938947
4.838656387665198,-0.6013533672289625
4.872026431718062,-0.7240727602646126
4.905396475770925,-0.6999857243300969
4.938766519823789,-0.5132355200864427
4.972136563876652,-0.19921986671026726
5.005506607929515,0.16729738513105333
5.038876651982379,0.49927499414881704
5.072246696035243,0.7273510053782474
5.105616740088106,0.8196079839914677
5.138986784140969,0.783908626827345
5.172356828193832,0.654657126063638
5.2057268722466965,0.4732660419849321
5.23909691629956,0.27342172334613957
5.272466960352423,0.07769034484644707
5.305837004405286,-0.09600035254400778
5.3392070484581495,-0.22601116435314153
5.372577092511014,-0.2858202914965848
5.405947136563877,-0.2538880078019484
5.43931718061674,-0.13010481408388072
5.4726872246696034,0.05184025363446658
5.506057268722468,0.22669979799882703
5.539427312775331,0.31798733842149446
5.572797356828194,0.26955908702148385
5.606167400881057,0.07402251774255424
5.639537444933921,-0.21683045231763148
5.672907488986785,-0.5068936109655768
5.706277533039648,-0.6915662312182799
5.739647577092511,-0.7000230678053618
5.7730176211453745,-0.5257023282809995
5.806387665198238,-0.23124464247299115
5.839757709251102,0.07513879050531626
5.873127753303965,0.28252448040331546
5.9064977973568284,0.3214597774109198
5.939867841409692,0.19074741524077976
5.973237885462555,-0.044377869463119765
6.006607929515419,-0.281293094625587
6.039977973568282,-0.42297507201279605
6.073348017621146,-0.41602647407893234
6.106718061674009,-0.26795275896075343
6.140088105726872,-0.03797245320806738
6.173458149779736,0.1923769330604049
6.2068281938325995,0.35432124227423123
6.240198237885463,0.4170574741094358
6.273568281938326,0.3935217536198446
6.306938325991189,0.32676288123082725
6.3403083700440535,0.265425063832676
6.373678414096917,0.24048048603691655
6.40704845814978,0.25321888285761057
6.440418502202643,0.2783870272237446
6.4737885462555065,0.2794660580969024
6.507158590308371,0.22828481360186254
6.540528634361234,0.12003817829759234
6.573898678414097,-0.022707321268682516
6.60726872246696,-0.15853119005124336
6.640638766519824,-0.24439409784748514
6.674008810572688,-0.2541746772708626
6.707378854625551,-0.19065308172577342
6.740748898678414,-0.085933585769988
6.774118942731278,0.009902313233254922
6.807488986784141,0.0474686868242133
6.840859030837005,-0.0030405373956935455
6.874229074889868,-0.13971860438263034
6.9075991189427315,-0.3278575680425508
6.940969162995595,-0.5101708927813766
6.974339207048458,-0.624717661491439
7.007709251101322,-0.6244938937961991
7.041079295154185,-0.49235250251822843
7.074449339207049,-0.2466503971083417
7.107819383259912,0.06387784445609036
7.141189427312775,0.37406202880947076
7.174559471365639,0.6203497174437518
7.207929515418503,0.7571132642341845
7.241299559471366,0.7662465287960316
7.274669603524229,0.6578143620707054
7.308039647577092,0.4630540000353679
7.3414096916299565,0.22376234530228328
7.37477973568282,-0.017372343192602255
7.408149779735683,-0.22283923904466776
7.441519823788546,-0.36312029096355497
7.47488986784141,-0.418615236239531
7.508259911894274,-0.382710958985301
7.541629955947137,-0.2657119521709402
7.575,-0.0968511125306489
7.608370044052863,0.07909132645977805
7.641740088105728,0.21209248573701964
7.675110132158591,0.2619503496300554
7.708480176211454,0.21257490729131895
7.741850220264317,0.0790572309336023
7.775220264317181,-0.09648973483957002
7.808590308370045,-0.2594574520643876
7.841960352422908,-0.3619178443248557
7.875330396475771,-0.3785156304539187
7.9087004405286345,-0.31280661011632294
7.942070484581498,-0.19234787493538183
7.975440528634362,-0.05578722108091217
8.008810572687224,0.06195674934477102
8.042180616740088,0.14053024021900876
8.075550660792953,0.17760199079950217
8.108920704845815,0.18485169855205344
8.142290748898679,0.17921649687200347
8.175660792951541,0.1736788765630997
8.209030837004406,0.1717411046165324
8.24240088105727,0.16784587609733342
8.275770925110132,0.15301392820045237
8.309140969162996,0.12225722476549088
8.342511013215859,0.07936713007941103
8.375881057268723,0.03609037127065799
8.409251101321587,0.005791171630178274
8.44262114537445,-0.005159618087442846
8.475991189427313,-0.003441881583069224
8.509361233480176,-0.008264243257061628
8.54273127753304,-0.04317481245730409
8.576101321585904,-0.12300434662642581
8.609471365638766,-0.2418590288688396
8.64284140969163,-0.36878537029433034
8.676211453744493,-0.4552069351616077
8.709581497797357,-0.4531048909628241
8.742951541850221,-0.3372856286720102
8.776321585903084,-0.12175132795969866
8.809691629955948,0.1387030290741559
8.84306167400881,0.3648141153303072
8.876431718061674,0.48210251942110566
8.909801762114538,0.4513135016380252
8.9431718061674,0.286544954720123
8.976541850220265,0.05216443607660138
9.009911894273127,-0.16123007255435168
9.043281938325991,-0.2721259134267859
9.076651982378856,-0.23986585233185628
9.110022026431718,-0.07961990457884917
9.143392070484582,0.14530502381167879
9.176762114537445,0.3500277946364995
9.210132158590309,0.46208866411884114
9.243502202643173,0.44882029529248624
9.276872246696035,0.3272144013295397
9.3102422907489,0.15290073991137212
9.343612334801762,-0.006371230493742312
9.376982378854626,-0.10085763481759817
9.41035242290749,-0.11920760544109228
9.443722466960352,-0.09015666977225784
9.477092511013216,-0.06507058826203123
9.510462555066079,-0.08977535866950015
9.543832599118943,-0.17926888131357616
9.577202643171807,-0.3077845380849197
9.61057268722467,-0.4196013411795099
9.643942731277534,-0.4561165177621139
9.677312775330396,-0.3865440929992488
9.71068281938326,-0.22705621860815636
9.744052863436124,-0.03776194188400661
9.777422907488987,0.10298060890247131
9.81079295154185,0.13610521006766937
9.844162995594713,0.05332032484562957
9.877533039647577,-0.09413308352615966
9.910903083700441,-0.21612058838686993
9.944273127753304,-0.22580638142641374
9.977643171806168,-0.08377234757287057
10.01101321585903,0.1780418780816738
10.044383259911895,0.4657974765425222
10.077753303964759,0.663599564539649
10.111123348017621,0.685389193852478
10.144493392070485,0.5142165775427818
10.177863436123348,0.21028170306435748
10.211233480176212,-0.11561892735045314
10.244603524229076,-0.3500933516248788
10.277973568281938,-0.42398046557002744
10.311343612334802,-0.33718700939928337
10.344713656387665,-0.15214539390784906
10.378083700440529,0.038651371813738414
10.411453744493393,0.15451588793389417
10.444823788546255,0.15870842240070915
10.47819383259912,0.06791388241852021
10.511563876651982,-0.0625612951459859
10.544933920704846,-0.16857154282315723
10.57830396475771,-0.20690747702272863
10.611674008810573,-0.17167551479411197
10.645044052863437,-0.09140534661394413
10.678414096916299,-0.010511350797570127
10.711784140969163,0.034322248913588566
10.745154185022027,0.03092880988592806
10.77852422907489,-0.005801200558522982
10.811894273127754,-0.04532821770071795
10.845264317180618,-0.059543764177418704
10.87863436123348,-0.0374272946801097
10.912004405286345,0.011266193657168341
10.945374449339207,0.06443498605248546
10.978744493392071,0.10255934482885615
11.012114537444935,0.12105469826484326
11.045484581497798,0.132700137675724
11.078854625550662,0.15868291126244707
11.112224669603524,0.2134454248398287
11.145594713656388,0.29210667243187927
11.178964757709252,0.36780188396566893
11.212334801762115,0.40086798769876997
11.245704845814979,0.35564226756003553
11.279074889867841,0.21709673592304626
11.312444933920705,7.208938780175335e-05
11.34581497797357,-0.25247794015128766
11.379185022026432,-0.4813932208196436
11.412555066079296,-0.6292586862078721
11.445925110132158,-0.6587949803715958
11.479295154185023,-0.5659918106625617
11.512665198237887,-0.3832866799314335
11.546035242290749,-0.17041410665338308
11.579405286343613,0.005544287443996116
11.612775330396476,0.09464526859538916
11.64614537444934,0.08345442622865051
11.679515418502204,0.00019472053691911058
11.712885462555066,-0.09795447067278185
11.74625550660793,-0.15063081927215835
11.779625550660793,-0.12145617085530153
11.812995594713657,-0.01373041487684917
11.846365638766521,0.13260533222097715
11.879735682819383,0.2605865991634485
11.913105726872248,0.3223244095025012
11.94647577092511,0.29917227600276153
11.979845814977974,0.2075287904780498
12.013215859030838,0.08928206412473638
12.0465859030837,-0.007322677968725958
12.079955947136565,-0.04739890864866811
12.113325991189427,-0.02166225152036885
12.146696035242291,0.052945895435581314
12.180066079295155,0.1433631862139677
12.213436123348018,0.21600021990301235
12.246806167400882,0.2504932786377972
12.280176211453744,0.2454219584518115
12.313546255506608,0.21391283942184686
12.346916299559473,0.1723299416353475
12.380286343612335,0.12893663623207943
12.413656387665199,0.07932611962605816
12.447026431718061,0.011420465445479875
12.480396475770926,-0.08290647334371098
12.51376651982379,-0.19675495375493887
12.547136563876652,-0.30507169533979006
12.580506607929516,-0.3727863182470449
12.613876651982379,-0.37120966947695655
12.647246696035243,-0.2945063137055906
12.680616740088107,-0.16694986202003645
12.71398678414097,-0.035605592021354764
12.747356828193833,0.04960160976759094
12.780726872246696,0.0594152276454734
12.81409691629956,0.00042855556812543705
12.847466960352424,-0.0867402547851743
12.880837004405286,-0.14659136898760747
12.91420704845815,-0.13625040608745104
12.947577092511013,-0.047341983589868825
12.980947136563877,0.089378984030828
13.014317180616741,0.21929019594764432
13.047687224669604,0.29098587244958896
13.081057268722468,0.28072150080131
13.11442731277533,0.2014644494711605
13.147797356828194,0.0926175469309349
13.181167400881058,-0.0027576373356978045
13.21453744493392,-0.05992310765523588
13.247907488986785,-0.0817059131208655
13.281277533039647,-0.0910569835961483
13.314647577092511,-0.1127149413891776
13.348017621145376,-0.15557222205479815
13.381387665198238,-0.20614752671075592
13.414757709251102,-0.23646993973744793
13.448127753303964,-0.22110107040323512
13.481497797356829,-0.15298308147839199
13.514867841409693,-0.04897375694002716
13.548237885462555,0.057765763816803296
13.58160792951542,0.1338679302673188
13.614977973568282,0.16129210837622387
13.648348017621146,0.14416579060006462
13.68171806167401,0.10408904300208535
13.715088105726872,0.06745269622954479
13.748458149779736,0.052251071651053915
13.781828193832599,0.06139323698921712
13.815198237885463,0.08523681142661252
13.848568281938327,0.1106276819312221
13.88193832599119,0.13025046899136797
13.915308370044054,0.14643777392688417
13.948678414096916,0.16734910140885842
13.98204845814978,0.19825233758875624
14.015418502202644,0.23365309403740558
14.048788546255507,0.25556221230078
14.08215859030837,0.23971887667207054
14.115528634361233,0.16720087751866422
14.148898678414097,0.035931306910502565
14.182268722466961,-0.13354569550335946
14.215638766519824,-0.3012193927769755
14.249008810572688,-0.4192306596138843
14.28237885462555,-0.44815562514604146
14.315748898678414,-0.3722848824845687
14.349118942731279,-0.20827101827957187
14.382488986784141,-0.003379366763278654
14.415859030837005,0.17720280630786323
14.449229074889868,0.2707484021698399
14.482599118942732,0.2385801231357968
14.515969162995596,0.08105269053066412
14.549339207048458,-0.1602981735017474
14.582709251101322,-0.415209668753392
14.616079295154185,-0.60773878967069
14.649449339207049,-0.6813663575952524
14.682819383259913,-0.616653236589498
14.716189427312775,-0.43515193305686334
14.74955947136564,-0.1890990347651378
14.782929515418502,0.05802673953822269
14.816299559471366,0.25219666595488766
14.84966960352423,0.36364326988470785
14.883039647577093,0.39193869487413396
14.916409691629957,0.36138461323857546
14.94977973568282,0.3096525632903139
14.983149779735683,0.2738595980318714
15.016519823788547,0.2781499136847151
15.04988986784141,0.3260343465297484
15.083259911894274,0.3996011004848853
15.116629955947138,0.46615102434397593
15.15,0.49062924305532707
15.183370044052865,0.44977447779497104
15.216740088105727,0.3423497235841612
15.250110132158591,0.19055191700168825
15.283480176211455,0.03120038744460405
15.316850220264318,-0.09972192198765846
15.350220264317182,-0.18185539732344555
15.383590308370044,-0.2172184409028249
15.416960352422908,-0.22567296298655243
15.450330396475772,-0.23193627250806362
15.483700440528635,-0.25152446391343736
15.517070484581499,-0.2833207998801019
15.550440528634361,-0.31237628435669035
15.583810572687225,-0.3205536604857767
15.61718061674009,-0.2982843290208043
15.650550660792952,-0.25047212164010996
15.683920704845816,-0.19336937932985304
15.717290748898678,-0.14466376324475858
15.750660792951543,-0.11289578259681397
15.784030837004407,-0.09262208276823611
15.817400881057269,-0.06847389317522515
15.850770925110133,-0.026267655170716907
15.884140969162996,0.034847113545310955
15.91751101321586,0.09648316694728228
15.950881057268724,0.12615661049301394
15.984251101321586,0.09282275427028552
16.01762114537445,-0.013947970078594297
16.050991189427315,-0.1714444492112618
16.084361233480177,-0.32656424253599203
16.11773127753304,-0.4153779331195151
16.151101321585905,-0.39167526345707165
16.184471365638768,-0.25032012077386245
16.21784140969163,-0.03235735860081574
16.251211453744492,0.1922694610111337
16.284581497797358,0.3564070398307154
16.31795154185022,0.425534951171936
16.351321585903083,0.4102265763802014
16.38469162995595,0.3552400847386667
16.41806167400881,0.3121335238260123
16.451431718061674,0.3110249854263923
16.48480176211454,0.34675996661349845
16.518171806167402,0.38584483806210784
16.551541850220264,0.3885720699268627
16.584911894273127,0.33278701729995364
16.618281938325993,0.2259772837819989
16.651651982378855,0.10002503254933687
16.685022026431717,-0.006895107028144067
16.718392070484583,-0.07008116509994712
16.751762114537446,-0.08871661299504299
16.785132158590308,-0.08223748438292311
16.818502202643174,-0.07628132862210944
16.851872246696036,-0.08726853871947567
16.8852422907489,-0.11443743132706863
16.91861233480176,-0.14303941716345595
16.951982378854627,-0.15581588966862825
16.98535242290749,-0.1455664053346919
17.01872246696035,-0.12154908015775535
17.052092511013218,-0.10615599663024568
17.08546255506608,-0.1235708134577444
17.118832599118942,-0.18627748779164874
17.152202643171808,-0.2864033057816349
17.18557268722467,-0.39650796239247604
