Frequency (Hz),Amplitude
0.0,0.006509392560882454
0.019823788546255508,0.030718958479411106
0.039647577092511016,0.060365819368064975
0.059471365638766524,0.09018376788461067
0.07929515418502203,0.11997339698769924
0.09911894273127755,0.14967113308584026
0.11894273127753305,0.1792366780711538
0.13876651982378857,0.20863653465573673
0.15859030837004406,0.23783987697170036
0.17841409691629956,0.26681718736424775
0.1982378854625551,0.2955397261576002
0.2180616740088106,0.3239793048488867
0.2378854625550661,0.3521081857589883
0.25770925110132165,0.37989903995104024
0.27753303964757714,0.40732493414656107
0.29735682819383263,0.43435933295620865
0.31718061674008813,0.46097610956765545
0.3370044052863437,0.4871495612468793
0.3568281938325991,0.5128544276180851
0.37665198237885467,0.5380659105335481
0.3964757709251102,0.5627596948114004
0.41629955947136565,0.5869119693857372
0.4361233480176212,0.6104994485712559
0.4559471365638767,0.6334993932408368
0.4757709251101322,0.6558896317749412
0.49559471365638774,0.6776485806804388
0.5154185022026433,0.6987552648020252
0.5352422907488987,0.7191893370667078
0.5550660792951543,0.7389310977137762
0.5748898678414097,0.7579615129708486
0.5947136563876653,0.7762622331429883
0.6145374449339208,0.7938156100859788
0.6343612334801763,0.8106047140386895
0.6541850220264318,0.8266133497917849
0.6740088105726874,0.8418260721723703
0.6938325991189428,0.8562282008258463
0.7136563876651982,0.8698058342779067
0.7334801762114539,0.8825458632607789
0.7533039647577093,0.8944359832891233
0.7731277533039648,0.9054647064718987
0.7929515418502204,0.9156213725479689
0.8127753303964759,0.9248961591336045
0.8325991189427313,0.9332800911714676
0.8524229074889869,0.9407650495712494
0.8722466960352424,0.9473437790332194
0.8920704845814978,0.9530098950467526
0.9118942731277534,0.9577578900566582
0.931718061674009,0.9615831387911622
0.9515418502202644,0.9644819027462151
0.9713656387665199,0.9664513338214348
0.9911894273127755,0.967489477104254
1.0110132158590308,0.9675952727991386
1.0308370044052866,0.9667685573002052
1.0506607929515421,0.9650100634058422
1.0704845814977975,0.9623214196752246
1.090308370044053,0.9587051489270451
1.1101321585903086,0.9541646658821338
1.1299559471365639,0.948704273951932
1.1497797356828194,0.9423291611759982
1.1696035242290752,0.9350453953124602
1.1894273127753305,0.9268599180861393
1.209251101321586,0.9177805385998942
1.2290748898678416,0.9078159259156285
1.248898678414097,0.896975600812307
1.2687224669603525,0.8852699267288742
1.288546255506608,0.8727100999012536
1.3083700440528636,0.8593081387031419
1.3281938325991192,0.845076872201245
1.3480176211453747,0.8300299279365575
1.36784140969163,0.8141817189442151
1.3876651982378856,0.7975474300252086
1.4074889867841411,0.7801430032846055
1.4273127753303965,0.7619851229515305
1.4471365638766522,0.743091199497865
1.4669603524229078,0.723479353073427
1.4867841409691631,0.7031683962773582
1.5066079295154187,0.6821778162870349
1.5264317180616742,0.6605277563681106
1.5462555066079295,0.6382389967921668
1.5660792951541853,0.6153329351922427
1.5859030837004409,0.5918315663915528
1.6057268722466962,0.5677574617476483
1.6255506607929517,0.5431337480645986
1.6453744493392073,0.5179840861402485
1.6651982378854626,0.4923326490382151
1.6850220264317182,0.4662041002081281
1.7048458149779737,0.4396235716324638
1.7246696035242293,0.4126166422666078
1.7444933920704848,0.3852093171877325
1.7643171806167404,0.35742800812673925
1.7841409691629957,0.32929951652421124
1.8039647577092512,0.30085102113137274
1.8237885462555068,0.27211007392006775
1.8436123348017623,0.24310461173103431
1.863436123348018,0.21386299935667513
1.8832599118942732,0.18441414008884852
1.9030837004405288,0.1547877455124515
1.9229074889867843,0.12501503245072035
1.9427312775330399,0.09513079112648716
1.9625550660792954,0.06518124557357678
1.982378854625551,0.035272162712378076
2.002202643171806,0.00698087728059956
2.0220264317180616,0.025840444396982225
2.041850220264317,0.055672634711505464
2.061674008810573,0.08564592300003987
2.0814977973568287,0.11558320544263496
2.1013215859030843,0.14542941981464944
2.1211453744493394,0.17514750964756043
2.140969162995595,0.2047053870043888
2.1607929515418505,0.2340728760405025
2.180616740088106,0.2632207470334286
2.2004405286343616,0.29212035537774533
2.220264317180617,0.32074349509931854
2.2400881057268722,0.34906234001049646
2.2599118942731278,0.37704942460816193
2.2797356828193833,0.40467764447299404
2.299559471365639,0.43192026682099127
2.319383259911895,0.4587509465658483
2.3392070484581504,0.48514374544330274
2.3590308370044055,0.5110731528354876
2.378854625550661,0.5365141075019753
2.3986784140969166,0.5614420197341206
2.418502202643172,0.585832793626931
2.4383259911894277,0.6096628492658523
2.4581497797356833,0.6329091446898903
2.4779735682819384,0.6555491975316838
2.497797356828194,0.6775611062607448
2.5176211453744495,0.6989235709725934
2.537444933920705,0.7196159136781881
2.5572687224669606,0.7396180980557978
2.577092511013216,0.7589107486326879
2.5969162995594717,0.7774751693688854
2.6167400881057272,0.7952933616174269
2.6365638766519828,0.812348041438705
2.6563876651982383,0.8286226562479296
2.676211453744494,0.8441014007766212
2.6960352422907494,0.8587692323301983
2.715859030837005,0.8726118853251854
2.73568281938326,0.8856158850903612
2.7555066079295156,0.8977685609174318
2.775330396475771,0.9090580583477202
2.7951541850220267,0.919473350682036
2.8149779735682823,0.9290042497021777
2.834801762114538,0.9376414155930135
2.854625550660793,0.9453763660552579
2.874449339207049,0.9522014845995037
2.8942731277533045,0.9581100280133908
2.91409691629956,0.9630961329942885
2.9339207048458156,0.9671548219407224
2.953744493392071,0.9702820078968069
2.9735682819383262,0.9724744986445972
2.993392070484582,0.9737299999401615
3.0132158590308373,0.9740471178900022
3.033039647577093,0.9734253604654091
3.0528634361233484,0.9718651381529252
3.072687224669604,0.969367763740033
3.092511013215859,0.9659354512363312
3.1123348017621146,0.9615713139306112
3.1321585903083706,0.9562793615858305
3.151982378854626,0.9500644967742482
3.1718061674008817,0.9429325103561096
3.1916299559471373,0.934890076105973
3.2114537444933924,0.9259447444917048
3.231277533039648,0.9161049356117323
3.2511013215859035,0.9053799312973804
3.270925110132159,0.8937798663873867
3.2907488986784146,0.8813157191829646
3.31057268722467,0.86799930109227
3.3303964757709252,0.8538432454741185
3.350220264317181,0.8388609956912564
3.3700440528634363,0.8230667923846734
3.389867841409692,0.8064756599809045
3.4096916299559474,0.7891033924450063
3.4295154185022034,0.7709665382928029
3.4493392070484585,0.7520823848766709
3.469162995594714,0.7324689419595184
3.4889867841409696,0.7121449245930619
3.508810572687225,0.6911297353162328
3.5286343612334807,0.6694434456910635
3.5484581497797363,0.6471067771936376
3.5682819383259914,0.6241410814784151
3.588105726872247,0.6005683200352663
3.6079295154185025,0.5764110432586342
3.627753303964758,0.5516923689497416
3.6475770925110136,0.5264359602730184
3.667400881057269,0.5006660031891885
3.6872246696035247,0.47440718338860993
3.7070484581497802,0.4476846627499297
3.726872246696036,0.4205240553512905
3.7466960352422913,0.392951403065152
3.7665198237885464,0.3649931507725204
3.7863436123348024,0.3366761212427931
3.8061674008810575,0.3080274897421241
3.8259911894273135,0.27907475846792773
3.8458149779735686,0.24984573097689844
3.8656387665198246,0.2203684869311471
3.8854625550660797,0.19067135786629993
3.905286343612335,0.16078290570773537
3.925110132158591,0.13073190891656078
3.9449339207048464,0.10054737287713578
3.964757709251102,0.07025863853436108
3.9845814977973575,0.03989611445574756
4.004405286343612,0.00950660981818147
4.024229074889869,0.02096529812121778
4.044052863436123,0.05137434115438145
4.06387665198238,0.08174781946404829
4.083700440528634,0.11205169723026141
4.103524229074891,0.1422560760570301
4.123348017621146,0.1723316394404098
4.143171806167401,0.202249311603032
4.162995594713657,0.23198020428238458
4.182819383259912,0.261495619378232
4.2026431718061685,0.2907670669810368
4.222466960352423,0.31976628857941697
4.242290748898679,0.34846528220887085
4.262114537444934,0.3768363283293265
4.28193832599119,0.40485201591229253
4.301762114537445,0.43248526848763513
4.321585903083701,0.45970937001438716
4.3414096916299565,0.4864979904934363
4.361233480176212,0.5128252112656653
4.381057268722468,0.5386655499534998
4.400881057268723,0.563993985010963
4.420704845814979,0.5887859798519975
4.440528634361234,0.6130175065298594
4.46035242290749,0.6366650689419366
4.4801762114537445,0.6597057255358956
4.500000000000001,0.6821171114940399
4.5198237885462555,0.7038774603736629
4.539647577092512,0.7249656251820296
4.559471365638767,0.7453610988649596
4.579295154185023,0.7650440341892636
4.599118942731278,0.7839952629992724
4.618942731277533,0.802196314828954
4.63876651982379,0.8196294348512478
4.658590308370044,0.8362776011472908
4.678414096916301,0.8521245412785687
4.6982378854625555,0.8671547481461898
4.718061674008811,0.8813534951212889
4.737885462555067,0.8947068504324036
4.757709251101322,0.9072016907953994
4.777533039647578,0.9188257142727851
4.797356828193833,0.929567452349863
4.817180616740089,0.9394162812158598
4.837004405286344,0.9483624322389682
4.856828193832599,0.9563970016251427
4.876651982378855,0.9635119592509115
4.896475770925111,0.9697001566617809
4.9162995594713665,0.974955334228044
4.936123348017622,0.9792721274511076
4.955947136563877,0.9826460724139399
4.975770925110133,0.9850736103701438
4.995594713656388,0.9865520914671029
5.015418502202644,0.9870797775993723
5.035242290748899,0.986655844389289
5.055066079295155,0.9852803822927522
5.07488986784141,0.9829543968287952
5.094713656387666,0.9796798079327721
5.114537444933921,0.9754594484331486
5.134361233480177,0.970297061653748
5.154185022026432,0.9641972981430429
5.174008810572688,0.957165711534007
5.193832599118943,0.9492087535379884
5.213656387665199,0.9403337680777173
5.2334801762114544,0.9305489845647558
5.25330396475771,0.9198635103283024
5.2731277533039655,0.9082873222023118
5.292951541850221,0.8958312572796755
5.312775330396477,0.8825070028424631
5.332599118942731,0.8683270854785724
5.352422907488988,0.8533048593958158
5.372246696035242,0.8374544939459881
5.392070484581499,0.8207909603718465
5.4118942731277535,0.8033300177918322
5.43171806167401,0.7850881984382243
5.451541850220265,0.7660827921659193
5.47136563876652,0.7463318302510464
5.491189427312777,0.7258540685001059
5.511013215859031,0.7046689696933616
5.530837004405288,0.6827966853887857
5.550660792951542,0.6602580371173103
5.570484581497798,0.6370744970051235
5.5903083700440535,0.6132681678662806
5.610132158590309,0.588861762818908
5.6299559471365646,0.5638785844931351
5.64977973568282,0.5383425039200318
5.669603524229076,0.5122779392232472
5.689427312775331,0.4857098342844025
5.709251101321586,0.45866363763119133
5.729074889867842,0.43116528192336406
5.748898678414098,0.4032411646215403
5.768722466960353,0.37491813078558456
5.788546255506609,0.3462234595940515
5.808370044052864,0.3171848573756561
5.82819383259912,0.28783046228450176
5.848017621145375,0.25818887057976675
5.867841409691631,0.2282892051257637
5.887665198237886,0.19816127221962174
5.907488986784142,0.1678359203359274
5.927312775330397,0.13734591785849937
5.9471365638766525,0.10672839839404329
5.966960352422908,0.07603331719664312
5.986784140969164,0.04536641815962494
6.00660792951542,0.015450218522508111
6.026431718061675,0.01822516841294396
6.04625550660793,0.04837760812957276
6.066079295154186,0.07910740903542096
6.085903083700441,0.10987324228476118
6.105726872246697,0.14057995453588765
6.125550660792952,0.17117946556212754
6.145374449339208,0.2016350322807361
6.1651982378854635,0.23191385338842405
6.185022026431718,0.2619848740471288
6.204845814977975,0.2918179856608188
6.224669603524229,0.3213836961446834
6.244493392070486,0.35065298568514297
6.264317180616741,0.379597244471391
6.284140969162996,0.4081882499354162
6.303964757709252,0.4363981643553828
6.323788546255507,0.46419954350879394
6.3436123348017635,0.49156535154946684
6.363436123348018,0.5184689794698232
6.3832599118942746,0.5448842656372206
6.403083700440529,0.5707855175012082
6.422907488986785,0.596147533910757
6.44273127753304,0.6209456276800995
6.462555066079296,0.6451556481622681
6.482378854625551,0.6687540036629881
6.502202643171807,0.6917176835758312
6.5220264317180625,0.7140242801495702
6.541850220264318,0.735652009819865
6.561674008810574,0.7565797340510153
6.581497797356829,0.7767869796435499
6.601321585903085,0.7962539584703554
6.62114537444934,0.8149615866091613
6.640969162995596,0.8328915028432036
6.6607929515418505,0.8500260865045182
6.680616740088107,0.8663484746372049
6.700440528634362,0.8818425784593209
6.720264317180618,0.896493099104374
6.740088105726873,0.9102855426240496
6.759911894273129,0.9232062342358945
6.779735682819384,0.9352423318000208
6.799559471365639,0.9463818385105525
6.819383259911895,0.9566136147883011
6.83920704845815,0.9659273893621036
6.859030837004407,0.9743137695272839
6.8788546255506615,0.9817642505706695
6.898678414096917,0.9882712243522831
6.918502202643173,0.9938279870350194
6.938325991189428,0.9984287459542779
6.958149779735684,1.002068625620683
6.977973568281939,1.0047436728494368
6.997797356828195,1.0064508610116083
7.01762114537445,1.007188093402487
7.037444933920705,1.00695420572405
7.0572687224669615,1.0057489676788667
7.077092511013216,1.003573083674091
7.096916299559473,1.000428192634708
7.116740088105728,0.996316866926899
7.136563876651983,0.9912426103924362
7.156387665198239,0.9852098554969684
7.176211453744494,0.9782239595954427
7.19603524229075,0.9702912003192163
7.215859030837005,0.9614187700907353
7.235682819383261,0.9516147697724832
7.255506607929516,0.940888201458478
7.275330396475772,0.9292489604176738
7.295154185022027,0.9167078262004862
7.314977973568283,0.903276452920956
7.334801762114538,0.8889673587288168
7.354625550660794,0.873793914488616
7.374449339207049,0.8577703316840847
7.394273127753305,0.8409116495705852
7.4140969162995605,0.8232337216004086
7.433920704845816,0.8047532011510341
7.453744493392072,0.785487526591741
7.473568281938327,0.7654549057305444
7.493392070484583,0.7446742996929298
7.513215859030838,0.7231654062959406
7.533039647577093,0.7009486429966014
7.552863436123348,0.6780451295166987
7.572687224669605,0.6544766702752935
7.59251101321586,0.6302657368039956
7.612334801762115,0.6054354503809797
7.6321585903083715,0.5800095652084611
7.651982378854627,0.5540124525908285
7.671806167400882,0.5274690867686972
7.691629955947137,0.500405033371374
7.711453744493394,0.4728464419314489
7.731277533039649,0.4448200446860942
7.751101321585904,0.41635316518252885
7.7709251101321595,0.38747374242290744
7.790748898678416,0.3582103802170976
7.81057268722467,0.3285924386779214
7.830396475770926,0.2986501988501339
7.850220264317182,0.268415160178203
7.870044052863436,0.23792059306194163
7.889867841409693,0.20720261600680906
7.909691629955948,0.17630244854449661
7.929515418502204,0.14527160908808584
7.9493392070484585,0.11418567833968267
7.969162995594715,0.08318891472514338
7.9889867841409705,0.052694475376698593
8.008810572687224,0.025030276860614358
8.02863436123348,0.021940015041915666
8.048458149779737,0.04842612617410137
8.068281938325994,0.07882757857143344
8.088105726872246,0.1098900444162654
8.107929515418503,0.14110940661559077
8.12775330396476,0.17232224979127259
8.147577092511014,0.20344682487265284
8.167400881057269,0.23442893114888547
8.187224669603525,0.26522583380005615
8.207048458149782,0.29580033733421573
8.226872246696036,0.3261182608329598
8.246696035242293,0.35614724607532433
8.266519823788547,0.38585615195779155
8.286343612334802,0.41521473086600696
8.306167400881058,0.4441934505952046
8.325991189427315,0.47276339585161636
8.345814977973568,0.5008962153700031
8.365638766519824,0.5285640962155235
8.38546255506608,0.5557397548081245
8.405286343612337,0.5823964384957742
8.42511013215859,0.6085079339056209
8.444933920704846,0.6340485796988116
8.464757709251103,0.6589932821918817
8.484581497797357,0.683317532823122
8.504405286343614,0.7069974267702013
8.524229074889869,0.7300096822354651
8.544052863436125,0.7523316600554544
8.56387665198238,0.7739413833854462
8.583700440528636,0.7948175572739039
8.60352422907489,0.814939587986887
8.623348017621145,0.834287601974668
8.643171806167402,0.8528424643950613
8.662995594713658,0.8705857971255195
8.682819383259913,0.8874999962080777
8.702643171806168,0.903568248680564
8.722466960352424,0.918774548755042
8.74229074889868,0.9331037133097906
8.762114537444935,0.946541396665652
8.78193832599119,0.9590741046213328
8.801762114537446,0.9706892077248793
8.821585903083701,0.9813749537614809
8.841409691629957,0.9911204794395674
8.861233480176212,0.9999158212591991
8.881057268722468,1.007751925548404
8.900881057268723,1.014620657654701
8.92070484581498,1.0205148102803638
8.940528634361234,1.0254281109513441
8.960352422907489,1.0293552286111398
8.980176211453745,1.0322917793321251
9.000000000000002,1.0342343311377575
9.019823788546258,1.035180407930886
9.039647577092511,1.0351284925238269
9.059471365638768,1.034078028767754
9.079295154185024,1.0320294227796678
9.099118942731279,1.0289840432667843
9.118942731277533,1.0249442209492408
9.13876651982379,1.0199132470835588
9.158590308370046,1.0138953710905743
9.1784140969163,1.0068957972931079
9.198237885462555,0.9989206807703769
9.218061674008812,0.9899771223377337
9.237885462555067,0.9800731626624648
9.257709251101323,0.9692177755285466
9.27753303964758,0.9574208602657572
9.297356828193834,0.9446932333613386
9.317180616740089,0.9310466192761897
9.337004405286345,0.9164936404911719
9.356828193832602,0.9010478068142581
9.376651982378855,0.8847235039854281
9.396475770925111,0.8675359816232312
9.416299559471367,0.849501340566899
9.436123348017622,0.830636519679417
9.455947136563877,0.8109592821927706
9.475770925110133,0.7904882016965394
9.49559471365639,0.7692426478981872
9.515418502202644,0.7472427723187828
9.5352422907489,0.7245094941367621
9.555066079295155,0.7010644864590496
9.57488986784141,0.6769301633916162
9.594713656387666,0.6521296684122533
9.614537444933923,0.6266868647359638
9.634361233480178,0.600626328635261
9.654185022026432,0.5739733470802749
9.674008810572689,0.5467539216693295
9.693832599118945,0.5189947817507754
9.713656387665198,0.4907234110974525
9.733480176211454,0.4619680948431558
9.75330396475771,0.4327579972696366
9.773127753303967,0.403123287636921
9.792951541850222,0.3730953428815596
9.812775330396477,0.34270707730593075
9.832599118942733,0.3119934901527916
9.852422907488988,0.2809926041544751
9.872246696035244,0.24974714426499062
9.892070484581499,0.21830771167861948
9.911894273127754,0.18673923054025657
9.93171806167401,0.15513532074133238
9.951541850220266,0.12365457235878595
9.971365638766521,0.09262912565755983
9.991189427312776,0.06297870626913665
10.011013215859032,0.03835550362400641
10.030837004405289,0.0332971881862503
10.050660792951543,0.05371084337050503
10.070484581497798,0.08244529295360396
10.090308370044054,0.11329255895355748
10.11013215859031,0.14484461869541299
10.129955947136565,0.17664804640485784
10.14977973568282,0.20850391016408307
10.169603524229077,0.2403019889143395
10.189427312775331,0.27196927645217783
10.209251101321588,0.303450605716759
10.229074889867842,0.3347002832485522
10.248898678414099,0.3656780883243399
10.268722466960353,0.39634720424288045
10.28854625550661,0.4266730822366643
10.308370044052865,0.45662278800823886
10.32819383259912,0.4861646127147387
10.348017621145376,0.5152678359295668
10.367841409691632,0.5439025795288986
10.387665198237887,0.5720397178650906
10.407488986784141,0.599650823809584
10.427312775330398,0.6267081382205759
10.447136563876654,0.6531845550214038
10.466960352422909,0.6790536168520148
10.486784140969164,0.7042895179667207
10.50660792951542,0.7288671121330241
10.526431718061675,0.7527619239852874
10.546255506607931,0.7759501627485411
