Frequency (Hz),Amplitude
0.0,0.1550762760182991
0.01978021978021978,0.16766815297188808
0.03956043956043956,0.20072007869316133
0.05934065934065934,0.24602587961439695
0.07912087912087912,0.2979157637411283
0.0989010989010989,0.35334557003076816
0.11868131868131868,0.4107128733248743
0.13846153846153844,0.4691245714768436
0.15824175824175823,0.5280435484944589
0.17802197802197803,0.5871210148543946
0.1978021978021978,0.6461136498000892
0.21758241758241756,0.7048404300238124
0.23736263736263735,0.7631589425980986
0.2571428571428572,0.8209517667197008
0.2769230769230769,0.878118316385851
0.2967032967032967,0.9345697772751568
0.31648351648351647,0.9902258664967704
0.3362637362637363,1.045012703993295
0.35604395604395606,1.0988613829598746
0.3758241758241758,1.1517069919240055
0.3956043956043956,1.203487935798038
0.4153846153846154,1.2541454591335757
0.4351648351648351,1.3036233087669908
0.45494505494505494,1.351867494196842
0.4747252747252747,1.398826117513269
0.4945054945054945,1.4444492534709332
0.5142857142857143,1.4886888661153164
0.5340659340659341,1.5314987522993773
0.5538461538461538,1.5728345051226575
0.5736263736263736,1.6126534922010685
0.5934065934065934,1.650914845000841
0.6131868131868132,1.6875794564181317
0.6329670329670329,1.7226099844720228
0.6527472527472528,1.7559708604812854
0.6725274725274726,1.7876283004673863
0.6923076923076923,1.8175503188043964
0.7120879120879121,1.8457067433464904
0.7318681318681318,1.8720692314239153
0.7516483516483516,1.8966112862213969
0.7714285714285715,1.919308273148564
0.7912087912087912,1.9401374358866372
0.810989010989011,1.9590779118550474
0.8307692307692308,1.97611074688835
0.8505494505494506,1.9912189089521555
0.8703296703296702,2.00438730075724
0.8901098901098901,2.0156027711567375
0.9098901098901099,2.0248541252320695
0.9296703296703297,2.0321321329914124
0.9494505494505494,2.03742953661945
0.9692307692307692,2.040741056230755
0.989010989010989,2.0420633940907424
1.0087912087912088,2.041395237279083
1.0285714285714287,2.038737258780376
1.0483516483516484,2.0340921169965616
1.0681318681318681,2.0274644536848974
1.087912087912088,2.018860890335001
1.1076923076923075,2.0082900230082745
1.1274725274725275,1.995762415673706
1.1472527472527472,1.9812905920856068
1.1670329670329669,1.9648890262619498
1.1868131868131868,1.9465741316367098
1.2065934065934065,1.9263642489769868
1.2263736263736265,1.9042796331760106
1.2461538461538462,1.8803424390577825
1.2659340659340659,1.854576706358427
1.2857142857142858,1.8270083440860616
1.3054945054945055,1.797665114505846
1.3252747252747252,1.766576617053191
1.3450549450549452,1.7337742725494951
1.3648351648351649,1.6992913081852177
1.3846153846153846,1.663162743851709
1.4043956043956045,1.6254253805542005
1.4241758241758242,1.5861177918359899
1.443956043956044,1.545280319404591
1.4637362637362636,1.5029550744984084
1.4835164835164834,1.4591859470006088
1.5032967032967033,1.4140186249433997
1.523076923076923,1.3675006279224788
1.542857142857143,1.3196813591603869
1.5626373626373626,1.270612182677138
1.5824175824175823,1.220346534482794
1.6021978021978023,1.1689400802684211
1.621978021978022,1.1164509373178466
1.6417582417582417,1.0629399862218123
1.6615384615384616,1.0084713099708775
1.6813186813186813,0.9531128166838087
1.7010989010989013,0.8969371319709775
1.720879120879121,0.8400228954554199
1.7406593406593405,0.7824566772815027
1.7604395604395604,0.7243358707745626
1.7802197802197801,0.6657731676725834
1.7999999999999998,0.6069036850721292
1.8197802197802198,0.5478967035361544
1.8395604395604395,0.48897576465230774
1.8593406593406594,0.4304546387968169
1.879120879120879,0.37280494916313967
1.8989010989010988,0.3167900581033353
1.9186813186813187,0.26374221776922724
1.9384615384615385,0.21613977702031778
1.9582417582417584,0.17864748123731822
1.978021978021978,0.15878800032770524
1.9978021978021978,0.1632142079800581
2.0175824175824175,0.190223977197172
2.0373626373626372,0.23198088958844076
2.0571428571428574,0.2818860607578663
2.076923076923077,0.33618231839608004
2.096703296703297,0.3928868016616055
2.1164835164835165,0.45091263726314285
2.1362637362637362,0.5096206109520749
2.1560439560439564,0.5686052302491856
2.175824175824176,0.6275899583562178
2.195604395604396,0.6863733354267514
2.215384615384615,0.7447998076695735
2.2351648351648348,0.8027431623897572
2.254945054945055,0.8600967145751623
2.2747252747252746,0.9167672744715429
2.2945054945054943,0.9726713190539236
2.314285714285714,1.0277324946973074
2.3340659340659338,1.0818799497487888
2.353846153846154,1.1350471992162745
2.3736263736263736,1.187171339269825
2.3934065934065933,1.238192496879853
2.413186813186813,1.2880534406687292
2.4329670329670328,1.336699304252757
2.452747252747253,1.384077389305807
2.4725274725274726,1.4301370258950723
2.4923076923076923,1.474829474446501
2.512087912087912,1.5181078582686134
2.5318681318681318,1.559927118684957
2.5516483516483515,1.6002439869894636
2.5714285714285716,1.6390169689608924
2.5912087912087913,1.6762063387571522
2.610989010989011,1.7117741397925033
2.6307692307692307,1.745684190771623
2.6505494505494505,1.777902095476002
2.6703296703296706,1.808395255211791
2.6901098901098903,1.8371328830650366
2.70989010989011,1.8640860192896078
2.7296703296703297,1.8892275472910043
2.7494505494505495,1.912532209775912
2.769230769230769,1.9339766247205175
2.7890109890109893,1.9535393008762425
2.808791208791209,1.9712006525836177
2.8285714285714287,1.9869430137069026
2.8483516483516484,2.000750650535869
2.8681318681318677,2.0126097735290682
2.887912087912088,2.022508547795803
2.9076923076923076,2.030437102233513
2.9274725274725273,2.036387537253645
2.947252747252747,2.040353931043589
2.9670329670329667,2.042332344324829
2.986813186813187,2.0423208235788906
3.0065934065934066,2.0403194027234846
3.0263736263736263,2.0363301032311747
3.046153846153846,2.0303569326928614
3.0659340659340657,2.0224058818384196
3.085714285714286,2.012484920036948
3.1054945054945056,2.0006039893103456
3.1252747252747253,1.9867749969055704
3.145054945054945,1.97101180648456
3.1648351648351647,1.9533302280059044
3.184615384615385,1.9337480063899686
3.2043956043956046,1.9122848090800737
3.2241758241758243,1.8889622126370522
3.243956043956044,1.8638036885347475
3.2637362637362637,1.8368345883606487
3.2835164835164834,1.8080821286714701
3.3032967032967036,1.7775753758101196
3.3230769230769233,1.745345231062128
3.342857142857143,1.711424416620376
3.3626373626373627,1.6758474629432707
3.3824175824175824,1.6386506982421867
3.4021978021978025,1.5998722410300692
3.4219780219780223,1.5595519969214595
3.441758241758242,1.5177316612172114
3.4615384615384617,1.4744547292672432
3.481318681318681,1.429766517228408
3.501098901098901,1.3837141966885227
3.520879120879121,1.3363468478113507
3.5406593406593405,1.2877155373176468
3.5604395604395602,1.237873429977168
3.58021978021978,1.1868759456880744
3.5999999999999996,1.1347809791983539
3.61978021978022,1.08164920692992
3.6395604395604395,1.0275445165829185
3.659340659340659,0.9725346125180591
3.679120879120879,0.9166918772329875
3.6989010989010986,0.860094613346923
3.718681318681319,0.8028288635276937
3.7384615384615385,0.7449911301408572
3.758241758241758,0.6866925347778354
3.7780219780219784,0.6280653545683996
3.7978021978021976,0.5692736202519199
3.8175824175824173,0.5105309291634847
3.8373626373626375,0.45213163135764267
3.8571428571428568,0.39450795312710407
3.876923076923077,0.3383396998537702
3.896703296703296,0.2847739255949313
3.916483516483517,0.2358703150171514
3.936263736263736,0.19542143888710145
3.956043956043956,0.1697907437959003
3.9758241758241755,0.16610144848910255
3.9956043956043956,0.1856795461763741
4.015384615384615,0.2224041736551664
4.035164835164835,0.26924192916710493
4.054945054945055,0.32166679491296885
4.0747252747252745,0.3771965145566586
4.094505494505494,0.43446776070529414
4.114285714285715,0.4926890191053715
4.134065934065934,0.5513677525979247
4.153846153846154,0.6101753451637194
4.173626373626373,0.6688777505064669
4.193406593406594,0.7272981714296781
4.213186813186813,0.785296025920498
4.232967032967033,0.8427545810946746
4.252747252747253,0.8995734058289819
4.2725274725274724,0.9556636112539136
4.292307692307692,1.010944763081927
4.312087912087913,1.0653428291687896
4.331868131868132,1.1187887867070765
4.351648351648352,1.1712176605874522
4.371428571428571,1.2225678500852564
4.391208791208792,1.2727806523136533
4.410989010989011,1.3217999224160704
4.43076923076923,1.3695718303265916
4.450549450549451,1.4160446867049028
4.4703296703296695,1.461168819041303
4.49010989010989,1.5048964845365125
4.50989010989011,1.5471818101749184
4.52967032967033,1.5879807530438614
4.549450549450549,1.6272510757973284
4.569230769230769,1.6649523334728653
4.589010989010989,1.7010458688128944
4.608791208791209,1.7354948139272173
4.628571428571428,1.7682640966377725
4.648351648351649,1.7993204502215134
4.6681318681318675,1.8286324255487665
4.687912087912088,1.856170404827548
4.707692307692308,1.8819066163274447
4.7274725274725276,1.9058151495825906
4.747252747252747,1.9278719706711231
4.767032967032967,1.9480549372455356
4.786813186813187,1.9663438130493047
4.806593406593407,1.9827202817038119
4.826373626373626,1.997167959589206
4.846153846153847,2.009672407674733
4.8659340659340655,2.0202211421807794
4.885714285714286,2.028803643976921
4.905494505494506,2.0354113666393303
4.9252747252747255,2.0400377431069
4.945054945054945,2.0426781908898843
4.964835164835165,2.043330115797714
4.984615384615385,2.0419929141644304
5.004395604395604,2.038667973561392
5.024175824175824,2.0333586719977808
5.043956043956045,2.0260703756203373
5.0637362637362635,2.0168104349349982
5.083516483516483,2.005588179584913
5.103296703296703,1.9924149117323167
5.123076923076923,1.9773038981061266
5.142857142857143,1.960270360793348
5.162637362637362,1.9413314668713961
5.182417582417583,1.920506317000637
5.2021978021978015,1.897815933122996
5.221978021978022,1.873283245444395
5.241758241758242,1.8469330789181533
5.2615384615384615,1.8187921394943953
5.281318681318681,1.7888890004609064
5.301098901098901,1.7572540892761639
5.320879120879121,1.7239196753910397
5.340659340659341,1.6889198596779569
5.36043956043956,1.6522905662438103
5.380219780219781,1.614069537607809
5.3999999999999995,1.574296334494359
5.41978021978022,1.5330123418463402
5.43956043956044,1.4902607831394048
5.4593406593406595,1.446086745719056
5.479120879120879,1.4005372207560283
5.498901098901099,1.3536611626209842
5.518681318681319,1.3055095741605294
5.538461538461538,1.2561356267322943
5.558241758241758,1.205594827258746
5.578021978021979,1.1539452495030735
5.5978021978021975,1.1012478540682658
5.617582417582418,1.0475669325775931
5.637362637362637,0.9929707282531874
5.6571428571428575,0.9375323112587093
5.676923076923077,0.8813308288781124
5.696703296703297,0.8244533187260322
5.716483516483517,0.7669973874030843
5.736263736263735,0.7090752540508348
5.756043956043956,0.6508200089121384
5.775824175824176,0.5923955823319969
5.795604395604395,0.534013150412345
5.815384615384615,0.4759591379499272
5.835164835164835,0.4186449592699741
5.854945054945055,0.3626990502290995
5.874725274725275,0.3091431870351946
5.894505494505494,0.2597333779064
5.914285714285715,0.21756972716941578
5.934065934065933,0.18781352696402953
5.953846153846154,0.1769767227306301
5.973626373626374,0.1883949089794207
5.993406593406593,0.21857092716385945
6.013186813186813,0.2609875164475536
6.032967032967033,0.3105424964448287
6.052747252747253,0.3641822893183336
6.072527472527473,0.42017727460594
6.092307692307692,0.4775197598374375
6.112087912087913,0.5355889574810392
6.131868131868131,0.5939777788666525
6.151648351648352,0.6524023600397223
6.171428571428572,0.7106531106359185
6.191208791208791,0.7685671251495314
6.210989010989011,0.8260120032511087
6.230769230769231,0.8828760089464187
6.2505494505494505,0.939061887383035
6.270329670329671,0.9944828671052167
6.29010989010989,1.049060010085831
6.309890109890111,1.1027204169689073
6.329670329670329,1.1553959890497238
6.349450549450549,1.2070225611187788
6.36923076923077,1.257539286503102
6.3890109890109885,1.3068881968113364
6.408791208791209,1.3550138847198097
6.428571428571428,1.4018632747004083
6.4483516483516485,1.447385457426704
6.468131868131868,1.4915315708145702
6.487912087912088,1.5342547155470097
6.507692307692308,1.5755098963015348
6.527472527472527,1.6152539822516119
6.547252747252747,1.653445682079759
6.567032967032967,1.690045529934496
6.5868131868131865,1.7250158796301978
6.606593406593407,1.7583209050246071
6.626373626373626,1.789926604980322
6.6461538461538465,1.8198008116694437
6.665934065934065,1.847913201247491
6.685714285714286,1.874235306126113
6.705494505494506,1.8987405282308238
6.725274725274725,1.9214041527516772
6.745054945054945,1.9422033619898484
6.764835164835165,1.9611172489785393
6.7846153846153845,1.9781268306163247
6.804395604395605,1.9932150600995897
6.824175824175824,2.0063668384797215
6.8439560439560445,2.017569025202955
6.863736263736263,2.026810447517726
6.883516483516484,2.0340819086568738
6.903296703296704,2.039376194721509
6.923076923076923,2.042688080210293
6.942857142857143,2.0440143321530533
6.962637362637362,2.043353712821378
6.9824175824175825,2.0407069810019074
7.002197802197802,2.0360768918305747
7.021978021978022,2.029468195198383
7.041758241758242,2.0208876327522374
7.061538461538461,2.010343933527615
7.081318681318681,1.9978478082646585
7.101098901098901,1.9834119424752104
7.1208791208791204,1.9670509883467349
7.140659340659341,1.9487815555902437
7.16043956043956,1.9286222013641146
7.1802197802197805,1.9065934194353042
7.199999999999999,1.8827176287750957
7.21978021978022,1.8570191618298515
7.23956043956044,1.8295242527610331
7.259340659340659,1.800261026014753
7.279120879120879,1.7692594856648864
7.298901098901099,1.7365515060786065
7.318681318681318,1.7021708245877682
7.338461538461539,1.6661530370215083
7.358241758241758,1.6285355971790993
7.3780219780219785,1.5893578216135205
7.397802197802197,1.5486609014809465
7.417582417582418,1.5064879237226876
7.437362637362638,1.4628839045329587
7.457142857142857,1.4178958389976657
7.476923076923077,1.3715727720665174
7.496703296703297,1.3239658977922302
7.516483516483516,1.2751286962562187
7.536263736263736,1.22511712113435
7.556043956043957,1.1739898559505129
7.575824175824176,1.1218086645193763
7.595604395604395,1.0686388721607205
7.615384615384615,1.0145500310303521
7.635164835164835,0.9596168487477486
7.654945054945055,0.9039205001352494
7.674725274725275,0.8475505072150153
7.694505494505494,0.790607480177126
7.7142857142857135,0.7332071937494987
7.734065934065935,0.6754867889581629
7.753846153846154,0.6176144544532057
7.7736263736263735,0.5598049809848697
7.793406593406592,0.50234555381272
7.813186813186814,0.44563997567695
7.832967032967034,0.3902870059965549
7.852747252747252,0.33722265207004043
7.872527472527472,0.28797851435145383
7.892307692307693,0.24511619338019833
7.912087912087912,0.21274267681278308
7.931868131868132,0.19627024811306226
7.951648351648351,0.19973942194813268
7.971428571428572,0.2222055987636047
7.991208791208791,0.25869502474006517
8.010989010989011,0.30408914455557484
8.03076923076923,0.35484681353389186
8.05054945054945,0.40881533271676745
8.07032967032967,0.4647037918984393
8.09010989010989,0.5217122112440666
8.10989010989011,0.5793198013727061
8.129670329670331,0.637168922469378
8.149450549450549,0.6950007566505387
8.169230769230769,0.7526186049214564
8.189010989010988,0.8098662348054092
8.20879120879121,0.8666146784867391
8.22857142857143,0.9227539324902252
8.248351648351647,0.9781875921608072
8.268131868131867,1.0328292964891022
8.287912087912087,1.086600320684742
8.307692307692308,1.1394279148239936
8.327472527472528,1.1912441385931178
8.347252747252746,1.2419850327484796
8.367032967032966,1.2915900233973856
8.386813186813187,1.3400014899774664
8.406593406593407,1.3871644500777909
8.426373626373627,1.4330263287855047
8.446153846153845,1.4775367899121412
8.465934065934066,1.5206476129945814
8.485714285714286,1.5623126044594149
8.505494505494505,1.6024875344716984
8.525274725274725,1.641130093202453
8.545054945054945,1.6781998618327947
8.564835164835165,1.7136582947591044
8.584615384615384,1.7474687103031403
8.604395604395604,1.7795962878519231
8.624175824175826,1.8100080698162433
8.643956043956043,1.8386729671467363
8.663736263736263,1.86556176741263
8.683516483516483,1.890647144653181
8.703296703296704,1.9139036703698031
8.723076923076924,1.9353078251510099
8.742857142857142,1.9548380105195116
8.762637362637362,1.9724745606683072
8.782417582417583,1.9881997538146603
8.802197802197803,2.0019978229512208
8.821978021978023,2.0138549658145197
8.84175824175824,2.0237593539251573
8.86153846153846,2.0317011405826437
8.881318681318682,2.0376724677220097
8.901098901098901,2.041667471560528
8.920879120879121,2.0436822869815634
8.940659340659339,2.0437150506193986
8.96043956043956,2.0417659026246655
8.98021978021978,2.037836987105287
9.0,2.031932451252336
9.01978021978022,2.0240584431757664
9.03956043956044,2.0142231084905764
9.05934065934066,2.002436585711205
9.079120879120879,1.9887110005307531
9.098901098901099,1.9730604590831644
9.11868131868132,1.9555010403108344
9.138461538461538,1.936050787589185
9.158241758241758,1.9147296997937715
9.178021978021977,1.8915597220368707
9.197802197802199,1.8665647363503306
9.217582417582419,1.8397705526532344
9.237362637362637,1.8112049004190318
9.257142857142856,1.7808974215520008
9.276923076923078,1.7488796651032634
9.296703296703297,1.7151850846087195
9.316483516483517,1.679849039026715
9.336263736263735,1.642908798505203
9.356043956043957,1.604403556535639
9.375824175824176,1.5643744504811556
9.395604395604396,1.5228645930352154
9.415384615384616,1.4799191179271438
9.435164835164835,1.4355852442155432
9.454945054945055,1.3899123649062413
9.474725274725275,1.3429521675533598
9.494505494505495,1.2947587971781649
9.514285714285714,1.2453890756126316
9.534065934065934,1.1949027967618455
9.553846153846154,1.1433631250789218
9.573626373626373,1.0908371360091602
9.593406593406593,1.0373965542761727
9.613186813186815,0.9831187718812981
9.632967032967032,0.9280882679093945
9.652747252747252,0.872398615693675
9.672527472527472,0.8161553651353316
9.692307692307693,0.7594802563984526
9.712087912087913,0.702517505142011
9.731868131868131,0.6454433895358861
9.75164835164835,0.5884812345564443
9.771428571428572,0.5319254460717816
9.791208791208792,0.4761810765048482
9.810989010989012,0.421830477809842
9.83076923076923,0.3697470484364085
9.850549450549451,0.32128659127119263
9.87032967032967,0.2785822232210985
9.89010989010989,0.2448703445202635
9.90989010989011,0.22439647948516694
9.92967032967033,0.22095664978942023
9.94945054945055,0.23531026040215636
9.96923076923077,0.2645271106782298
9.989010989010989,0.30426120096023085
10.008791208791209,0.3508311004701668
10.028571428571428,0.4017176190276261
10.048351648351648,0.4553106993406328
10.068131868131868,0.5105821340678394
10.08791208791209,0.5668562322300732
10.107692307692307,0.6236707249114155
10.127472527472527,0.6806952032097079
10.147252747252747,0.737683026034128
10.167032967032966,0.7944423783008959
10.186813186813188,0.8508184055618978
10.206593406593406,0.9066818936712902
10.226373626373626,0.9619219137371293
10.246153846153845,1.0164409314396399
10.265934065934067,1.0701514860727928
10.285714285714286,1.1229738928529698
10.305494505494504,1.1748346267372642
10.325274725274724,1.2256651691841638
10.345054945054946,1.2754011751204346
10.364835164835165,1.3239818650687205
10.384615384615385,1.3713495779926719
10.404395604395603,1.4174494404273381
10.424175824175824,1.4622291207790674
10.443956043956044,1.5056386466873757
10.463736263736264,1.5476302695285271
10.483516483516484,1.5881583644509307
10.503296703296703,1.6271793573763351
10.523076923076923,1.6646516725759788
10.542857142857143,1.7005356960048046
10.562637362637362,1.7347937507273252
10.582417582417584,1.7673900816189707
10.602197802197802,1.7982908471612788
