Frequency (Hz),Amplitude
0.0,3.864081611732808
0.019867549668874173,3.8763286983707004
0.039735099337748346,3.912792122894434
0.059602649006622516,3.972663969459072
0.07947019867549669,4.054677542713272
0.09933774834437085,4.157209987395676
0.11920529801324503,4.27839785946075
0.13907284768211922,4.416248683579197
0.15894039735099338,4.568736544076145
0.17880794701986755,4.73387583286133
0.1986754966887417,4.9097724275430865
0.2185430463576159,5.09465490069194
0.23841059602649006,5.286889892359585
0.2582781456953642,5.484986002639265
0.27814569536423844,5.687590047584228
0.2980132450331126,5.893478716038599
0.31788079470198677,6.101547841997102
0.33774834437086093,6.310800800570723
0.3576158940397351,6.520336987482533
0.3774834437086093,6.72934094571659
0.3973509933774834,6.937072432056178
0.4172185430463576,7.142857540303697
0.4370860927152318,7.346080889745121
0.45695364238410596,7.546178825312425
0.4768211920529801,7.742633543965859
0.49668874172185434,7.93496804885675
0.5165562913907285,8.122741831256821
0.5364238410596026,8.305547185076382
0.5562913907284769,8.483006066880627
0.5761589403973509,8.654767423704604
0.5960264900662252,8.82050492052042
0.6158940397350993,8.979915008287039
0.6357615894039735,9.132715281800031
0.6556291390728477,9.27864308393183
0.6754966887417219,9.417454319301903
0.695364238410596,9.548922445989987
0.7152317880794702,9.672837618686595
0.7350993377483444,9.789005960751874
0.7549668874172186,9.89724894612052
0.7748344370860927,9.997402874932137
0.7947019867549668,10.089318429261482
0.8145695364238411,10.172860297440794
0.8344370860927152,10.247906857266845
0.8543046357615894,10.314349909919933
0.8741721854304636,10.372094457736814
0.8940397350993378,10.421058520108376
0.9139072847682119,10.461172982753235
0.9337748344370861,10.492381476472799
0.9536423841059603,10.514640282248646
0.9735099337748344,10.527918260217934
0.9933774834437087,10.53219680067564
1.0132450331125828,10.527469795819185
1.033112582781457,10.513743631485866
1.0529801324503312,10.491037198650144
1.0728476821192052,10.459381924958219
1.0927152317880795,10.418821827095451
1.1125827814569538,10.369413585318899
1.1324503311258278,10.311226642057791
1.1523178807947019,10.244343327102873
1.1721854304635762,10.16885901258664
1.1920529801324504,10.084882301719974
1.2119205298013245,9.992535256115605
1.2317880794701985,9.891953667520797
1.2516556291390728,9.783287380926769
1.271523178807947,9.666700677354543
1.2913907284768211,9.542372726174262
1.3112582781456954,9.410498118641312
1.3311258278145695,9.271287496482786
1.3509933774834437,9.12496829189994
1.370860927152318,8.971785598338807
1.390728476821192,8.812003194900091
1.410596026490066,8.645904751397353
1.4304635761589404,8.473795245923949
1.4503311258278146,8.296002632441411
1.4701986754966887,8.112879802439107
1.4900662251655628,7.924806892178897
1.5099337748344372,7.7321939954164245
1.5298013245033113,7.535484350644649
1.5496688741721854,7.335158081501465
1.5695364238410596,7.131736578352989
1.5894039735099337,6.925787617009683
1.609271523178808,6.717931315027399
1.6291390728476822,6.508847023803526
1.6490066225165563,6.299281240541492
1.6688741721854303,6.090056590277332
1.6887417218543048,5.882081862975274
1.7086092715231789,5.676362977806777
1.728476821192053,5.474014564017097
1.7483443708609272,5.276271567568638
1.7682119205298013,5.0844998844437015
1.7880794701986755,4.900204459426346
1.8079470198675496,4.725032569387942
1.8278145695364238,4.560769180134776
1.847682119205298,4.409320469012299
1.8675496688741722,4.272681130499565
1.8874172185430464,4.152881388899825
1.9072847682119205,4.051911304242999
1.9271523178807946,3.971623445492514
1.9470198675496688,3.9136202870509726
1.9668874172185429,3.8791387755852926
1.9867549668874174,3.868949342817413
2.0066225165562916,3.883287659661941
2.0264900662251657,3.921832997614528
2.0463576158940397,3.9837378268105703
2.066225165562914,4.067702332060765
2.086092715231788,4.172078905685512
2.1059602649006623,4.2949881439395865
2.1258278145695364,4.43442965390861
2.1456953642384105,4.588376178031662
2.165562913907285,4.754845616360251
2.185430463576159,4.931950557222268
2.205298013245033,5.117928105767824
2.2251655629139075,5.311154207283084
2.2450331125827816,5.510146807620305
2.2649006622516556,5.713561641041638
2.2847682119205297,5.920183619373764
2.3046357615894038,6.128915978147513
2.324503311258278,6.338768639887434
2.3443708609271523,6.548846718639592
2.364238410596027,6.758339704159215
2.384105960264901,6.966511601667072
2.403973509933775,7.172692133284337
2.423841059602649,7.376269003307694
2.443708609271523,7.576681170239226
2.463576158940397,7.773413038393348
2.4834437086092715,7.9659894700781555
2.5033112582781456,8.153971518438986
2.52317880794702,8.336952786250404
2.543046357615894,8.514556324201164
2.562913907284768,8.686431991664504
2.5827814569536423,8.85225421248798
2.6026490066225163,9.01172006736935
2.622516556291391,9.164547672608702
2.642384105960265,9.310474802333776
2.662251655629139,9.44925771767734
2.6821192052980134,9.580670171899222
2.7019867549668874,9.704502565170563
2.7218543046357615,9.820561226767296
2.741721854304636,9.928667805844666
2.76158940397351,10.028658754870644
2.781456953642384,10.120384892261185
2.801324503311258,10.20371103285267
2.821192052980132,10.278515676626082
2.8410596026490067,10.344690747614935
2.8609271523178808,10.402141376228203
2.8807947019867552,10.450785719337693
2.9006622516556293,10.490554813449112
2.9205298013245033,10.5213924571231
2.9403973509933774,10.543255119561602
2.9602649006622515,10.556111872945792
2.9801324503311255,10.559944346720869
3.0,10.554746702588684
3.0198675496688745,10.540525629502701
3.0397350993377485,10.517300358476936
3.0596026490066226,10.485102697532804
3.0794701986754967,10.44397708762758
3.0993377483443707,10.393980680950278
3.119205298013245,10.335183443545363
3.1390728476821192,10.267668284850147
3.1589403973509933,10.191531217421906
3.1788079470198674,10.106881550903639
3.198675496688742,10.013842125156879
3.218543046357616,9.912549588496274
3.23841059602649,9.80315472812563
3.2582781456953644,9.685822861229994
3.2781456953642385,9.560734296762877
3.2980132450331126,9.42808487982749
3.3178807947019866,9.288086632739674
3.3377483443708607,9.140968509439398
3.3576158940397347,8.98697728295953
3.3774834437086096,8.826378589244422
3.3973509933774837,8.65945815482574
3.4172185430463577,8.48652324080125
3.437086092715232,8.30790434131677
3.456953642384106,8.123957181398502
3.47682119205298,7.935065066568666
3.4966887417218544,7.741641645176542
3.5165562913907285,7.544134153643334
3.5364238410596025,7.343027224495304
3.556291390728477,7.138847346441341
3.576158940397351,6.932168073582138
3.596026490066225,6.7236160850000815
3.615894039735099,6.5138781930447
3.6357615894039736,6.30370938323159
3.6556291390728477,6.093941932663691
3.6754966887417218,5.8854955852853115
3.695364238410596,5.679388644160603
3.7152317880794703,5.476749650600767
3.7350993377483444,5.2788290290961495
3.754966887417219,5.087009654841922
3.774834437086093,4.902814722273955
3.794701986754967,4.727910557216185
3.814569536423841,4.564101175643367
3.834437086092715,4.41331060272458
3.854304635761589,4.2775485308657455
3.8741721854304636,4.158855290854486
3.8940397350993377,4.059223915504759
3.9139072847682117,3.980500740945811
3.9337748344370858,3.9242714230464166
3.9536423841059607,3.891745363122679
3.9735099337748347,3.883656178793938
3.993377483443709,3.9001964740140496
4.013245033112583,3.941000249834291
4.033112582781457,4.005176719931615
4.052980132450331,4.0913883231879495
4.072847682119205,4.197957399575393
4.0927152317880795,4.322982912531507
4.112582781456953,4.464450769360251
4.132450331125828,4.620326690835636
4.152317880794702,4.788626661194282
4.172185430463576,4.9674649096446775
4.19205298013245,5.155082409833806
4.211920529801325,5.349860169797005
4.231788079470199,5.5503216511386375
4.251655629139073,5.755128064058502
4.271523178807947,5.963069455697751
4.291390728476821,6.1730536936705755
4.311258278145695,6.384094760387778
4.33112582781457,6.595301248418416
4.3509933774834435,6.805865571143521
4.370860927152318,7.015054148186325
4.390728476821192,7.222198661059398
4.410596026490066,7.426688374584216
4.43046357615894,7.6279634631439475
4.450331125827815,7.825509252539492
4.470198675496689,8.01885127752985
4.490066225165563,8.207551054917351
4.509933774834438,8.391202477631804
4.529801324503311,8.569428743733353
4.549668874172186,8.74187974379378
4.569536423841059,8.908229839680816
4.589403973509934,9.068175976785062
4.6092715231788075,9.221436079917144
4.629139072847682,9.36774769036325
4.649006622516556,9.506866807922403
4.66887417218543,9.638566907216365
4.688741721854305,9.762638102246681
4.708609271523179,9.878886437165638
4.728476821192054,9.987133284619782
4.748344370860927,10.087214835903678
4.768211920529802,10.178981669602203
4.788079470198675,10.262298387472606
4.80794701986755,10.337043308080274
4.827814569536423,10.40310821020544
4.847682119205298,10.460398119326607
4.867549668874172,10.508831131595215
4.887417218543046,10.548338270678746
4.9072847682119205,10.578863373691243
4.927152317880794,10.600363003174877
4.947019867549669,10.612806382764305
4.966887417218543,10.61617535477346
4.986754966887418,10.610464358509303
5.006622516556291,10.59568042865145
5.026490066225166,10.571843213555868
5.04635761589404,10.538985013855516
5.066225165562914,10.497150842255904
5.086092715231788,10.446398505970313
5.105960264900662,10.386798713822042
5.125827814569536,10.318435210675194
5.14569536423841,10.241404942556768
5.1655629139072845,10.15581825661952
5.185430463576159,10.061799140990262
5.205298013245033,9.959485510574869
5.225165562913908,9.84902954607949
5.245033112582782,9.730598094890512
5.264900662251656,9.604373144074703
5.28476821192053,9.470552377660708
5.304635761589404,9.329349832600768
5.324503311258278,9.180996670447758
5.344370860927152,9.025742084893304
5.364238410596027,8.863854368976785
5.3841059602649,8.695622170084672
5.403973509933775,8.521355965907714
5.4238410596026485,8.34138980040382
5.443708609271523,8.156083325602653
5.463576158940397,7.965824202827347
5.483443708609272,7.771030925567896
5.503311258278146,7.572156135658367
5.52317880794702,7.369690514206974
5.543046357615895,7.164167338156968
5.562913907284768,6.956167801095708
5.582781456953643,6.74632720075517
5.602649006622516,6.535342091968328
5.622516556291391,6.323978487054695
5.642384105960264,6.113081147200811
5.662251655629139,5.903583935916515
5.682119205298013,5.69652108151858
5.701986754966887,5.4930389963566
5.7218543046357615,5.294407997192047
5.741721854304636,5.102032832669135
5.7615894039735105,4.917460326044666
5.781456953642384,4.742381686082943
5.801324503311259,4.578626186846705
5.821192052980132,4.4281421343860945
5.841059602649007,4.292960646832885
5.860927152317881,4.175138268674734
5.880794701986755,4.076676407240537
5.900662251655629,3.9994194478202303
5.920529801324503,3.9449390102098145
5.940397350993377,3.9144179621956288
5.960264900662251,3.9085522472446637
5.980132450331126,3.927488763280897
6.0,3.9708120864283063
6.0198675496688745,4.037582877497577
6.039735099337749,4.12641980044748
6.059602649006623,4.235608763511784
6.079470198675497,4.3632206834559195
6.099337748344371,4.5072215541738725
6.119205298013245,4.665564217205365
6.139072847682119,4.836257328297317
6.158940397350993,5.017411826921156
6.178807947019867,5.207268107249432
6.198675496688741,5.404208251741734
6.218543046357616,5.606757672649639
6.23841059602649,5.813579871723278
6.258278145695365,6.0234671840914915
6.2781456953642385,6.235329557395014
6.298013245033113,6.448182738867593
6.317880794701987,6.661136727489426
6.337748344370861,6.8733849814375265
6.357615894039735,7.084194623693373
6.377483443708609,7.29289773020734
6.397350993377484,7.498883689127318
6.417218543046357,7.701592565850737
6.437086092715232,7.900509382194433
6.456953642384105,8.095159208466871
6.47682119205298,8.28510296774265
6.496688741721854,8.469933857674496
6.516556291390729,8.649274303895139
6.5364238410596025,8.822773368731756
6.556291390728477,8.990104548576031
6.5761589403973515,9.150963902280791
6.596026490066225,9.305068461128739
6.6158940397351,9.452154878154396
6.635761589403973,9.591978280904383
6.655629139072848,9.724311297157511
6.675496688741721,9.848943227779124
6.695364238410596,9.965679344848505
6.715231788079469,10.07434029656634
6.735099337748344,10.174761603305912
6.754966887417219,10.266793231594987
6.774834437086093,10.350299234872788
6.794701986754967,10.425157451616153
6.814569536423841,10.491259252922474
6.8344370860927155,10.548509332916339
6.854304635761589,10.596825536449987
6.874172185430464,10.63613871952436
6.894039735099337,10.666392638696136
6.913907284768212,10.687543866478773
6.933774834437086,10.699561730411707
6.95364238410596,10.702428274080875
6.973509933774834,10.696138238938497
6.993377483443709,10.680699066308083
7.013245033112583,10.656130919481964
7.033112582781457,10.622466726339196
7.052980132450331,10.579752243442213
7.072847682119205,10.528046143125314
7.0927152317880795,10.467420125680144
7.112582781456954,10.397959059389168
7.132450331125828,10.319761151873003
7.152317880794702,10.232938157021735
7.172185430463576,10.137615622694916
7.19205298013245,10.033933185426854
7.211920529801324,9.922044919590098
7.231788079470198,9.802119749889021
7.251655629139073,9.674341937714981
7.271523178807947,9.538911653844895
7.291390728476822,9.396045652261833
7.311258278145695,9.245978062583402
7.33112582781457,9.088961321778825
7.3509933774834435,8.925267269618779
7.370860927152318,8.755188436729139
7.390728476821192,8.579039559304196
7.410596026490066,8.397159360571777
7.430463576158941,8.20991264606861
7.450331125827814,8.01769276771827
7.470198675496689,7.820924520567524
7.490066225165562,7.620067545655435
7.509933774834438,7.415620322452863
7.52980132450331,7.208124843827429
7.549668874172186,6.998172074158692
7.569536423841059,6.786408294702427
7.589403973509934,6.573542435799764
7.6092715231788075,6.360354477147444
7.629139072847682,6.147704956167665
7.649006622516557,5.9365455474938456
7.66887417218543,5.727930545392817
7.6887417218543055,5.52302887120982
7.708609271523178,5.323135909822788
7.728476821192054,5.1296840210997
7.748344370860927,4.944249951187379
7.768211920529802,4.768556589444937
7.788079470198675,4.604465648641466
7.80794701986755,4.453957069527507
7.827814569536423,4.319090608693596
7.847682119205298,4.20194567724143
7.8675496688741715,4.104537653563061
7.887417218543046,4.028712998514317
7.907284768211921,3.9760313117226227
7.927152317880795,3.947648665768798
7.9470198675496695,3.9442207713498605
7.966887417218543,3.9658442091592776
7.986754966887418,4.012047921131465
8.006622516556291,4.081836769607644
8.026490066225167,4.173777918531229
8.046357615894038,4.286113107571308
8.066225165562914,4.416877796848632
8.086092715231787,4.564011192186013
8.105960264900663,4.725447017260901
8.125827814569536,4.8991810200230415
8.14569536423841,5.083315904403028
8.165562913907285,5.276087120017095
8.185430463576159,5.475873975012873
8.205298013245034,5.681200433609903
8.225165562913906,5.890729277789699
8.245033112582782,6.103252450307367
8.264900662251655,6.317679580277361
8.28476821192053,6.53302602107334
8.304635761589404,6.748401223984019
8.324503311258278,6.962997913037971
8.344370860927151,7.17608228640219
8.364238410596027,7.386985316922205
8.3841059602649,7.5950951325557705
8.403973509933774,7.7998504065460255
8.42384105960265,8.000734662637486
8.443708609271523,8.197271392393304
8.463576158940398,8.389019882999238
8.483443708609272,8.575571660481025
8.503311258278146,8.756547462282818
8.52317880794702,8.931594662998817
8.543046357615895,9.100385086762438
8.562913907284768,9.26261314886579
8.582781456953642,9.417994277367848
8.602649006622515,9.566263572678482
8.62251655629139,9.707174669395005
8.642384105960264,9.840498770084107
8.66225165562914,9.966023825335647
8.682119205298013,10.083553838359608
8.701986754966887,10.192908275748092
8.721854304635762,10.293921568865219
8.741721854304636,10.386442692738107
8.76158940397351,10.470334811367472
8.781456953642383,10.545474980117618
8.801324503311259,10.611753897330559
8.821192052980132,10.669075698583752
8.841059602649008,10.717357788107986
8.86092715231788,10.756530702836997
8.880794701986755,10.786538005396402
8.90066225165563,10.807336203081444
8.920529801324504,10.818894690540155
8.940397350993377,10.821195714488175
8.960264900662251,10.814234359350133
8.980132450331126,10.798018553262803
9.0,10.77256909440346
9.019867549668875,10.737919698132494
9.039735099337747,10.69411706597886
9.059602649006623,10.641220978061419
9.079470198675496,10.579304411143129
9.099337748344372,10.508453685175914
9.119205298013245,10.428768641925936
9.139072847682119,10.340362860094539
9.158940397350994,10.243363912289762
9.178807947019868,10.137913670284819
9.198675496688743,10.024168666252958
9.218543046357615,9.902300519129176
9.23841059602649,9.77249643696089
9.258278145695364,9.634959808121177
9.27814569536424,9.489910896627977
9.298013245033111,9.33758765960851
9.317880794701987,9.178246708245519
9.33774834437086,9.012164437430396
9.357615894039736,8.839638353919211
9.37748344370861,8.66098863814267
9.397350993377483,8.476559981053782
9.417218543046358,8.286723744585613
9.437086092715232,8.09188050247194
9.456953642384107,7.892463027309036
9.47682119205298,7.688939799615709
9.496688741721854,7.4818191248382755
9.516556291390728,7.271653953902271
9.536423841059603,7.059047510536353
9.556291390728477,6.844659831692949
9.57615894039735,6.629215321948509
9.596026490066224,6.413511402536384
9.6158940397351,6.19842829121514
9.635761589403973,5.984939866743654
9.655629139072847,5.774125432058408
9.675496688741722,5.567181967848109
9.695364238410596,5.3654361321836745
9.715231788079471,5.170354780097864
9.735099337748345,4.9835521272123255
9.754966887417218,4.806790873199569
9.774834437086092,4.641973712480918
9.794701986754967,4.491120889492182
9.814569536423841,4.356329171919485
9.834437086092716,4.239708360440923
9.854304635761588,4.143293834723316
9.874172185430464,4.068938022846127
9.894039735099337,4.018189734194359
9.913907284768213,3.992176546318224
9.933774834437086,3.9915093853991186
9.95364238410596,4.01622753966014
9.973509933774835,4.065795605131946
9.993377483443709,4.139152988217152
10.013245033112582,4.234805486422691
10.033112582781456,4.350941169753565
10.052980132450331,4.485551277357782
10.072847682119205,4.636540383884675
10.09271523178808,4.801816216204825
10.112582781456952,4.979355652265507
10.132450331125828,5.1672480201434885
10.152317880794701,5.363719394293106
10.172185430463577,5.567142476350817
10.192052980132452,5.77603644769669
10.211920529801324,5.989060446113008
10.2317880794702,6.205003435369066
10.251655629139073,6.422772417986135
10.271523178807948,6.6413802761486265
10.29139072847682,6.859934028588288
10.311258278145695,7.077623942256345
10.331125827814569,7.293713705193682
10.350993377483444,7.507531720062159
10.370860927152318,7.718463490306194
10.390728476821192,7.925945023060732
10.410596026490065,8.12945715047415
10.43046357615894,8.328520664274215
10.450331125827816,8.522692160652342
10.470198675496688,8.711560499674599
10.490066225165563,8.894743792819225
10.509933774834437,9.071886842310407
10.529801324503312,9.242658965761908
10.549668874172186,9.406752148784802
10.56953642384106,9.563879476434021
10.589403973509933,9.713773801610003
10.609271523178808,9.856186614820675
10.629139072847682,9.990887085118155
10.649006622516556,10.117661246647463
10.66887417218543,10.236311309177848
10.688741721854305,10.346655074325827
10.70860927152318,10.448525442010348
10.728476821192054,10.541769994080742
10.748344370860927,10.626250644096073
10.7682119205298,10.701843343968841
10.788079470198676,10.768437839666662
10.80794701986755,10.825937469435168
10.827814569536423,10.874258999101489
10.847682119205297,10.913332489970108
10.867549668874172,10.943101195659265
