Frequency (Hz),Amplitude
0.0,2.124628936989825
0.01978021978021978,2.1308615783600406
0.03956043956043956,2.149426775770279
0.05934065934065934,2.1799377065673315
0.07912087912087912,2.221785259284801
0.0989010989010989,2.274184277406223
0.11868131868131868,2.3362264228773455
0.13846153846153844,2.4069322167987512
0.15824175824175823,2.485296745779961
0.17802197802197803,2.5703260297066537
0.1978021978021978,2.6610633002010804
0.21758241758241756,2.7566060066613094
0.23736263736263735,2.856115189358815
0.2571428571428572,2.9588190947696713
0.2769230769230769,3.0640127786432725
0.2967032967032967,3.1710551395350945
0.31648351648351647,3.2793644799554484
0.3362637362637363,3.3884133755048937
0.35604395604395606,3.4977233739709233
0.3758241758241758,3.6068598511622643
0.3956043956043956,3.7154272110695143
0.4153846153846154,3.8230645234335405
0.4351648351648351,3.929441630605104
0.45494505494505494,4.034255718018192
0.4747252747252747,4.137228321152845
0.4945054945054945,4.238102731010016
0.5142857142857143,4.336641755971491
0.5340659340659341,4.432625797823926
0.5538461538461538,4.525851201933274
0.5736263736263736,4.616128844937001
0.5934065934065934,4.703282927173355
0.6131868131868132,4.787149940969226
0.6329670329670329,4.867577789623356
0.6527472527472528,4.944425035328941
0.6725274725274726,5.017560257329279
0.6923076923076923,5.086861504285443
0.7120879120879121,5.152215827172981
0.7318681318681318,5.213518881044415
0.7516483516483516,5.270674585730404
0.7714285714285715,5.3235948370399155
0.7912087912087912,5.372199261291744
0.810989010989011,5.416415007097851
0.8307692307692308,5.456176569249859
0.8505494505494506,5.491425640358845
0.8703296703296702,5.522110986585654
0.8901098901098901,5.548188344393367
0.9098901098901099,5.569620335770281
0.9296703296703297,5.586376399825385
0.9494505494505494,5.598432739059659
0.9692307692307692,5.605772278976785
0.989010989010989,5.608384640024428
1.0087912087912088,5.60626612116077
1.0285714285714287,5.599419694627445
1.0483516483516484,5.587855011786592
1.0681318681318681,5.571588420152905
1.087912087912088,5.5506429920277425
1.1076923076923075,5.525048565428253
1.1274725274725275,5.494841798306843
1.1472527472527472,5.460066237382648
1.1670329670329669,5.420772403264698
1.1868131868131868,5.377017893945898
1.2065934065934065,5.328867509196912
1.2263736263736265,5.276393398902467
1.2461538461538462,5.219675238971967
1.2659340659340659,5.158800439137905
1.2857142857142858,5.09386438774684
1.3054945054945055,5.024970739570529
1.3252747252747252,4.952231753741754
1.3450549450549452,4.875768690179065
1.3648351648351649,4.795712274336433
1.3846153846153846,4.712203241831123
1.4043956043956045,4.625392976500816
1.4241758241758242,4.535444257752269
1.443956043956044,4.442532135718155
1.4637362637362636,4.346844955752598
1.4835164835164834,4.2485855571630005
1.5032967032967033,4.147972674747776
1.523076923076923,4.0452425755681
1.542857142857143,3.9406509671949825
1.5626373626373626,3.834475217029626
1.5824175824175823,3.727016924508051
1.6021978021978023,3.6186048879686017
1.621978021978022,3.5095985039699333
1.6417582417582417,3.4003916263095544
1.6615384615384616,3.2914168911115858
1.6813186813186813,3.1831504777314197
1.7010989010989013,3.076117215511353
1.720879120879121,2.9708958541438815
1.7406593406593405,2.8681241793895396
1.7604395604395604,2.7685034649403266
1.7802197802197801,2.672801497990099
1.7999999999999998,2.5818531046868785
1.8197802197802198,2.4965567600231053
1.8395604395604395,2.417865563387572
1.8593406593406594,2.346770721692625
1.879120879120879,2.2842758937819516
1.8989010989010988,2.231361531161777
1.9186813186813187,2.1889398628140793
1.9384615384615385,2.1578033723064616
1.9582417582417584,2.138572098929317
1.978021978021978,2.1316470607328415
1.9978021978021978,2.137177576698819
2.0175824175824175,2.155048610591356
2.0373626373626372,2.1848906442477167
2.0571428571428574,2.226110112126418
2.076923076923077,2.277934632271947
2.096703296703297,2.339465341884078
2.1164835164835165,2.409728882762237
2.1362637362637362,2.4877234145585985
2.1560439560439564,2.5724555024245954
2.175824175824176,2.6629669906924955
2.195604395604396,2.758352579954116
2.215384615384615,2.8577696904409815
2.2351648351648348,2.960442465298113
2.254945054945055,3.065661660600233
2.2747252747252746,3.1727818782170565
2.2945054945054943,3.2812172563730204
2.314285714285714,3.390436415729295
2.3340659340659338,3.4999571980134974
2.353846153846154,3.6093415359361205
2.3736263736263736,3.718190650969843
2.3934065934065933,3.8261406785390113
2.413186813186813,3.9328587569862443
2.4329670329670328,4.038039577640346
2.452747252747253,4.141402370796537
2.4725274725274726,4.242688290821132
2.4923076923076923,4.341658158936812
2.512087912087912,4.438090521814597
2.5318681318681318,4.531779986090363
2.5516483516483515,4.6225357921708214
2.5714285714285716,4.710180594467451
2.5912087912087913,4.794549419056637
2.610989010989011,4.875488773460826
2.6307692307692307,4.952855886648082
2.6505494505494505,5.026518060401526
2.6703296703296706,5.09635211590461
2.6901098901098903,5.162243921737426
2.70989010989011,5.224087991511703
2.7296703296703297,5.281787141120143
2.7494505494505495,5.335252197074965
2.769230769230769,5.384401748693141
2.7890109890109893,5.429161937983432
2.808791208791209,5.469466282029953
2.8285714285714287,5.505255523473161
2.8483516483516484,5.536477505382959
2.8681318681318677,5.563087067418748
2.887912087912088,5.585045960692988
2.9076923076923076,5.602322779212764
2.9274725274725273,5.6148929061789445
2.947252747252747,5.622738473785998
2.9670329670329667,5.625848335495808
2.986813186813187,5.624218050064714
3.0065934065934066,5.617849876891441
3.0263736263736263,5.6067527825317285
3.046153846153846,5.590942458499925
3.0659340659340657,5.570441350755036
3.085714285714286,5.545278701555151
3.1054945054945056,5.5154906046669465
3.1252747252747253,5.481120075243111
3.145054945054945,5.442217136038164
3.1648351648351647,5.3988389220313735
3.184615384615385,5.351049805973797
3.2043956043956046,5.298921547887531
3.2241758241758243,5.242533472130792
3.243956043956044,5.181972676319576
3.2637362637362637,5.11733427718138
3.2835164835164834,5.04872169933067
3.3032967032967036,4.97624701402193
3.3230769230769233,4.900031336180664
3.342857142857143,4.820205289466243
3.3626373626373627,4.736909550812729
3.3824175824175824,4.650295487860274
3.4021978021978025,4.560525904960437
3.4219780219780223,4.467775916041246
3.441758241758242,4.372233965566245
3.4615384615384617,4.274103022106267
3.481318681318681,4.173601972611613
3.501098901098901,4.070967249204702
3.520879120879121,3.966454723974182
3.5406593406593405,3.8603419104302086
3.5604395604395602,3.7529305122946717
3.58021978021978,3.6445493600606973
3.5999999999999996,3.5355577715784787
3.61978021978022,3.426349362275361
3.6395604395604395,3.317356309792796
3.659340659340659,3.2090540415806657
3.679120879120879,3.1019662552154403
3.6989010989010986,2.996670090779455
3.718681318681319,2.893801141850579
3.7384615384615385,2.7940578058349095
3.758241758241758,2.6982042286859405
3.7780219780219784,2.6070707977034133
3.7978021978021976,2.5215508061250245
3.8175824175824173,2.4425916203607825
3.8373626373626375,2.3711785451344403
3.8571428571428568,2.3083097819911926
3.876923076923077,2.2549616213911454
3.896703296703296,2.212044454544957
3.916483516483517,2.180352302629383
3.936263736263736,2.1605109619703664
3.956043956043956,2.1529317995105584
3.9758241758241755,2.1577787751893918
3.9956043956043956,2.174954773164253
4.015384615384615,2.2041099133726734
4.035164835164835,2.2446701989298203
4.054945054945055,2.2958811019211764
4.0747252747252745,2.356858680972354
4.094505494505494,2.426640905417829
4.114285714285715,2.504233538815282
4.134065934065934,2.5886473017869807
4.153846153846154,2.6789252643524435
4.173626373626373,2.7741610391936358
4.193406593406594,2.8735092529896002
4.213186813186813,2.9761900871957576
4.232967032967033,3.081489608219602
4.252747252747253,3.188757339824705
4.2725274725274724,3.2974022024656593
4.292307692307692,3.406887632803278
4.312087912087913,3.5167264367580047
4.331868131868132,3.626475729660158
4.351648351648352,3.735732172406029
4.371428571428571,3.844127612866868
4.391208791208792,3.951325176241454
4.410989010989011,4.057015807031695
4.43076923076923,4.16091524126281
4.450549450549451,4.262761374802489
4.4703296703296695,4.362311988118803
4.49010989010989,4.459342786769437
4.50989010989011,4.5536457184714765
4.52967032967033,4.64502753054752
4.549450549450549,4.733308535113206
4.569230769230769,4.8183215530960615
4.589010989010989,4.899911011784935
4.608791208791209,4.977932173958369
4.628571428571428,5.052250479663007
4.648351648351649,5.12274098439196
4.6681318681318675,5.18928787975618
4.687912087912088,5.251784084774783
4.707692307692308,5.310130897662476
4.7274725274725276,5.364237699497879
4.747252747252747,5.414021702446816
4.767032967032967,5.459407736320081
4.786813186813187,5.500328068192752
4.806593406593407,5.53672225062595
4.826373626373626,5.568536994732701
4.846153846153847,5.595726064936332
4.8659340659340655,5.618250192797562
4.885714285714286,5.636077007749759
4.905494505494506,5.649180982991941
4.9252747252747255,5.657543395156839
4.945054945054945,5.661152296705906
4.964835164835165,5.660002500312215
4.984615384615385,5.654095574784284
5.004395604395604,5.643439852364597
5.024175824175824,5.628050447513748
5.043956043956045,5.607949287570611
5.0637362637362635,5.583165155967372
5.083516483516483,5.553733748982651
5.103296703296703,5.519697747343297
5.123076923076923,5.481106904344142
5.142857142857143,5.4380181525532745
5.162637362637362,5.390495731618644
5.182417582417583,5.338611340201432
5.2021978021978015,5.282444315645095
5.221978021978022,5.222081845662015
5.241758241758242,5.157619217098959
5.2615384615384615,5.089160107748091
5.281318681318681,5.016816928224596
5.301098901098901,4.9407112221603935
5.320879120879121,4.860974134393653
5.340659340659341,4.7777469584962775
5.36043956043956,4.691181776906257
5.380219780219781,4.601442209147685
5.3999999999999995,4.508704286150888
5.41978021978022,4.413157471537
5.43956043956044,4.31500585388998
5.4593406593406595,4.214469537444291
5.479120879120879,4.111786262138303
5.498901098901099,4.007213287378026
5.518681318681319,3.901029576701098
5.538461538461538,3.7935383221407237
5.558241758241758,3.685069846373381
5.578021978021979,3.575984916027016
5.5978021978021975,3.4666784883395656
5.617582417582418,3.3575838920838645
5.637362637362637,3.249177407253744
5.6571428571428575,3.14198314962828
5.676923076923077,3.036578077359075
5.696703296703297,2.933596807168031
5.716483516483517,2.8337357478752287
5.736263736263735,2.7377558230228427
5.756043956043956,2.6464827673731013
5.775824175824176,2.560803670917466
5.795604395604395,2.4816581720626583
5.815384615384615,2.410022582659104
5.835164835164835,2.3468854285268566
5.854945054945055,2.2932136034291264
5.874725274725275,2.2499097051964654
5.894505494505494,2.2177631147425205
5.914285714285715,2.197399643807855
5.934065934065933,2.189236418961093
5.953846153846154,2.193449226995993
5.973626373626374,2.2099582097194275
5.993406593406593,2.2384346455876236
6.013186813186813,2.2783274955900383
6.032967032967033,2.328904776775963
6.052747252747253,2.3893027896259267
6.072527472527473,2.4585761489962334
6.092307692307692,2.535743046473617
6.112087912087913,2.6198223781546646
6.131868131868131,2.709861517402665
6.151648351648352,2.8049551202469694
6.171428571428572,2.9042562883582352
6.191208791208791,3.0069817769899045
6.210989010989011,3.1124129097044
6.230769230769231,3.2198936294006884
6.2505494505494505,3.3288268093975906
6.270329670329671,3.4386696489510515
6.29010989010989,3.548928722636474
6.309890109890111,3.6591550538762236
6.329670329670329,3.768939436673119
6.349450549450549,3.877908127489534
6.36923076923077,3.9857189610614183
6.3890109890109885,4.092057900570156
6.408791208791209,4.196636006562892
6.428571428571428,4.299186794672832
6.4483516483516485,4.399463945466544
6.468131868131868,4.497239327791776
6.487912087912088,4.59230129788999
6.507692307692308,4.684453239003772
6.527472527472527,4.773512309437115
6.547252747252747,4.8593083705123945
6.567032967032967,4.941683069312958
6.5868131868131865,5.02048905433837
6.606593406593407,5.095589305149659
6.626373626373626,5.166856559714301
6.6461538461538465,5.234172825476737
6.665934065934065,5.297428962197863
6.685714285714286,5.356524326353219
6.705494505494506,5.411366468384195
6.725274725274725,5.461870875390093
6.745054945054945,5.507960752959051
6.764835164835165,5.549566840789962
6.7846153846153845,5.5866272575779545
6.804395604395605,5.6190873713439755
6.824175824175824,5.6468996920025125
6.8439560439560445,5.6700237834960445
6.863736263736263,5.688426193294247
6.883516483516484,5.702080397472175
6.903296703296704,5.710966759954719
6.923076923076923,5.715072504854463
6.942857142857143,5.7143917011439385
6.962637362637362,5.7089252591996
6.9824175824175825,5.698680939040049
7.002197802197802,5.683673370361668
7.021978021978022,5.663924084758285
7.041758241758242,5.6394615608027845
7.061538461538461,5.6103212829763605
7.081318681318681,5.576545815760846
7.101098901098901,5.538184894570635
7.1208791208791204,5.495295535600592
7.140659340659341,5.447942167115718
7.16043956043956,5.396196785217799
7.1802197802197805,5.3401391377067835
7.199999999999999,5.279856940324315
7.21978021978022,5.2154461304410695
7.23956043956044,5.14701116414609
7.259340659340659,5.07466536373779
7.279120879120879,4.998531323825531
7.298901098901099,4.918741385653774
7.318681318681318,4.835438190885421
7.338461538461539,4.74877532795311
7.358241758241758,4.658918086231758
7.3780219780219785,4.566044335718072
7.397802197802197,4.470345552624595
7.417582417582418,4.3720280142802865
7.437362637362638,4.271314189905756
7.457142857142857,4.168444357052387
7.476923076923077,4.063678476499989
7.496703296703297,3.9572983607583847
7.516483516483516,3.849610172308659
7.536263736263736,3.740947286252533
7.556043956043957,3.631673546453175
7.575824175824176,3.5221869321019277
7.595604395604395,3.412923629429785
7.615384615384615,3.304362466149613
7.635164835164835,3.1970296077349136
7.654945054945055,3.091503326800909
7.674725274725275,2.988418530617441
7.694505494505494,2.8884705587505715
7.7142857142857135,2.792417538831936
7.734065934065935,2.7010803200459574
7.753846153846154,2.6153387184735757
7.7736263736263735,2.5361225670906586
7.793406593406592,2.464395972690252
7.813186813186814,2.401133395259555
7.832967032967034,2.3472868552436394
7.852747252747252,2.3037448632886877
7.872527472527472,2.2712855140291155
7.892307692307693,2.250528268315516
7.912087912087912,2.2418906378183614
7.931868131868132,2.245556510267905
7.951648351648351,2.261461661124616
7.971428571428572,2.289299145297999
7.991208791208791,2.328543539571578
8.010989010989011,2.3784896228399766
8.03076923076923,2.4382990799614546
8.05054945054945,2.507048595462898
8.07032967032967,2.5837739518396607
8.09010989010989,2.6675067401529096
8.10989010989011,2.7573023010028597
8.129670329670331,2.8522590745184
8.149450549450549,2.951530491543984
8.169230769230769,3.0543309482523573
8.189010989010988,3.159937434130445
8.20879120879121,3.267688195817461
8.22857142857143,3.376979545162208
8.248351648351647,3.4872616397216065
8.268131868131867,3.598033818756263
8.287912087912087,3.7088398821730837
8.307692307692308,3.8192635535714627
8.327472527472528,3.9289242645549907
8.347252747252746,4.037473326780463
8.367032967032966,4.144590512271344
8.386813186813187,4.249981034179484
8.406593406593407,4.353372903906596
8.426373626373627,4.454514632226833
8.446153846153845,4.553173238900221
8.465934065934066,4.649132535250349
8.485714285714286,4.7421916459711175
8.505494505494505,4.832163739161501
8.525274725274725,4.918874936716462
8.545054945054945,5.002163380393197
8.564835164835165,5.081878431931762
8.584615384615384,5.15787998843582
8.604395604395604,5.230037896768483
8.624175824175826,5.298231452979048
8.643956043956043,5.362348974759359
8.663736263736263,5.422287436654247
8.683516483516483,5.477952159244076
8.703296703296704,5.529256544806786
8.723076923076924,5.576121853077448
8.742857142857142,5.618477011680408
8.762637362637362,5.6562584566346334
8.782417582417583,5.689409999046803
8.802197802197803,5.717882714726869
8.821978021978023,5.741634854001938
8.84175824175824,5.760631769480642
8.86153846153846,5.774845859942886
8.881318681318682,5.784256528909411
8.901098901098901,5.788850156791379
8.920879120879121,5.788620085840059
8.940659340659339,5.783566617418645
8.96043956043956,5.773697021408456
8.98021978021978,5.759025557848072
9.0,5.7395735111915664
9.01978021978022,5.715369237868549
9.03956043956044,5.686448228140394
9.05934065934066,5.652853183581056
9.079120879120879,5.614634111875278
9.098901098901099,5.571848441030071
9.11868131868132,5.524561155546868
9.138461538461538,5.472844957612247
9.158241758241758,5.416780456947253
9.178021978021977,5.356456393622454
9.197802197802199,5.291969898914446
9.217582417582419,5.223426800166484
9.237362637362637,5.150941976641962
9.257142857142856,5.074639774545719
9.276923076923078,4.994654490757651
9.296703296703297,4.911130936400046
9.316483516483517,4.824225093165428
9.336263736263735,4.734104877383844
9.356043956043957,4.6409510291148965
9.375824175824176,4.544958146100326
9.395604395604396,4.4463358851680805
9.415384615384616,4.345310356548832
9.435164835164835,4.242125739384178
9.454945054945055,4.137046149186871
9.474725274725275,4.030357789690061
9.494505494505495,3.922371421664737
9.514285714285714,3.813425178774458
9.534065934065934,3.7038877537164097
9.553846153846154,3.594161964363112
9.573626373626373,3.4846886859877575
9.593406593406593,3.3759510973287576
9.613186813186815,3.2684791292597093
9.632967032967032,3.1628539179454256
9.652747252747252,3.059711941746489
9.672527472527472,2.9597483560745808
9.692307692307693,2.863718830818297
9.712087912087913,2.772438949458936
9.731868131868131,2.6867799758864677
9.75164835164835,2.607659593231678
9.771428571428572,2.5360261674854137
9.791208791208792,2.4728353238753846
9.810989010989012,2.4190182941269303
9.83076923076923,2.3754426943614755
9.850549450549451,2.3428680735941185
9.87032967032967,2.3219004345201766
9.89010989010989,2.312951415925977
9.90989010989011,2.3162082719973913
9.92967032967033,2.331619716414265
9.94945054945055,2.358900167108028
9.96923076923077,2.3975516040470723
9.989010989010989,2.4468991808222342
10.008791208791209,2.5061348339897
10.028571428571428,2.5743628023735576
10.048351648351648,2.6506419758104474
10.068131868131868,2.734021732345017
10.08791208791209,2.823569750437455
10.107692307692307,2.918391757276566
10.127472527472527,3.0176441218362458
10.147252747252747,3.120540651802937
10.167032967032966,3.226355037480956
10.186813186813188,3.334420250909836
10.206593406593406,3.4441259746587365
10.226373626373626,3.55491488137845
10.246153846153845,3.6662783554223095
10.265934065934067,3.7777520595218372
10.285714285714286,3.888911605354678
10.305494505494504,3.9993684821163393
10.325274725274724,4.108766324420732
10.345054945054946,4.216777552365292
10.364835164835165,4.323100385758942
10.384615384615385,4.427456216030974
10.404395604395603,4.529587309227086
10.424175824175824,4.62925480887043
10.443956043956044,4.7262370062972385
10.463736263736264,4.820327846988363
10.483516483516484,4.911335643491166
10.503296703296703,4.999081968165537
10.523076923076923,5.083400701820261
10.542857142857143,5.1641372171064575
10.562637362637362,5.241147678176208
10.582417582417584,5.314298440533002
10.602197802197802,5.383465537170863
10.621978021978022,5.448534239020841
10.641758241758241,5.509398679408423
10.661538461538463,5.565961533694136
10.681318681318682,5.618133746543895
10.7010989010989,5.665834300379095
10.72087912087912,5.708990019511492
10.740659340659342,5.747535405294599
10.760439560439561,5.7814124983411315
10.780219780219781,5.810570764481122
