Time (s),Filtered Signal
0.0,-0.043126621385285176
0.03337008452774715,-0.1561220053391102
0.0667401690554943,-0.20240684049452703
0.10011025358324147,-0.1425896195632197
0.1334803381109886,0.020136224138476076
0.16685042263873576,0.2422018157565007
0.20022050716648293,0.4589970010951484
0.23359059169423008,0.612634858722924
0.2669606762219772,0.6750793180231812
0.30033076074972437,0.6556503005737193
0.3337008452774715,0.5900742305451537
0.36707092980521866,0.5181826794532625
0.40044101433296586,0.46317120861283484
0.433811098860713,0.42338037986539995
0.46718118338846015,0.3791564938803889
0.5005512679162073,0.30805892282653696
0.5339213524439544,0.19760700927594613
0.5672914369717016,0.04831491954536015
0.6006615214994487,-0.1320260610395693
0.6340316060271959,-0.33520951746460353
0.667401690554943,-0.5528786187985797
0.7007717750826902,-0.7689012739432531
0.7341418596104373,-0.950674597666245
0.7675119441381845,-1.049542089659517
0.8008820286659317,-1.0158720339380778
0.8342521131936789,-0.8241604705661526
0.867622197721426,-0.49455586412308505
0.9009922822491732,-0.09606620305060054
0.9343623667769203,0.2747276726124676
0.9677324513046675,0.531807511788996
1.0011025358324146,0.6361954289120835
1.0344726203601617,0.6113306968999853
1.0678427048879089,0.5282071123990442
1.101212789415656,0.4672709092460514
1.1345828739434032,0.47689198325511956
1.1679529584711503,0.5501923334789062
1.2013230429988975,0.6318733883971718
1.2346931275266446,0.6502699546160298
1.2680632120543918,0.5565967672975423
1.301433296582139,0.3505418393021518
1.334803381109886,0.0799424627336556
1.3681734656376332,-0.1833174239063658
1.4015435501653803,-0.37715810061865856
1.4349136346931275,-0.47552685353817475
1.4682837192208746,-0.49541614149969343
1.5016538037486218,-0.4836976508215862
1.535023888276369,-0.4921707055304145
1.568393972804116,-0.5532276843565646
1.6017640573318634,-0.6664558294386894
1.6351341418596106,-0.8003797068843465
1.6685042263873577,-0.9065827030063637
1.7018743109151049,-0.9385779479692571
1.735244395442852,-0.8669047556471524
1.7686144799705992,-0.6851677247774074
1.8019845644983463,-0.40724217182574934
1.8353546490260935,-0.06040277964394786
1.8687247335538406,0.3200801533838077
1.9020948180815878,0.692633419625549
1.935464902609335,1.0099469964157812
1.968834987137082,1.2235369336840447
2.002205071664829,1.2953227847270228
2.0355751561925763,1.2134475327648817
2.0689452407203235,1.0040125178547186
2.1023153252480706,0.7294717096017455
2.1356854097758178,0.46990284386354353
2.169055494303565,0.29279478894429073
2.202425578831312,0.2248463514802894
2.235795663359059,0.24035156301066027
2.2691657478868064,0.2735566457257022
2.3025358324145535,0.25034305434847604
2.3359059169423007,0.12425033982899353
2.369276001470048,-0.10091879898450747
2.402646085997795,-0.3730760498661144
2.436016170525542,-0.6170031750719956
2.4693862550532892,-0.7694717122441532
2.5027563395810364,-0.8064273011804174
2.5361264241087835,-0.7492172458272842
2.5694965086365307,-0.6483995632559255
2.602866593164278,-0.5553696598517994
2.636236677692025,-0.4975021061892582
2.669606762219772,-0.4691985802464092
2.7029768467475193,-0.44168219230139205
2.7363469312752664,-0.3842725163321963
2.7697170158030135,-0.2845583192751406
2.8030871003307607,-0.15656526939136298
2.836457184858508,-0.03313511687270333
2.869827269386255,0.052713778868430906
2.903197353914002,0.08699036689084062
2.9365674384417493,0.08389922666671859
2.9699375229694964,0.07970251765906927
3.0033076074972436,0.11408365126591527
3.0366776920249907,0.20853221332387775
3.070047776552738,0.35310451109014274
3.103417861080485,0.508789428132049
3.136787945608232,0.6246568098607105
3.1701580301359793,0.6612044830464526
3.203528114663727,0.608055396655868
3.236898199191474,0.48723691598466146
3.270268283719221,0.34104817359129863
3.3036383682469683,0.2116423707353577
3.3370084527747155,0.12332348252712377
3.3703785373024626,0.07609538650370778
3.4037486218302098,0.05196512266738977
3.437118706357957,0.028368331819201398
3.470488790885704,-0.009897251795623474
3.503858875413451,-0.06636900733232567
3.5372289599411983,-0.13667101324858205
3.5705990444689455,-0.21572315492333524
3.6039691289966926,-0.3024243441862866
3.63733921352444,-0.3983591712849415
3.670709298052187,-0.5014717179789785
3.704079382579934,-0.5991588024716946
3.7374494671076812,-0.6660394228036225
3.7708195516354284,-0.6695328601069204
3.8041896361631755,-0.5824196350231524
3.8375597206909227,-0.397528535277713
3.87092980521867,-0.1374217978859151
3.904299889746417,0.1471864824637849
3.937669974274164,0.39225820083108565
3.9710400588019112,0.5441359951759798
4.004410143329658,0.5822582224050006
4.0377802278574055,0.529644663676083
4.071150312385153,0.4443460653798603
4.1045203969129,0.39387113078596725
4.137890481440647,0.42350109653995494
4.171260565968394,0.533378200984767
4.204630650496141,0.6756799784560754
4.238000735023888,0.7736640907096018
4.2713708195516356,0.7539453198443502
4.304740904079383,0.5775333074307188
4.33811098860713,0.25657661113509034
4.371481073134877,-0.1490347880670614
4.404851157662624,-0.5522867578909023
4.438221242190371,-0.8678211732944269
4.471591326718118,-1.0382800829883272
4.504961411245866,-1.050029680649525
4.538331495773613,-0.9344435172011414
4.57170158030136,-0.7553781058852046
4.605071664829107,-0.5870449125497625
4.638441749356854,-0.48888848540592555
4.671811833884601,-0.48514517273488
4.7051819184123485,-0.5560483776567846
4.738552002940096,-0.64466213287687
4.771922087467843,-0.6781706488163899
4.80529217199559,-0.5965239751049082
4.838662256523337,-0.3772656535492461
4.872032341051084,-0.04579140193708064
4.905402425578831,0.33396818574543224
4.9387725101065785,0.68453305219528
4.972142594634326,0.9439977709154641
5.005512679162073,1.085798502002287
5.03888276368982,1.1207859821818296
5.072252848217567,1.0828581133108952
5.105622932745314,1.0079146248229618
5.138993017273061,0.9183370576030161
5.1723631018008085,0.8203206230098178
5.205733186328556,0.7125351326215049
5.239103270856303,0.5975467782117605
5.27247335538405,0.48662313916349953
5.305843439911797,0.39417203056005257
5.339213524439544,0.3260427580958728
5.372583608967291,0.27070551402660986
5.4059536934950385,0.20072288448603515
5.439323778022786,0.0851714301739606
5.472693862550533,-0.09360964310845618
5.50606394707828,-0.32862431640494616
5.539434031606027,-0.5889195330754813
5.572804116133774,-0.8322187165401607
5.606174200661521,-1.022701889859511
5.6395442851892685,-1.1444998020028032
5.672914369717016,-1.2040135373843501
5.706284454244763,-1.2203045956378271
5.73965453877251,-1.2092405326835256
5.773024623300257,-1.1705512795606459
5.806394707828004,-1.0856424056644853
5.839764792355751,-0.9283826701895187
5.873134876883499,-0.6837861108308596
5.906504961411246,-0.3643405744554789
5.939875045938993,-0.013818643571241502
5.97324513046674,0.30565265386307566
6.006615214994487,0.5383883624313921
6.039985299522234,0.6596228146105733
6.073355384049981,0.6864902966019032
6.106725468577729,0.6688830252450462
6.140095553105476,0.6643511017633994
6.173465637633223,0.7100252315395025
6.20683572216097,0.8060405876764707
6.240205806688717,0.9181842125308466
6.273575891216464,0.9966992633479025
6.3069459757442115,0.9999874662372181
6.340316060271959,0.9109978150052636
6.373686144799706,0.7400908317649162
6.407056229327454,0.5165074851303871
6.440426313855201,0.2758338855063895
6.473796398382948,0.050509920145676554
6.507166482910695,-0.13398521738314442
6.540536567438442,-0.2593258904623866
6.5739066519661895,-0.31480137531645835
6.607276736493937,-0.3003047809214712
6.640646821021684,-0.23073734739885235
6.674016905549431,-0.1381276170326962
6.707386990077178,-0.06766703419965528
6.740757074604925,-0.0663770666871707
6.774127159132672,-0.1669793267283209
6.8074972436604195,-0.3728169009433509
6.840867328188167,-0.6506209498905549
6.874237412715914,-0.935686403038995
6.907607497243661,-1.149214818963695
6.940977581771408,-1.2222659774831601
6.974347666299155,-1.1176038740196643
7.007717750826902,-0.8414881306703499
7.0410878353546495,-0.4417904084819991
7.074457919882397,0.005660440342140969
7.107828004410144,0.41675900228494195
7.141198088937891,0.7184771128026896
7.174568173465638,0.8635727647684655
7.207938257993385,0.8390175329493306
7.241308342521132,0.6680552960101718
7.27467842704888,0.4058625563146578
7.308048511576627,0.1284094699519893
7.341418596104374,-0.08519542438294754
7.374788680632121,-0.17419898264795838
7.408158765159868,-0.11566292936068513
7.441528849687615,0.06578842091225676
7.4748989342153624,0.30390212533495015
7.50826901874311,0.5127872169555769
7.541639103270857,0.6180078935405291
7.575009187798604,0.5845580603998626
7.608379272326351,0.42956582369953816
7.641749356854098,0.21363176358919223
7.675119441381845,0.014107644139751815
7.7084895259095925,-0.10822345541164156
7.74185961043734,-0.13468546559817196
7.775229694965087,-0.09562074036039103
7.808599779492834,-0.055886616320603134
7.841969864020581,-0.08503920788744442
7.875339948548328,-0.22449699080127344
7.908710033076075,-0.4653189766265893
7.9420801176038225,-0.7463047322438361
7.97545020213157,-0.9742054934169166
8.008820286659317,-1.0587400816771948
8.042190371187063,-0.9485138624705941
8.075560455714811,-0.6529485228698901
8.108930540242557,-0.240809358541677
8.142300624770305,0.18428771092758472
8.175670709298052,0.521230369332866
8.2090407938258,0.7061508071003764
8.242410878353546,0.7306236114680013
8.275780962881294,0.6370271823611237
8.30915104740904,0.4949273199203276
8.342521131936788,0.37027689463848484
8.375891216464534,0.30130445167673364
8.409261300992283,0.2904638989215296
8.442631385520029,0.3133175904717616
8.476001470047777,0.3372224169318783
8.509371554575523,0.3391433669002229
8.542741639103271,0.31415332871846063
8.57611172363102,0.2723473200657465
8.609481808158765,0.22828167479047917
8.642851892686513,0.1902610909834841
8.67622197721426,0.15557338339232438
8.709592061742008,0.11338096141928894
8.742962146269754,0.0522549020209569
8.776332230797502,-0.032985433952803456
8.809702315325248,-0.13924718944862424
8.843072399852996,-0.25835406858135335
8.876442484380743,-0.3822032429358107
8.90981256890849,-0.5055613788135284
8.943182653436237,-0.624407476434663
8.976552737963985,-0.7316314395122792
9.009922822491731,-0.8144557557195125
9.04329290701948,-0.8569850205884413
9.076662991547225,-0.8472546839620528
9.110033076074973,-0.7840324919623104
9.14340316060272,-0.6778068037176066
9.176773245130468,-0.54399348070484
9.210143329658214,-0.3921708730008019
9.243513414185962,-0.2189591545403807
9.276883498713708,-0.01088804610686375
9.310253583241456,0.24250206640130717
9.343623667769203,0.5323470652868204
9.37699375229695,0.821571229589419
9.410363836824697,1.0511760451486527
9.443733921352445,1.16122938756853
9.477104005880191,1.1172268324818924
9.51047409040794,0.9284478815681343
9.543844174935685,0.6483453876609324
9.577214259463434,0.3560331280094817
9.61058434399118,0.12738527304367134
9.643954428518928,0.00888475323610721
9.677324513046674,0.005019255670401462
9.710694597574422,0.08272753580858219
9.744064682102168,0.18862841697954127
9.777434766629916,0.2704314090114325
9.810804851157663,0.29416476265313823
9.84417493568541,0.2521180358131075
9.877545020213157,0.16033770627379745
9.910915104740905,0.0477484246333871
9.944285189268651,-0.058709112344884094
9.9776552737964,-0.14714222113522601
10.011025358324146,-0.2263080940952307
10.044395442851894,-0.3204850316101094
10.07776552737964,-0.4548819294229662
10.111135611907388,-0.637844055681716
10.144505696435134,-0.8488811611930352
10.177875780962882,-1.0399771606278756
10.211245865490628,-1.15171775988386
10.244615950018376,-1.1380415366846337
10.277986034546123,-0.9879407704639692
10.31135611907387,-0.7326207516015745
10.344726203601617,-0.4331330506155379
10.378096288129365,-0.1534639890221793
10.411466372657111,0.06774282253049578
10.44483645718486,0.23207675558710478
10.478206541712606,0.3746904799475586
10.511576626240354,0.5394666173451131
10.5449467107681,0.7495279437895428
10.578316795295848,0.9892685435708288
10.611686879823594,1.2076080126064044
10.645056964351342,1.3403503148164058
10.678427048879088,1.3393210709814531
10.711797133406836,1.1931182933894646
10.745167217934583,0.9299619431929329
10.77853730246233,0.6033746773454236
10.811907386990077,0.27004941738095367
10.845277471517825,-0.0284028525971022
10.878647556045571,-0.2725264618850487
10.91201764057332,-0.4611226861051437
10.945387725101066,-0.6022233998950212
10.978757809628814,-0.7055437827574608
11.01212789415656,-0.779536126185637
11.045497978684308,-0.8317087066955169
11.078868063212054,-0.8687553178114988
11.112238147739802,-0.894351471117614
11.145608232267548,-0.9056246399389076
11.178978316795297,-0.8914871564268588
11.212348401323043,-0.8354039421833421
11.24571848585079,-0.7222425106276187
11.279088570378537,-0.5459179634763122
11.312458654906285,-0.31382631711108866
11.345828739434031,-0.04599646968919618
11.37919882396178,0.23006725448983334
11.412568908489526,0.48592913013379163
11.445938993017274,0.6974773569880877
11.47930907754502,0.8479650356147838
11.512679162072768,0.9294574426707306
11.546049246600514,0.9434689491784407
11.579419331128262,0.900617753118156
11.612789415656009,0.8183485509700069
11.646159500183757,0.7162407144641207
11.679529584711503,0.6100204479712604
11.71289966923925,0.5069095280486101
11.746269753766997,0.40498854574472926
11.779639838294745,0.29738514517236075
11.813009922822491,0.17928347576039796
11.84638000735024,0.05380549410993531
11.879750091877986,-0.06686744358194743
11.913120176405734,-0.1662377005611074
11.94649026093348,-0.2319375752594603
11.979860345461228,-0.2635705909652614
12.013230429988974,-0.27571601368857956
12.046600514516722,-0.29401965934608776
12.079970599044469,-0.34542158756477437
12.113340683572217,-0.44625916646008024
12.146710768099963,-0.5931267667018778
12.180080852627711,-0.7605439192827036
12.213450937155457,-0.9070138198466305
12.246821021683205,-0.9878532732023548
12.280191106210951,-0.9704050855928605
12.3135611907387,-0.8459743524952662
12.346931275266446,-0.6337061540624573
12.380301359794194,-0.374540683816443
12.41367144432194,-0.11733135007925317
12.447041528849688,0.09746584496441994
12.480411613377434,0.2500034348851079
12.513781697905182,0.34436162121183433
12.547151782432929,0.4020759315276658
12.580521866960677,0.44925897708281765
12.613891951488423,0.5033996332235318
12.647262036016171,0.5657968163907904
12.680632120543917,0.6227204536341654
12.714002205071665,0.6541559507280217
12.747372289599411,0.6454090667142138
12.78074237412716,0.5956614524409112
12.814112458654908,0.5193288711140563
12.847482543182654,0.4398230906673242
12.880852627710402,0.379068200181917
12.914222712238148,0.3479514890170901
12.947592796765896,0.34198568031405274
12.980962881293642,0.3435162614814989
13.01433296582139,0.3285849200120307
13.047703050349137,0.2748543186042655
13.081073134876885,0.16756370928679878
13.114443219404631,0.0025656293922381637
13.147813303932379,-0.21261173605745762
13.181183388460125,-0.4584081519650349
13.214553472987873,-0.7035862606616076
13.24792355751562,-0.9078560226625852
13.281293642043368,-1.0285460168657543
13.314663726571114,-1.0313494008412523
13.348033811098862,-0.9023401346228246
13.381403895626608,-0.6563933216316282
13.414773980154356,-0.33744151751634294
13.448144064682102,-0.008911522096605246
13.48151414920985,0.2631098508184957
13.514884233737597,0.4281162311491763
13.548254318265345,0.46429576884661256
13.581624402793091,0.38226444582915553
13.614994487320839,0.2191029988886926
13.648364571848585,0.025969589505037537
13.681734656376333,-0.14577233186314983
13.71510474090408,-0.2556313901069414
13.748474825431828,-0.2802127044458791
13.781844909959574,-0.21490231849625716
13.815214994487322,-0.07256778700132624
13.848585079015068,0.11947626766243419
13.881955163542816,0.3241449052944881
13.915325248070562,0.5014569840527722
13.94869533259831,0.6173355242182575
13.982065417126057,0.6521080436204536
14.015435501653805,0.605019875660416
14.048805586181551,0.4918349933797356
14.082175670709299,0.3359030070947866
14.115545755237045,0.15720733252696456
14.148915839764793,-0.0339807184190635
14.18228592429254,-0.23422712609903404
14.215656008820288,-0.435958514138381
14.249026093348034,-0.6157779074097595
14.282396177875782,-0.7319443302028901
14.315766262403528,-0.7368997560669641
14.349136346931276,-0.6015663665614333
14.382506431459023,-0.3390175546745223
14.41587651598677,-0.01230318023391961
14.449246600514517,0.2822399391292511
14.482616685042265,0.4517146539406062
14.515986769570011,0.44671902510995964
14.54935685409776,0.2843913825856111
14.582726938625505,0.04189002962784605
14.616097023153253,-0.17713771857662172
14.649467107681,-0.2866969681397576
14.682837192208748,-0.2520090586173472
14.716207276736494,-0.09786725616751885
14.749577361264242,0.10927746174675237
14.782947445791988,0.2939195664712308
14.816317530319736,0.4020653476927225
14.849687614847483,0.41696663325480815
14.88305769937523,0.3566216280903157
14.916427783902977,0.25861237955310895
14.949797868430725,0.16195563298909507
14.983167952958471,0.09406542616607448
15.01653803748622,0.06604551270947563
15.049908122013965,0.07477994690360847
15.083278206541713,0.10797368134876095
15.11664829106946,0.14871236160491455
15.150018375597208,0.1781096662760462
15.183388460124954,0.17669842118699133
15.216758544652702,0.12632941221262523
15.250128629180448,0.014023456479944959
15.283498713708196,-0.16235357733150277
15.316868798235943,-0.38874315665367853
15.35023888276369,-0.6332030681481418
15.383608967291437,-0.8504576359409771
15.416979051819185,-0.9926092635948428
15.450349136346931,-1.0227122943160605
15.48371922087468,-0.926069154154349
15.517089305402425,-0.7148052657780769
15.550459389930174,-0.4241150431700446
15.58382947445792,-0.10196544430339165
15.617199558985668,0.20366236943600724
15.650569643513414,0.45555147026411436
15.683939728041162,0.6330066976227599
15.717309812568908,0.731893069965538
15.750679897096656,0.7605047387338371
15.784049981624403,0.7340423710326481
15.81742006615215,0.6701896332032676
15.850790150679897,0.5867107537386893
15.884160235207645,0.50013685626836
15.917530319735391,0.42375762249778987
15.95090040426314,0.36403116242584355
15.984270488790886,0.316699038513289
16.017640573318634,0.26575516006608635
16.05101065784638,0.18825040087136888
16.084380742374126,0.06517272543967607
16.117750826901876,-0.10543075872409982
16.151120911429622,-0.29988445040090406
16.18449099595737,-0.4712979842758055
16.217861080485115,-0.5650912182802545
16.251231165012864,-0.5430810787768651
16.28460124954061,-0.4057636588857458
16.317971334068357,-0.20091866816328935
16.351341418596103,-0.011253445124071965
16.384711503123853,0.07677008881354555
16.4180815876516,0.010766326583890682
16.451451672179346,-0.20046711850919266
16.484821756707092,-0.484795616246678
16.51819184123484,-0.7328711398090093
16.551561925762588,-0.8422517528663636
16.584932010290334,-0.7599514595462906
16.61830209481808,-0.5039900212333408
16.65167217934583,-0.15424523583201996
16.685042263873576,0.18266942804507283
16.718412348401323,0.41791412139516737
16.75178243292907,0.5140986254763178
16.78515251745682,0.4938793757562727
16.818522601984565,0.4215560235545476
16.85189268651231,0.3683453000003156
16.885262771040058,0.37887964714460853
16.918632855567807,0.4544791999408738
16.952002940095554,0.5591930366196831
16.9853730246233,0.6427256571213364
17.018743109151046,0.6665474108362559
17.052113193678796,0.6196725416725989
17.085483278206542,0.5180003243676913
17.11885336273429,0.3908833318742525
17.15222344726204,0.26487289870168435
17.185593531789785,0.1541566704609451
17.21896361631753,0.06115688741620316
17.252333700845277,-0.016474703897236296
17.285703785373027,-0.07989419534487482
17.319073869900773,-0.12956597382150342
17.35244395442852,-0.17173795912549558
17.385814038956266,-0.22485824821421524
