Time (s),Filtered Signal
0.0,-0.005408115379585009
0.0334075723830735,0.04302762592472746
0.066815144766147,0.08416232964890578
0.1002227171492205,0.1120996187895078
0.133630289532294,0.12282756141094027
0.1670378619153675,0.11427847322432916
0.200445434298441,0.08620742375326634
0.23385300668151449,0.040352056549904605
0.267260579064588,-0.019130493834559635
0.3006681514476615,-0.085480997890352
0.334075723830735,-0.15002018601424016
0.3674832962138085,-0.20381954750737918
0.400890868596882,-0.2398011287020542
0.4342984409799555,-0.25435381152069997
0.46770601336302897,-0.24779246037529148
0.5011135857461025,-0.2236291032729744
0.534521158129176,-0.18721105111505632
0.5679287305122495,-0.14443054490002136
0.601336302895323,-0.10088654849274031
0.6347438752783965,-0.061384359813539215
0.66815144766147,-0.029400312738392918
0.7015590200445435,-0.006328255985129311
0.734966592427617,0.00918883899462543
0.7683741648106905,0.021178732666552763
0.801781737193764,0.035007386535021515
0.8351893095768375,0.05500424227237952
0.868596881959911,0.08209721062464273
0.9020044543429845,0.11283905478853108
0.9354120267260579,0.1406453220882271
0.9688195991091315,0.15884287015215307
1.002227171492205,0.16400483926052395
1.0356347438752784,0.15778839276795162
1.069042316258352,0.14629911522028638
1.1024498886414256,0.13736203513583042
1.135857461024499,0.13713038565481814
1.1692650334075725,0.14763099142653768
1.202672605790646,0.1661723263407424
1.2360801781737194,0.18655484703875855
1.269487750556793,0.20130386173758874
1.3028953229398665,0.20396905355788295
1.33630289532294,0.1908054567339868
1.3697104677060135,0.16157398346188837
1.403118040089087,0.11951063451367744
1.4365256124721606,0.07060844039474326
1.469933184855234,0.022300848229703765
1.5033407572383075,-0.018404770567194556
1.536748329621381,-0.04716255112341712
1.5701559020044544,-0.06437775090211754
1.603563474387528,-0.07627402835398941
1.6369710467706016,-0.09399541980419261
1.670378619153675,-0.13029475834357662
1.7037861915367485,-0.19437910044661189
1.737193763919822,-0.2866028631221847
1.7706013363028954,-0.3952996302957924
1.804008908685969,-0.4976620894177248
1.8374164810690425,-0.5652074543982811
1.8708240534521159,-0.5724932701344893
1.9042316258351895,-0.5061566695575506
1.937639198218263,-0.37078313870834656
1.9710467706013366,-0.18896794997634303
2.00445434298441,0.004949367772266287
2.0378619153674835,0.17540373602999795
2.071269487750557,0.29640385580840106
2.1046770601336307,0.3584347869696396
2.138084632516704,0.3689800013852735
2.1714922048997773,0.34696086592660014
2.204899777282851,0.31387235233674143
2.2383073496659245,0.2854279311050484
2.271714922048998,0.2668275011661119
2.3051224944320716,0.25291562404075035
2.338530066815145,0.23247304512966113
2.3719376391982183,0.19447827053753286
2.405345211581292,0.1337373469705123
2.4387527839643655,0.0537612388859632
2.472160356347439,-0.03409761032095295
2.5055679287305126,-0.11482039982298782
2.538975501113586,-0.17549631941445884
2.5723830734966593,-0.21027258889824202
2.605790645879733,-0.22226671986796073
2.6391982182628064,-0.22142907659526612
2.67260579064588,-0.21915899787474225
2.7060133630289536,-0.22211222094912303
2.739420935412027,-0.22821905534273818
2.7728285077951007,-0.22702250529807622
2.806236080178174,-0.20438177822548304
2.8396436525612474,-0.14938485320307834
2.873051224944321,-0.06013603477781428
2.9064587973273945,0.054413665111217355
2.939866369710468,0.17747837403586578
2.9732739420935417,0.2907910962198902
3.006681514476615,0.38120146381663456
3.0400890868596884,0.44439597556179616
3.073496659242762,0.4841315403556251
3.1069042316258355,0.5076338787795558
3.140311804008909,0.5197120943836745
3.1737193763919826,0.5187718957469682
3.207126948775056,0.4969579616528183
3.2405345211581293,0.44453358731696185
3.273942093541203,0.35629390550953255
3.3073496659242765,0.2364500219733812
3.34075723830735,0.09880594238119426
3.3741648106904236,-0.03879504659265479
3.407572383073497,-0.1637042218445279
3.4409799554565703,-0.27678943472043116
3.474387527839644,-0.39468515872335014
3.5077951002227175,-0.542930456801475
3.541202672605791,-0.7412327900937875
3.5746102449888646,-0.9867367766841046
3.608017817371938,-1.2437553223160505
3.6414253897550113,-1.447048600204594
3.674832962138085,-1.5202839338906844
3.7082405345211584,-1.4039295964651488
3.7416481069042318,-1.0812231924822306
3.7750556792873056,-0.5903484888463243
3.808463251670379,-0.016439729185412907
3.8418708240534527,0.5339590507844814
3.875278396436526,0.9654833277042331
3.9086859688195994,1.2204783170655957
3.942093541202673,1.2900618957963617
3.9755011135857465,1.2078373203221953
4.00890868596882,1.0315476324281945
4.042316258351893,0.8215513345462894
4.075723830734967,0.6242132148287106
4.109131403118041,0.4645324840046894
4.142538975501114,0.3478297990831917
4.1759465478841875,0.26700232683177155
4.209354120267261,0.21072203870571576
4.242761692650334,0.16898650345933408
4.276169265033408,0.13480148048093601
4.309576837416482,0.10317582277956373
4.342984409799555,0.06980473088328636
4.3763919821826285,0.031260248573115795
4.409799554565702,-0.013292552194895271
4.443207126948775,-0.06055572375834556
4.476614699331849,-0.10378144997323283
4.510022271714923,-0.13633901144544025
4.543429844097996,-0.15660210515652662
4.5768374164810695,-0.17108912537843604
4.610244988864143,-0.19317935387853957
4.643652561247216,-0.23699652117586303
4.67706013363029,-0.30896822089874987
4.710467706013364,-0.4014253742394192
4.743875278396437,-0.49221476135931674
4.77728285077951,-0.5516716960273508
4.810690423162584,-0.5546458220029995
4.844097995545657,-0.49238062807665106
4.877505567928731,-0.37843310778662537
4.910913140311805,-0.24501884190119075
4.944320712694878,-0.1304232461125818
4.977728285077951,-0.0625830204444503
5.011135857461025,-0.04638939355451835
5.044543429844098,-0.0611666322185261
5.077951002227172,-0.07025979836595785
5.111358574610246,-0.03873183042083273
5.144766146993319,0.04914780786161328
5.178173719376392,0.181212185930578
5.211581291759466,0.3219446327174158
5.244988864142539,0.42816890254248813
5.278396436525613,0.46825106498519653
5.311804008908687,0.43554762437008726
5.34521158129176,0.34990742952221066
5.378619153674833,0.24711690381452917
5.412026726057907,0.16204365929807016
5.445434298440981,0.11391352821371159
5.478841870824054,0.10048656973820475
5.512249443207128,0.10300807795299169
5.545657015590201,0.09838440290153255
5.579064587973274,0.07183108231054317
5.612472160356348,0.02369162916808982
5.645879732739422,-0.0323076148852233
5.679287305122495,-0.07750405969154399
5.712694877505569,-0.09839867286976922
5.746102449888642,-0.09308369024954334
5.779510022271715,-0.07114886776360364
5.812917594654789,-0.047865741052304005
5.846325167037863,-0.03624711586668278
5.879732739420936,-0.041189022059677616
5.91314031180401,-0.058301276479227115
5.946547884187083,-0.07733915834876759
5.979955456570156,-0.08787480374188525
6.01336302895323,-0.08408035410615784
6.046770601336304,-0.06642948541613365
6.080178173719377,-0.04007781227716044
6.1135857461024505,-0.011509829578143444
6.146993318485524,0.01426420220334939
6.180400890868597,0.03443475751915723
6.213808463251671,0.04716840725849059
6.247216035634745,0.04999498678808547
6.280623608017818,0.03963248305777988
6.3140311804008915,0.013985800682668964
6.347438752783965,-0.024667788474385128
6.380846325167038,-0.06751231693260336
6.414253897550112,-0.10013606313681894
6.447661469933186,-0.10719601716906679
6.481069042316259,-0.0793320503898169
6.5144766146993325,-0.01926464984732808
6.547884187082406,0.0562175334277482
6.581291759465479,0.12026877986817143
6.614699331848553,0.14531187006390625
6.648106904231627,0.11431754948218029
6.6815144766147,0.029189253888971027
6.7149220489977735,-0.08794028208514207
6.748329621380847,-0.20185780768545283
6.78173719376392,-0.27733395538374095
6.815144766146994,-0.2925468056179177
6.848552338530068,-0.2468534999820258
6.881959910913141,-0.159468058949049
6.915367483296214,-0.05997269581160892
6.948775055679288,0.024531797305811325
6.982182628062361,0.07948855769235999
7.015590200445435,0.10582462725626347
7.048997772828509,0.11528926493573573
7.082405345211582,0.12148267650985735
7.115812917594655,0.13163920386595332
7.149220489977729,0.14329494081474337
7.182628062360802,0.14706283493269814
7.216035634743876,0.13349219685572725
7.24944320712695,0.10002994345166089
7.282850779510023,0.05427366234388082
7.316258351893096,0.011771213953764428
7.34966592427617,-0.010535299861672403
7.383073496659243,-0.0019217811628554546
7.416481069042317,0.03723995839680856
7.449888641425391,0.09568661575764116
7.4832962138084635,0.1562697736876536
7.516703786191537,0.20304406976130068
7.550111358574611,0.22676486817197247
7.583518930957685,0.22617586566606204
7.616926503340758,0.2049505701537296
7.650334075723832,0.1666799620242846
7.683741648106905,0.11141290480897544
7.717149220489978,0.0362496959616877
7.750556792873052,-0.06012869773953939
7.783964365256126,-0.17182965866629257
7.817371937639199,-0.2829871728687586
7.850779510022273,-0.3705724379933635
7.884187082405346,-0.4124014353777111
7.917594654788419,-0.39680311092968634
7.951002227171493,-0.3290251497598783
7.984409799554567,-0.23072266628441113
8.01781737193764,-0.1321877743882665
8.051224944320714,-0.06059394133231626
8.084632516703786,-0.029553289184440498
8.118040089086861,-0.0346833462152545
8.151447661469934,-0.05699268266609386
8.184855233853007,-0.07221026276188029
8.218262806236082,-0.061531291360800176
8.251670378619155,-0.01888260402875763
8.285077951002227,0.048186418353776135
8.318485523385302,0.12358777562843792
8.351893095768375,0.19049156253465016
8.385300668151448,0.23762623174061523
8.418708240534523,0.26125876419691385
8.452115812917596,0.26282849966277283
8.485523385300668,0.24470608603026764
8.518930957683743,0.20730958327788726
8.552338530066816,0.1495339358580475
8.585746102449889,0.07207274101466703
8.619153674832964,-0.018765995063954967
8.652561247216036,-0.10958684198263847
8.68596881959911,-0.18234270544061468
8.719376391982184,-0.2200540886954331
8.752783964365257,-0.2133043037804204
8.78619153674833,-0.1644243559847311
8.819599109131405,-0.08728071170531007
8.853006681514477,-0.002618703216124225
8.88641425389755,0.06904706886404259
8.919821826280625,0.11396520163131554
8.953229398663698,0.12849277987683597
8.98663697104677,0.11824264908911941
9.020044543429846,0.09396125897478963
9.053452115812918,0.06638870208898656
9.086859688195991,0.04246339377619108
9.120267260579066,0.02418805653949997
9.153674832962139,0.009934198395272504
9.187082405345212,-0.0031804777195666187
9.220489977728286,-0.01736166679923079
9.25389755011136,-0.03340291294754089
9.287305122494432,-0.05084393691742373
9.320712694877507,-0.06816984314545944
9.35412026726058,-0.0824930908640929
9.387527839643653,-0.08899137396313753
9.420935412026727,-0.08102338467582454
9.4543429844098,-0.05173864611040975
9.487750556792873,0.002857585690995213
9.521158129175948,0.08046982466327043
9.55456570155902,0.1703542677737169
9.587973273942094,0.2538248378990175
9.621380846325168,0.3078848018668244
9.654788418708241,0.3112847357371296
9.688195991091314,0.2513461303552056
9.721603563474389,0.12941349094747093
9.755011135857462,-0.0370631498120192
9.788418708240535,-0.21705264521437634
9.82182628062361,-0.3730389535316509
9.855233853006682,-0.47111977265038574
9.888641425389755,-0.4911702770134663
9.92204899777283,-0.43351575677838566
9.955456570155903,-0.3192231953506612
9.988864142538976,-0.18319044310514956
10.02227171492205,-0.062080666709476484
10.055679287305123,0.01841161012444757
10.089086859688196,0.05176849023079796
10.12249443207127,0.050786264773953926
10.155902004454344,0.039587957493921105
10.189309576837417,0.04123170464764855
10.222717149220491,0.06680365765654052
10.256124721603564,0.11119786328291584
10.289532293986637,0.1574164711986802
10.322939866369712,0.18682561072449286
10.356347438752785,0.18971017570196888
10.389755011135858,0.17040682034739738
10.423162583518932,0.14434058863224378
10.456570155902005,0.12878329409744113
10.489977728285078,0.1326019603452143
10.523385300668153,0.15076798679862674
10.556792873051226,0.16670128824248695
10.590200445434299,0.16115580538815635
10.623608017817373,0.1227496136337243
10.657015590200446,0.05439103638436588
10.69042316258352,-0.027807559142310596
10.723830734966594,-0.10234841902109575
10.757238307349667,-0.152456008422984
10.790645879732741,-0.1729448704811477
10.824053452115814,-0.17037111714853306
10.857461024498887,-0.15693218688097882
10.890868596881962,-0.14210170475691253
10.924276169265035,-0.12707881537265375
10.957683741648108,-0.10523800167567075
10.991091314031182,-0.06806808125447569
11.024498886414255,-0.01278111582625745
11.057906458797328,0.05322839782972071
11.091314031180403,0.11403879650442864
11.124721603563476,0.15233742577111747
11.158129175946549,0.1581674396595246
11.191536748329623,0.13440505036896044
11.224944320712696,0.09584973418843601
11.25835189309577,0.06228799601855305
11.291759465478844,0.049097756805639395
11.325167037861917,0.06016117376841858
11.35857461024499,0.08651383588869122
11.391982182628064,0.11112464599429224
11.425389755011137,0.11712523278737288
11.45879732739421,0.09523948644862089
11.492204899777285,0.04680927407366222
11.525612472160358,-0.018737252279059053
11.55902004454343,-0.09015690245644274
11.592427616926505,-0.16062969318238451
11.625835189309578,-0.23029255738414403
11.659242761692651,-0.3035370283371268
11.692650334075726,-0.3825933567140102
11.726057906458799,-0.46121260964404254
11.759465478841872,-0.5224691012383837
11.792873051224946,-0.5426587421066398
11.82628062360802,-0.5000560728462885
11.859688195991092,-0.3846620226712531
11.893095768374167,-0.2044230973309229
11.92650334075724,0.015001156009462554
11.959910913140313,0.23693672005214064
11.993318485523387,0.42416053287324584
12.02672605790646,0.5491283597078608
12.060133630289533,0.6004333128367803
12.093541202672608,0.583747028415442
12.12694877505568,0.5176749334095565
12.160356347438753,0.426624892170754
12.193763919821828,0.3333933007285248
12.227171492204901,0.2536912461840046
12.260579064587974,0.19371153627000043
12.293986636971049,0.15069845152151168
12.327394209354122,0.1157610136488889
12.360801781737194,0.07791955246465289
12.39420935412027,0.02836663783595884
12.427616926503342,-0.03606015985620821
12.461024498886415,-0.11114630617073419
12.49443207126949,-0.18598976161945865
12.527839643652563,-0.24616635949297727
12.561247216035635,-0.2785550091846307
12.59465478841871,-0.2762251068565871
12.628062360801783,-0.24149274911065657
12.661469933184856,-0.18571859497157087
12.69487750556793,-0.12563358671995567
12.728285077951004,-0.07751276810806576
12.761692650334076,-0.05161353246061408
12.795100222717151,-0.049254150044802165
12.828507795100224,-0.0636171010716534
12.861915367483297,-0.08350568464606281
12.895322939866372,-0.09796169002596612
12.928730512249444,-0.09961565419051065
12.962138084632517,-0.08575836205407338
12.995545657015592,-0.05753134214185408
13.028953229398665,-0.01842290995427875
13.062360801781738,0.02690596807354143
13.095768374164813,0.07318758988478893
13.129175946547885,0.114888098729535
13.162583518930958,0.14683881178926284
13.195991091314033,0.1653064317512582
13.229398663697106,0.16913508190846183
13.262806236080179,0.16029600259237411
13.296213808463254,0.14327594695251478
13.329621380846326,0.12319727276721615
13.3630289532294,0.10322722557093279
13.396436525612474,0.08242212122914311
13.429844097995547,0.05531013553863973
13.46325167037862,0.013975884585906526
13.496659242761694,-0.047765594243087385
13.530066815144767,-0.1298100947303739
13.56347438752784,-0.22315757333134278
13.596881959910915,-0.31100962461805237
13.630289532293988,-0.3736339817828817
13.66369710467706,-0.39510639629303246
13.697104677060135,-0.3689469246427853
13.730512249443208,-0.3001354383884772
13.763919821826281,-0.20280579982388
13.797327394209356,-0.09502910476465357
13.830734966592429,0.006723835556370063
13.864142538975502,0.09119608762637679
13.897550111358576,0.15325065725147297
13.93095768374165,0.19280019409506294
13.964365256124722,0.21313371117509056
13.997772828507797,0.21960405181843504
14.03118040089087,0.21875269691862434
14.064587973273943,0.2173785602853849
14.097995545657017,0.22119785970265432
14.13140311804009,0.23334338493394696
14.164810690423163,0.2534056596773011
14.198218262806238,0.2775997237732521
14.23162583518931,0.3000439919625933
14.265033407572384,0.31454917739795646
14.298440979955458,0.3161674041233802
14.331848552338531,0.30206366487271835
14.365256124721604,0.27169189181769526
14.398663697104679,0.22643523840173913
14.432071269487752,0.16879010645642223
14.465478841870825,0.10113651758725292
14.4988864142539,0.02440473401097268
14.532293986636972,-0.06260364363208071
14.565701559020045,-0.16234049907133571
14.59910913140312,-0.2757781018684491
14.632516703786193,-0.3987397423089265
14.665924276169266,-0.519337987563869
14.69933184855234,-0.6186758130220422
14.732739420935413,-0.6756665318995312
14.766146993318486,-0.674623848849826
14.79955456570156,-0.6123697059131449
14.832962138084634,-0.5012118735035389
14.866369710467707,-0.36570566704844687
14.899777282850781,-0.2339881052093713
14.933184855233854,-0.12721560654675754
14.966592427616927,-0.05179159954432645
15.0,0.0020237943518329397
