Frequency (Hz),Amplitude
0.0,6.910521395135971
0.01993355481727575,6.908138528447149
0.0398671096345515,6.900994382002373
0.059800664451827246,6.889102325853964
0.079734219269103,6.872484674168022
0.09966777408637874,6.8511727317679325
0.11960132890365449,6.8252068601487
0.13953488372093023,6.794636563820435
0.159468438538206,6.759520598092233
0.17940199335548174,6.719927099664497
0.19933554817275748,6.675933741658615
0.21926910299003324,6.627627914976554
0.23920265780730898,6.575106938146943
0.25913621262458475,6.518478298073578
0.27906976744186046,6.457859924351669
0.29900332225913623,6.393380500044903
0.318936877076412,6.325179812010345
0.3388704318936877,6.25340914399828
0.3588039867109635,6.178231715813615
0.37873754152823924,6.0998231717704
0.39867109634551495,6.0183721214540835
0.4186046511627907,5.9340807353660905
0.4385382059800665,5.84716539728477
0.4584717607973422,5.757857414034243
0.47840531561461797,5.666403781681866
0.49833887043189373,5.5730680048308825
0.5182724252491695,5.478130962444792
0.5382059800664452,5.381891809310328
0.5581395348837209,5.284668896555651
0.5780730897009968,5.186800687302306
0.5980066445182725,5.088646634248918
0.6179401993355482,4.990587974483607
0.637873754152824,4.89302838290176
0.6578073089700996,4.796394409213253
0.6777408637873754,4.701135604877259
0.6976744186046512,4.607724226036686
0.717607973421927,4.516654377880496
0.7375415282392027,4.4284404469002565
0.7574750830564785,4.3436146532992055
0.7774086378737541,4.26272355055583
0.7973421926910299,4.186323308096238
0.8172757475083057,4.114973642118284
0.8372093023255814,4.049230314603886
0.8571428571428572,3.9896362056779724
0.877076411960133,3.936711080536247
0.8970099667774087,3.8909403144855994
0.9169435215946844,3.852762996327077
0.9368770764119602,3.822559981770482
0.9568106312292359,3.800642589112261
0.9767441860465116,3.7872426914394377
0.9966777408637875,3.7825049400596837
1.0166112956810631,3.786481741262722
1.036544850498339,3.799131408568211
1.0564784053156147,3.8203196494692113
1.0764119601328903,3.8498242579839164
1.0963455149501662,3.8873426165669196
1.1162790697674418,3.93250140283372
1.1362126245847177,3.984867774092196
1.1561461794019936,4.0439612735024815
1.176079734219269,4.109265755972161
1.196013289036545,4.180240747460121
1.2159468438538206,4.256331800768325
1.2358803986710964,4.336979568021432
1.255813953488372,4.421627454518527
1.275747508305648,4.509727837782383
1.2956810631229239,4.6007469240491
1.3156146179401993,4.694168372462566
1.3355481727574752,4.789495848820316
1.3554817275747508,4.886254681533197
1.3754152823920267,4.983992788468827
1.3953488372093024,5.082281029895288
1.4152823920265782,5.180713124143289
1.435215946843854,5.278905242048623
1.4551495016611296,5.376495375878338
1.4750830564784054,5.473142559603756
1.495016611295681,5.568526000748585
1.514950166112957,5.662344169866641
1.5348837209302328,5.75431388196111
1.5548172757475083,5.844169394658507
1.5747508305647842,5.931661540424011
1.5946843853820598,6.016556904255873
1.6146179401993357,6.09863705383629
1.6345514950166113,6.177697825781728
1.6544850498338872,6.253548669197628
1.6744186046511629,6.32601204600694
1.6943521594684385,6.394922886329392
1.7142857142857144,6.460128096409051
1.73421926910299,6.521486116119762
1.754152823920266,6.57886652283953
1.7740863787375416,6.632149678414232
1.7940199335548175,6.681226415979763
1.8139534883720931,6.725997763544131
1.8338870431893688,6.766374701419236
1.8538205980066447,6.802277950817202
1.8737541528239203,6.833637791172746
1.893687707641196,6.860393904011899
1.9136212624584719,6.882495241450667
1.9335548172757475,6.899899917671006
1.9534883720930232,6.91257512198269
1.9734219269102993,6.920497052336931
1.993355481727575,6.923650868410822
2.0132890365448506,6.922030663630445
2.0332225913621262,6.91563945574675
2.0531561461794023,6.904489195821749
2.073089700996678,6.888600795725775
2.0930232558139537,6.868004174490212
2.1129568106312293,6.842738324105457
2.132890365448505,6.812851395602798
2.1528239202657806,6.778400806511319
2.1727574750830567,6.739453371038047
2.1926910299003324,6.696085454580653
2.212624584717608,6.648383154446164
2.2325581395348837,6.5964425089137215
2.25249169435216,6.5403697370404625
2.2724252491694354,6.480281511860354
2.292358803986711,6.416305269857498
2.312292358803987,6.348579559793246
2.332225913621263,6.277254434113482
2.352159468438538,6.20249188623127
2.3720930232558137,6.124466336937906
2.39202657807309,6.043365172995877
2.4119601328903655,5.9593893405515255
2.431893687707641,5.872753995295922
2.4518272425249172,5.783689210201727
2.471760797342193,5.692440740047526
2.4916943521594686,5.599270839656117
2.511627906976744,5.504459129631551
2.5315614617940203,5.4083034991596435
2.551495016611296,5.3111210298802565
2.5714285714285716,5.2132489176622645
2.5913621262458477,5.11504536001628
2.611295681063123,5.016890365587252
2.6312292358803986,4.919186428465582
2.6511627906976742,4.822358993872916
2.6710963455149503,4.726856623301255
2.691029900332226,4.633150746997713
2.7109634551495017,4.5417348709667476
2.7308970099667778,4.453123086376524
2.7508305647840534,4.367847714375257
2.770764119601329,4.286455912933344
2.7906976744186047,4.209505079594646
2.810631229235881,4.13755691083947
2.8305647840531565,4.071170030972726
2.850498338870432,4.010891185514397
2.870431893687708,3.9572451072384682
2.8903654485049834,3.9107233032419013
2.910299003322259,3.8717721676134085
2.9302325581395348,3.8407809775660735
2.950166112956811,3.8180704560769163
2.9700996677740865,3.803882653465981
2.990033222591362,3.7983728900590132
3.0099667774086383,3.8016043991608646
3.029900332225914,3.8135461177709735
3.0498338870431896,3.834073814123674
3.0697674418604657,3.8629744537073463
3.089700996677741,3.8999534332725374
3.1096345514950166,3.9446440961900024
3.129568106312292,3.9966188101030804
3.1495016611295683,4.055400848784984
3.169435215946844,4.120476366314175
3.1893687707641196,4.191305861945278
3.2093023255813957,4.267334681172254
3.2292358803986714,4.348002255934209
3.249169435215947,4.432749933598661
3.2691029900332227,4.521027366717638
3.289036544850499,4.612297527471877
3.3089700996677744,4.7060404719962605
3.32890365448505,4.801756014067636
3.3488372093023258,4.898965480494403
3.3687707641196014,4.99721271795062
3.388704318936877,5.096064508386103
3.4086378737541527,5.195110531957457
3.428571428571429,5.293962995971206
3.4485049833887045,5.392256027874052
3.46843853820598,5.4896449112684165
3.4883720930232562,5.585805227025445
3.508305647840532,5.68043194710679
3.5282392026578075,5.773238516689599
3.548172757475083,5.863955950440769
3.5681063122923593,5.952331961043673
3.588039867109635,6.0381301320482965
3.60797342192691,6.121129142504756
3.6279069767441863,6.201122047383456
3.647840531561462,6.277915615250238
3.6677740863787376,6.351329722853117
3.6877076411960132,6.421196805025922
3.7076411960132893,6.487361357489998
3.727574750830565,6.549679489633348
3.7475083056478407,6.608018524083019
3.7674418604651168,6.662256639797914
3.787375415282392,6.7122825554447845
3.807308970099668,6.757995249943634
3.8272425249169437,6.799303717251115
3.8471760797342194,6.836126752671816
3.867109634551495,6.8683927682318995
3.887043189368771,6.89603963490739
3.9069767441860463,6.919014549762649
3.9269102990033224,6.937273926318834
3.9468438538205985,6.950783306733987
3.9667774086378738,6.959517294635019
3.98671096345515,6.963459507695916
4.0066445182724255,6.96260254930673
4.026578073089701,6.956947998925021
4.046511627906977,6.94650642094637
4.0664451827242525,6.931297392174422
4.086378737541528,6.91134954821585
4.106312292358805,6.886700649371703
4.1262458471760795,6.857397666846323
4.146179401993356,6.823496890348328
4.166112956810632,6.785064058415943
4.186046511627907,6.74217451306091
4.205980066445183,6.694913380590311
4.225913621262459,6.643375780731453
4.245847176079734,6.587667066447468
4.26578073089701,6.5279030970843595
4.2857142857142865,6.4642105477245435
4.305647840531561,6.396727257824271
4.325581395348838,6.325602622364511
4.345514950166113,6.25099802882176
4.365448504983389,6.173087343233543
4.385382059800665,6.09205744844815
4.40531561461794,6.008108837251545
4.425249169435216,5.921456262380536
4.445182724252492,5.832329444364044
4.465116279069767,5.740973836561622
4.485049833887043,5.647651444538964
4.50498338870432,5.552641693849766
4.524916943521594,5.4562423361619805
4.544850498338871,5.3587703782183524
4.5647840531561465,5.260563011074681
4.584717607973422,5.1619785081146645
4.604651162790698,5.063397049216916
4.624584717607974,4.9652214149244855
4.644518272425249,4.867877478456305
4.664451827242526,4.771814405058411
4.6843853820598005,4.677504448065946
4.704318936877076,4.585442210249072
4.724252491694353,4.4961432194382756
4.7441860465116275,4.410141651941756
4.764119601328904,4.327987029865754
4.78405315614618,4.250239724208262
4.803986710963455,4.177465120375671
4.823920265780731,4.110226352466311
4.8438538205980075,4.049075591942584
4.863787375415282,3.994543986820714
4.883720930232559,3.9471304857987284
4.9036544850498345,3.9072899374349253
4.92358803986711,3.8754210094562165
4.943521594684386,3.8518546027768616
4.963455149501661,3.8368435111516557
4.983388704318937,3.8305540759733487
5.003322259136213,3.8330604921941394
5.023255813953488,3.8443422375963303
5.043189368770764,3.8642848441602533
5.063122923588041,3.892683943315566
5.083056478405315,3.929252240552502
5.102990033222592,3.9736288507985065
5.122923588039868,4.025390283568861
5.142857142857143,4.084062317830543
5.162790697674419,4.149132044367361
5.182724252491695,4.220059458116421
5.20265780730897,4.29628812756274
5.222591362126246,4.377254625964785
5.242524916943522,4.462396558090107
5.262458471760797,4.551159141844727
5.282392026578074,4.643000399793191
5.3023255813953485,4.737395080314156
5.322259136212625,4.833837465337003
5.342192691029901,4.931843236679828
5.362126245847176,5.030950571941071
5.382059800664452,5.1307206292174685
5.4019933554817285,5.2307375621957855
5.421926910299003,5.3306081868340485
5.44186046511628,5.4299614002888115
5.4617940199335555,5.528447433452788
5.48172757475083,5.6257370012605925
5.501661129568107,5.721520400140522
5.5215946843853825,5.815506589665518
5.541528239202658,5.907422285427504
5.561461794019934,5.997011082171521
5.5813953488372094,6.084032619985773
5.601328903654485,6.168261801561066
5.621262458471762,6.249488064936646
5.641196013289036,6.327514713503361
5.661129568106313,6.402158303135684
5.681063122923589,6.473248085005145
5.700996677740864,6.540625501751765
5.72093023255814,6.604143734149179
5.740863787375416,6.66366729510686
5.760797342192691,6.719071667742882
5.780730897009967,6.770242984281749
5.800664451827243,6.817077742644549
5.820598006644518,6.859482557774675
5.840531561461795,6.897373944959214
5.8604651162790695,6.930678132648762
5.880398671096346,6.959330902535235
5.900332225913622,6.983277454910799
5.920265780730897,7.00247229759623
5.940199335548173,7.016879156990114
5.960132890365449,7.026470910050611
5.980066445182724,7.031229536277364
6.0,7.031146089013263
6.0199335548172765,7.026220685634726
6.039867109634551,7.016462516445873
6.059800664451828,7.001889872337862
6.0797342192691035,6.982530191520921
6.099667774086379,6.958420125884648
6.119601328903655,6.9296056277932605
6.139534883720931,6.896142058377303
6.159468438538206,6.858094318642772
6.179401993355482,6.815537004981823
6.1993355481727574,6.7685545909362075
6.219269102990033,6.717241637331834
6.23920265780731,6.6617030331676546
6.259136212624584,6.60205426989731
6.279069767441861,6.5384217519793495
6.299003322259137,6.47094314677789
6.318936877076412,6.399767777052597
6.338870431893688,6.325057059360233
6.3588039867109645,6.246984991666628
6.378737541528239,6.165738693293917
6.398671096345516,6.081518999945923
6.418604651162791,5.994541115890172
6.438538205980066,5.905035324332984
6.458471760797343,5.813247755484229
6.4784053156146175,5.719441209621232
6.498338870431894,5.62389602944452
6.51827242524917,5.526911011953583
6.538205980066445,5.428804344705521
6.558139534883721,5.329914544371173
6.578073089700998,5.230601366674248
6.598006644518272,5.131246645803318
6.617940199335549,5.032255007995324
6.6378737541528245,4.93405438810404
6.6578073089701,4.8370962597196066
6.677740863787376,4.741855469305737
6.6976744186046515,4.648829543931512
6.717607973421927,4.558537322320022
6.737541528239203,4.471516742906446
6.7574750830564785,4.38832161429315
6.777408637873754,4.309517197910966
6.797342192691031,4.235674455667058
6.8172757475083055,4.167362862823804
6.837209302325582,4.105141763157246
6.857142857142858,4.049550351587304
6.877076411960133,4.001096506046553
6.897009966777409,3.9602448456499526
6.9169435215946855,3.927404548798804
6.93687707641196,3.902917598430451
6.956810631229236,3.8870482045390884
6.9767441860465125,3.8799741611130836
6.996677740863787,3.881780810096241
7.016611295681064,3.8924581090059474
7.036544850498339,3.9119010501466946
7.056478405315615,3.939913392919136
7.076411960132891,3.976214390375419
7.096345514950166,4.020447959276373
7.116279069767442,4.072193590533098
7.136212624584719,4.130978237698886
7.156146179401993,4.196288450482987
7.17607973421927,4.267582119150002
7.196013289036546,4.344299337627155
7.21594684385382,4.425872050997212
7.235880398671097,4.511732304225015
7.2558139534883725,4.601319038148278
7.275747508305648,4.694083478258761
7.295681063122924,4.789493230230893
7.3156146179402,4.887035236469103
7.335548172757475,4.986217765407737
7.355481727574752,5.086571605887158
7.3754152823920265,5.187650628268242
7.395348837209303,5.289031856731353
7.415282392026579,5.3903151770126385
7.435215946843854,5.491122783161984
7.45514950166113,5.591098447357476
7.475083056478406,5.689906679273644
7.495016611295681,5.787231826367483
7.514950166112956,5.8827771537788225
7.5348837209302335,5.9762639321991635
7.554817275747508,6.067430553800529
7.574750830564784,6.156031689841984
7.5946843853820605,6.241837498594461
7.614617940199336,6.324632888470653
7.634551495016611,6.4042168384739915
7.6544850498338874,6.480401776082166
7.674418604651163,6.553013011284237
7.694352159468439,6.6218882245555895
7.714285714285715,6.686877005969235
7.73421926910299,6.747840442317031
7.754152823920266,6.804650748980107
7.774086378737542,6.857190943292055
7.794019933554818,6.905354556239578
7.813953488372093,6.949045379513431
7.83388704318937,6.988177245135236
7.853820598006645,7.022673835125653
7.8737541528239205,7.052468518936081
7.893687707641197,7.077504216629746
7.913621262458472,7.097733286064768
7.9335548172757475,7.113117432596945
7.953488372093024,7.123627640082436
7.9734219269103,7.129244122218834
7.9933554817275745,7.129956293518188
8.013289036544851,7.125762759456739
8.033222591362128,7.116671325595901
8.053156146179402,7.102699025717111
8.073089700996679,7.083872169262398
8.093023255813954,7.0602264086227775
8.11295681063123,7.031806827070071
8.132890365448505,6.998668048385417
8.152823920265782,6.960874369498794
8.172757475083056,6.918499917720154
8.192691029900331,6.871628834411608
8.21262458471761,6.820355487220242
8.232558139534884,6.7647847132579635
8.252491694352159,6.70503209587372
8.272425249169435,6.641224277902946
8.292358803986712,6.573499314489785
8.312292358803987,6.502007068738282
8.332225913621263,6.426909653537933
8.352159468438538,6.348381922891696
8.372093023255815,6.2666120159091365
8.392026578073091,6.181801956255926
8.411960132890366,6.09416830919993
8.43189368770764,6.00394289736947
8.451827242524917,5.911373574821597
8.471760797342194,5.81672505685983
8.491694352159469,5.720279800059045
8.511627906976745,5.622338922936058
8.53156146179402,5.523223152392751
8.551495016611296,5.423273774175854
8.571428571428573,5.322853556842782
8.591362126245848,5.222347607808735
8.611295681063122,5.122164106741691
8.6312292358804,5.02273484575714
8.651162790697676,4.924515487657569
8.67109634551495,4.827985433341831
8.691029900332227,4.733647168495318
8.710963455149502,4.642024939534656
8.730897009966778,4.55366259223678
8.750830564784053,4.469120397362544
8.77076411960133,4.388970690823028
8.790697674418604,4.313792177329711
8.81063122923588,4.2441627920042535
8.830564784053157,4.1806510891086655
8.850498338870432,4.123806233207015
8.870431893687707,4.074146803260334
8.890365448504983,4.0321487752868075
8.91029900332226,3.9982332074647835
8.930232558139535,3.972754289090051
8.950166112956811,3.9559885039756075
8.970099667774086,3.9481256739013197
8.990033222591363,3.9492625716978
9.00996677740864,3.959399624933936
9.029900332225914,3.9784409869655684
9.049833887043189,4.006197966026328
9.069767441860467,4.0423955185910225
9.089700996677742,4.086681273500955
9.109634551495017,4.138636390948614
9.129568106312293,4.197787490969563
9.14950166112957,4.26361890673144
9.169435215946844,4.335584610902866
9.189368770764121,4.413119302625422
9.209302325581396,4.4956483006600125
9.22923588039867,4.582596041822564
9.249169435215949,4.6733931166647125
9.269102990033224,4.767481877952706
9.289036544850498,4.864320729840194
9.308970099667773,4.963387249265752
9.328903654485051,5.064180311127518
9.348837209302326,5.166221391159956
9.368770764119601,5.269055210874565
9.388704318936878,5.3722498722595144
9.408637873754152,5.475396609887267
9.428571428571429,5.578109267287509
9.448504983388705,5.680023584606887
9.46843853820598,5.780796366672312
9.488372093023255,5.880104585047367
9.508305647840533,5.977644454622539
9.528239202657808,6.073130514586828
9.548172757475083,6.1662947350583615
9.56810631229236,6.256885663915453
9.588039867109636,6.344667623174269
9.60797342192691,6.429419960328174
9.627906976744187,6.510936357147946
9.647840531561462,6.58902419633191
9.667774086378738,6.663503984911026
9.687707641196015,6.734208832312372
9.70764119601329,6.800983980348335
9.727574750830565,6.863686382036792
9.747508305647841,6.922184325995886
9.767441860465118,6.976357103142463
9.787375415282392,7.0260947125109645
9.807308970099669,7.071297603170078
9.827242524916944,7.11187644942131
9.84717607973422,7.147751956702273
9.867109634551497,7.178854695873228
9.887043189368772,7.205124963830121
9.906976744186046,7.226512668656354
9.926910299003321,7.242977237793103
9.9468438538206,7.254487547973321
9.966777408637874,7.261021875926786
9.986710963455149,7.262567869121342
10.006644518272426,7.259122536061013
10.026578073089702,7.250692255914367
10.046511627906977,7.237292807498826
10.066445182724253,7.218949417898642
10.086378737541528,7.19569683124867
10.106312292358805,7.16757939847281
10.126245847176081,7.134651189026666
10.146179401993356,7.096976125959093
10.16611295681063,7.054628145876483
10.186046511627907,7.007691385666047
10.205980066445184,6.956260398107786
10.225913621262459,6.900440398775559
10.245847176079735,6.840347546889311
10.26578073089701,6.776109263025093
10.285714285714286,6.707864586802694
10.305647840531563,6.635764577836838
10.325581395348838,6.559972763330656
10.345514950166113,6.480665635678958
10.36544850498339,6.398033203288413
10.385382059800666,6.3122795974577075
10.40531561461794,6.223623737517305
10.425249169435217,6.132300055413854
10.445182724252492,6.0385592794179574
10.465116279069768,5.942669274489969
10.485049833887045,5.844915933874393
10.50498338870432,5.745604112494594
10.524916943521594,5.64505858743341
10.544850498338871,5.543625023929748
10.564784053156147,5.441670916596922
10.584717607973422,5.339586464683115
10.604651162790697,5.237785326907156
10.624584717607974,5.136705185592178
10.64451827242525,5.036808031582903
10.664451827242525,4.938580061224069
10.684385382059801,4.842531055482697
10.704318936877076,4.749193090839519
10.724252491694353,4.659118414521752
10.74418604651163,4.572876306768602
10.764119601328904,4.491048755005614
10.784053156146179,4.414224784833158
10.803986710963457,4.342993336648892
10.823920265780732,4.277934649683877
10.843853820598007,4.219610219841474
10.863787375415283,4.168551531995132
10.88372093023256,4.125247922768115
10.903654485049834,4.0901340900077034
10.923588039867111,4.063577906729139
