Frequency (Hz),Amplitude
0.0,1.0474763130173164
0.019867549668874173,1.0503464183231075
0.039735099337748346,1.0588987384109727
0.059602649006622516,1.0729639372487743
0.07947019867549669,1.0922744198965226
0.09933774834437085,1.1164835091349354
0.11920529801324503,1.1451876366121982
0.13907284768211922,1.1779485425094993
0.15894039735099338,1.2143131688097248
0.17880794701986755,1.2538298867158078
0.1986754966887417,1.296060600860315
0.2185430463576159,1.3405889378397935
0.23841059602649006,1.387025108950626
0.2582781456953642,1.4350081811383928
0.27814569536423844,1.4842064745240815
0.2980132450331126,1.5343167042500492
0.31788079470198677,1.5850623536054298
0.33774834437086093,1.6361916373887393
0.3576158940397351,1.687475305084434
0.3774834437086093,1.738704447530183
0.3973509933774834,1.7896884072628279
0.4172185430463576,1.8402528480460334
0.4370860927152318,1.8902380089926665
0.45695364238410596,1.9394971493387183
0.4768211920529801,1.9878951781417857
0.49668874172185434,2.0353074565492446
0.5165562913907285,2.0816187570458196
0.5364238410596026,2.1267223630077767
0.5562913907284769,2.170519292111694
0.5761589403973509,2.2129176281062457
0.5960264900662252,2.253831946788967
0.6158940397350993,2.2931828235066156
0.6357615894039735,2.3308964109796353
0.6556291390728477,2.3669040776583037
0.6754966887417219,2.4011420981101472
0.695364238410596,2.4335513880991875
0.7152317880794702,2.4640772780439666
0.7350993377483444,2.4926693194403398
0.7549668874172186,2.519281119616225
0.7748344370860927,2.5438702008616723
0.7947019867549668,2.5663978805607828
0.8145695364238411,2.58682916945505
0.8344370860927152,2.6051326856008803
0.8543046357615894,2.621280581958865
0.8741721854304636,2.635248485876299
0.8940397350993378,2.6470154490075437
0.9139072847682119,2.6565639064632496
0.9337748344370861,2.6638796441988495
0.9536423841059603,2.6689517738469037
0.9735099337748344,2.6717727143746752
0.9933774834437087,2.672338180109632
1.0132450331125828,2.6706471748266747
1.033112582781457,2.6667019917351333
1.0529801324503312,2.660508219343403
1.0728476821192052,2.652074753319021
1.0927152317880795,2.6414138146044555
1.1125827814569538,2.6285409741974264
1.1324503311258278,2.6134751851623435
1.1523178807947019,2.596238822611362
1.1721854304635762,2.5768577325816375
1.1920529801324504,2.5553612909466166
1.2119205298013245,2.5317824737369565
1.2317880794701985,2.506157940517448
1.2516556291390728,2.478528132777515
1.271523178807947,2.4489373896507467
1.2913907284768211,2.417434083693801
1.3112582781456954,2.3840707799352265
1.3311258278145695,2.3489044219629154
1.3509933774834437,2.3119965494652814
1.370860927152318,2.2734135523900996
1.390728476821192,2.2332269677474432
1.410596026490066,2.191513826071852
1.4304635761589404,2.1483570556809495
1.4503311258278146,2.1038459541250263
1.4701986754966887,2.0580767376035
1.4900662251655628,2.0111531805996488
1.5099337748344372,1.9631873594898712
1.5298013245033113,1.9143005153035693
1.5496688741721854,1.8646240519500183
1.5695364238410596,1.814300686775896
1.5894039735099337,1.76348576978258
1.609271523178808,1.7123487854749038
1.6291390728476822,1.6610750460383243
1.6490066225165563,1.6098675747760138
1.6688741721854303,1.558949162298235
1.6887417218543048,1.508564551929158
1.7086092715231789,1.4589826715256067
1.728476821192053,1.4104987722043223
1.7483443708609272,1.3634362563381393
1.7682119205298013,1.3181478753172677
1.7880794701986755,1.275015854249754
1.8079470198675496,1.2344503673295775
1.8278145695364238,1.196885670359661
1.847682119205298,1.1627731429203907
1.8675496688741722,1.1325705709642282
1.8874172185430464,1.1067272919124846
1.9072847682119205,1.085665391120177
1.9271523178807946,1.069757974086729
1.9470198675496688,1.059306511079077
1.9668874172185429,1.0545200823764156
1.9867549668874174,1.0554996838885322
2.0066225165562916,1.062230303430646
2.0264900662251657,1.0745822310660407
2.0463576158940397,1.0923213506703993
2.066225165562914,1.1151265273329098
2.086092715231788,1.1426111681122904
2.1059602649006623,1.1743458237826772
2.1258278145695364,1.209879208646055
2.1456953642384105,1.2487559209711674
2.165562913907285,1.290530100222105
2.185430463576159,1.3347750215741334
2.205298013245033,1.3810891120259117
2.2251655629139075,1.4290990947634674
2.2450331125827816,1.4784610011985586
2.2649006622516556,1.5288597125012853
2.2847682119205297,1.5800075674165284
2.3046357615894038,1.6316424412643908
2.324503311258278,1.6835255836246938
2.3443708609271523,1.7354394074763904
2.364238410596027,1.7871853511081839
2.384105960264901,1.8385818829553753
2.403973509933775,1.889462684502978
2.423841059602649,1.9396750234695812
2.443708609271523,1.9890783152134865
2.463576158940397,2.0375428619969442
2.4834437086092715,2.084948755416066
2.5033112582781456,2.1311849255360262
2.52317880794702,2.17614832008384
2.543046357615894,2.219743197785851
2.562913907284768,2.2618805211629485
2.5827814569536423,2.3024774355389286
2.6026490066225163,2.3414568225082615
2.622516556291391,2.378746917550517
2.642384105960265,2.4142809828162237
2.662251655629139,2.4479970273198255
2.6821192052980134,2.4798375678517215
2.7019867549668874,2.5097494248671905
2.7218543046357615,2.53768354843444
2.741721854304636,2.5635948700383278
2.76158940397351,2.5874421766531714
2.781456953642384,2.6091880040305937
2.801324503311258,2.6287985466067685
2.821192052980132,2.6462435818295935
2.8410596026490067,2.6614964070492544
2.8609271523178808,2.674533787413412
2.8807947019867552,2.685335913468774
2.9006622516556293,2.6938863674004185
2.9205298013245033,2.7001720970437
2.9403973509933774,2.7041833969879927
2.9602649006622515,2.7059138962584726
2.9801324503311255,2.7053605522184294
3.0,2.7025236504817456
3.0198675496688745,2.697406810767982
3.0397350993377485,2.6900169987737743
3.0596026490066226,2.6803645442766766
3.0794701986754967,2.6684631658363305
3.0993377483443707,2.654330002613367
3.119205298013245,2.637985653996021
3.1390728476821192,2.6194542279087796
3.1589403973509933,2.5987633988832872
3.1788079470198674,2.575944477203077
3.198675496688742,2.551032490696816
3.218543046357616,2.5240662810552132
3.23841059602649,2.495088616893705
3.2582781456953644,2.4641463261827488
3.2781456953642385,2.431290451132174
3.2980132450331126,2.3965764291536575
3.3178807947019866,2.360064304150459
3.3377483443708607,2.3218189731066197
3.3576158940397347,2.2819104737834297
3.3774834437086096,2.240414320289873
3.3973509933774837,2.197411894387155
3.4172185430463577,2.15299090161832
3.437086092715232,2.107245902717478
3.456953642384106,2.0602789322262853
3.47682119205298,2.012200217777039
3.4966887417218544,1.9631290149968155
3.5165562913907285,1.913194574280491
3.5364238410596025,1.8625372565032194
3.556291390728477,1.8113098146701183
3.576158940397351,1.75967885688224
3.596026490066225,1.7078265018645473
3.615894039735099,1.6559522302462926
3.6357615894039736,1.6042749208287588
3.6556291390728477,1.553035038538156
3.6754966887417218,1.5024969061947908
3.695364238410596,1.452950941530808
3.7152317880794703,1.4047156697993135
3.7350993377483444,1.3581392276306563
3.754966887417219,1.3135999557047957
3.774834437086093,1.2715055438591174
3.794701986754967,1.232290062890999
3.814569536423841,1.1964081321120639
3.834437086092715,1.1643254929662459
3.854304635761589,1.1365054665632623
3.8741721854304636,1.1133912418167322
3.8940397350993377,1.0953846966412972
3.9139072847682117,1.0828234153535476
3.9337748344370858,1.075958501702564
3.9536423841059607,1.0749363510675691
3.9735099337748347,1.0797874006629529
3.993377483443709,1.0904238899963217
4.013245033112583,1.1066470419056262
4.033112582781457,1.1281623196712647
4.052980132450331,1.1546000952233018
4.072847682119205,1.185538535137496
4.0927152317880795,1.2205257865991785
4.112582781456953,1.2590993565801025
4.132450331125828,1.300801560632608
4.152317880794702,1.345190781724139
4.172185430463576,1.391848878413573
4.19205298013245,1.4403853995258364
4.211920529801325,1.4904393583894242
4.231788079470199,1.541679274891843
4.251655629139073,1.5938020793707304
4.271523178807947,1.6465313381847353
4.291390728476821,1.6996151349625528
4.311258278145695,1.7528238366030655
4.33112582781457,1.8059478920560024
4.3509933774834435,1.8587957527614745
4.370860927152318,1.911191962432566
4.390728476821192,1.96297543640488
4.410596026490066,2.0139979333103075
4.43046357615894,2.064122711355353
4.450331125827815,2.113223355731015
4.470198675496689,2.1611827610131313
4.490066225165563,2.2078922516833273
4.509933774834438,2.2532508243330227
4.529801324503311,2.297164496191418
4.549668874172186,2.339545746009949
4.569536423841059,2.3803130348343484
4.589403973509934,2.419390395676794
4.6092715231788075,2.4567070824957216
4.629139072847682,2.4921972701651804
4.649006622516556,2.5257997982557105
4.66887417218543,2.557457952455722
4.688741721854305,2.587119278342068
4.708609271523179,2.614735422973032
4.728476821192054,2.6402620004381205
4.748344370860927,2.6636584780697126
4.768211920529802,2.684888080513666
4.788079470198675,2.703917709280881
4.80794701986755,2.720717875768979
4.827814569536423,2.7352626460622247
4.847682119205298,2.747529596095939
4.867549668874172,2.757499776016228
4.887417218543046,2.7651576827821818
4.9072847682119205,2.770491240252324
4.927152317880794,2.7734917861731563
4.947019867549669,2.77415406565091
4.966887417218543,2.7724762308407134
4.986754966887418,2.7684598467346593
5.006622516556291,2.7621099030749514
5.026490066225166,2.753434832563261
5.04635761589404,2.7424465356870957
5.066225165562914,2.729160412640431
5.086092715231788,2.7135954029841374
5.105960264900662,2.6957740338746627
5.125827814569536,2.6757224778924744
5.14569536423841,2.653470621728856
5.1655629139072845,2.6290521472472146
5.185430463576159,2.602504626729063
5.205298013245033,2.573869634452403
5.225165562913908,2.543192877140297
5.245033112582782,2.510524346268632
5.264900662251656,2.475918495745677
5.28476821192053,2.4394344490835134
5.304635761589404,2.401136240885438
5.324503311258278,2.361093098287582
5.344370860927152,2.3193797689296307
5.364238410596027,2.276076903100361
5.3841059602649,2.231271498915528
5.403973509933775,2.185057420736333
5.4238410596026485,2.1375360025118484
5.443708609271523,2.0888167492869796
5.463576158940397,2.039018151681241
5.483443708609272,1.9882686295738707
5.503311258278146,1.9367076222961328
5.52317880794702,1.884486842963952
5.543046357615895,1.8317717136143432
5.562913907284768,1.7787429946781608
5.582781456953643,1.725598615775454
5.602649006622516,1.6725557030678853
5.622516556291391,1.6198527789874302
5.642384105960264,1.567752079849572
5.662251655629139,1.5165418916799116
5.682119205298013,1.4665387401461836
5.701986754966887,1.418089182904645
5.7218543046357615,1.3715708404512137
5.741721854304636,1.3273921689867758
5.7615894039735105,1.2859903409863676
5.781456953642384,1.247826488388855
5.801324503311259,1.2133775343010809
5.821192052980132,1.183123968024826
5.841059602649007,1.1575332876365194
5.860927152317881,1.1370394965391748
5.880794701986755,1.1220199609405324
5.900662251655629,1.1127719398070428
5.920529801324503,1.1094918697360623
5.940397350993377,1.1122606548763976
5.960264900662251,1.1210375367337688
5.980132450331126,1.1356636686703188
6.0,1.1558747082155691
6.0198675496688745,1.1813201545690084
6.039735099337749,1.2115862756465847
6.059602649006623,1.2462194433501912
6.079470198675497,1.284747348631254
6.099337748344371,1.3266965436779057
6.119205298013245,1.3716057161252353
6.139072847682119,1.4190348291885935
6.158940397350993,1.4685706980966744
6.178807947019867,1.519829753692795
6.198675496688741,1.5724587473508371
6.218543046357616,1.6261340565502895
6.23841059602649,1.6805601174540383
6.258278145695365,1.7354673767251123
6.2781456953642385,1.7906100382089973
6.298013245033113,1.8457637873924002
6.317880794701987,1.9007236073379123
6.337748344370861,1.95530175064106
6.357615894039735,2.009325898557178
6.377483443708609,2.0626375167382136
6.397350993377484,2.1150904036268567
6.417218543046357,2.1665494198651802
6.437086092715232,2.2168893831681458
6.456953642384105,2.2659941116274185
6.47682119205298,2.3137555984110176
6.496688741721854,2.3600733016821884
6.516556291390729,2.4048535348669455
6.5364238410596025,2.448008943894178
6.556291390728477,2.489458059556774
6.5761589403973515,2.529124914605533
6.596026490066225,2.5669387165401956
6.6158940397351,2.6028335682829806
6.635761589403973,2.6367482300039917
6.655629139072848,2.668625916319506
6.675496688741721,2.69841412391343
6.695364238410596,2.726064485350451
6.715231788079469,2.751532645470884
6.735099337748344,2.774778157292534
6.754966887417219,2.795764394807763
6.774834437086093,2.8144584804636255
6.794701986754967,2.8308312254593186
6.814569536423841,2.8448570812974974
6.8344370860927155,2.856514101290171
6.854304635761589,2.8657839109539
6.874172185430464,2.8726516864375506
6.894039735099337,2.8771061403147846
6.913907284768212,2.8791395142462934
6.933774834437086,2.8787475781788214
6.95364238410596,2.8759296359023656
6.973509933774834,2.870688536936759
6.993377483443709,2.863030694868854
7.013245033112583,2.852966112414061
7.033112582781457,2.840508413634746
7.052980132450331,2.825674883917513
7.072847682119205,2.808486518494371
7.0927152317880795,2.788968080494805
7.112582781456954,2.767148169740933
7.132450331125828,2.7430593037519078
7.152317880794702,2.7167380127132588
7.172185430463576,2.6882249504982174
7.19205298013245,2.657565024210375
7.211920529801324,2.624807545158583
7.231788079470198,2.5900064046874753
7.251655629139073,2.5532202788806706
7.271523178807947,2.5145128668426935
7.291390728476822,2.4739531680626548
7.311258278145695,2.431615805281482
7.33112582781457,2.3875814003377345
7.3509933774834435,2.3419370116632474
7.370860927152318,2.294776643442414
7.390728476821192,2.246201837927126
7.410596026490066,2.1963223639839096
7.430463576158941,2.1452570165772533
7.450331125827814,2.0931345434470456
7.470198675496689,2.0400947165235377
7.490066225165562,1.9862895663219737
7.509933774834438,1.9318847971752562
7.52980132450331,1.8770613989434386
7.549668874172186,1.822017465667805
7.569536423841059,1.766970221909438
7.589403973509934,1.7121582409884866
7.6092715231788075,1.6578438130218902
7.629139072847682,1.6043153807461172
7.649006622516557,1.5518899031981033
7.66887417218543,1.5009149270408153
7.6887417218543055,1.451770039812379
7.708609271523178,1.404867250105925
7.728476821192054,1.3606496969043285
7.748344370860927,1.3195879591470676
7.768211920529802,1.2821731634061948
7.788079470198675,1.2489061422625667
7.80794701986755,1.2202821638468528
7.827814569536423,1.196771306764345
7.847682119205298,1.178795403799817
7.8675496688741715,1.166703508446583
7.887417218543046,1.1607487813036927
7.907284768211921,1.161070173519018
7.927152317880795,1.1676819733996768
7.9470198675496695,1.1804730990610863
7.966887417218543,1.1992162458118423
7.986754966887418,1.2235851904361132
8.006622516556291,1.253177289209312
8.026490066225167,1.2875377989681478
8.046357615894038,1.3261830545453865
8.066225165562914,1.3686204408339533
8.086092715231787,1.4143641267264044
8.105960264900663,1.4629463987939264
8.125827814569536,1.5139250159862947
8.14569536423841,1.5668873019171898
8.165562913907285,1.621451766355378
8.185430463576159,1.6772679869919447
8.205298013245034,1.7340153578411814
8.225165562913906,1.7914011700971644
8.245033112582782,1.8491583618295298
8.264900662251655,1.9070431660742166
8.28476821192053,1.9648328048882162
8.304635761589404,2.022323317359132
8.324503311258278,2.079327568203672
8.344370860927151,2.135673456098735
8.364238410596027,2.1912023234540157
8.3841059602649,2.245767558921327
8.403973509933774,2.299233378257058
8.42384105960265,2.3514737665653893
8.443708609271523,2.4023715643003403
8.463576158940398,2.451817679913652
8.483443708609272,2.499710413185837
8.503311258278146,2.545954874737281
8.52317880794702,2.590462488776144
8.543046357615895,2.6331505676783777
8.562913907284768,2.6739419484405214
8.582781456953642,2.71276468236613
8.602649006622515,2.749551770527961
8.62251655629139,2.784240938590737
8.642384105960264,2.8167744454913577
8.66225165562914,2.847098921266494
8.682119205298013,2.875165230003863
8.701986754966887,2.9009283544861217
8.721854304635762,2.9243472996088022
8.741721854304636,2.9453850120956693
8.76158940397351,2.9640083144184937
8.781456953642383,2.9801878511613276
8.801324503311259,2.9938980463608145
8.821192052980132,3.005117070610739
8.841059602649008,3.013826816947162
8.86092715231788,3.0200128847357037
8.880794701986755,3.023664570969826
8.90066225165563,3.02477486856259
8.920529801324504,3.0233404713783956
8.940397350993377,3.0193617859099575
8.960264900662251,3.012842949661988
8.980132450331126,3.0037918564611124
9.0,2.992220189074833
9.019867549668875,2.9781434596945533
9.039735099337747,2.9615810590226124
9.059602649006623,2.942556314906372
9.079470198675496,2.9210965616866233
9.099337748344372,2.8972332216807484
9.119205298013245,2.871001900506847
9.139072847682119,2.8424424982831025
9.158940397350994,2.8115993391121465
9.178807947019868,2.778521321695376
9.198675496688743,2.743262094424471
9.218543046357615,2.705880258880686
9.23841059602649,2.6664396063482303
9.258278145695364,2.6250093927308575
9.27814569536424,2.5816646581638154
9.298013245033111,2.5364865986515337
9.317880794701987,2.4895629982442244
9.33774834437086,2.4409887316014722
9.357615894039736,2.390866348272471
9.37748344370861,2.3393067516309056
9.397350993377483,2.286429987086774
9.417218543046358,2.2323661558647356
9.437086092715232,2.1772564721238328
9.456953642384107,2.1212544822276307
9.47682119205298,2.0645274651300607
9.496688741721854,2.0072580314658364
9.516556291390728,1.9496459350457445
9.536423841059603,1.8919101026322145
9.556291390728477,1.8342908740937927
9.57615894039735,1.777052422563657
9.596026490066224,1.7204852894854246
9.6158940397351,1.6649089180955061
9.635761589403973,1.6106739963074284
9.655629139072847,1.5581643222342116
9.675496688741722,1.5077977817884007
9.695364238410596,1.4600258837781834
9.715231788079471,1.4153311518945046
9.735099337748345,1.3742215622184346
9.754966887417218,1.3372212006952628
9.774834437086092,1.304856480339537
9.794701986754967,1.2776376887995617
9.814569536423841,1.2560363809063877
9.834437086092716,1.240460136504706
9.854304635761588,1.2312272681711118
9.874172185430464,1.2285448374004202
9.894039735099337,1.2324934349421566
9.913907284768213,1.2430213731781103
9.933774834437086,1.2599493346520394
9.95364238410596,1.282984585143984
9.973509933774835,1.311742215022056
9.993377483443709,1.3457700005094038
10.013245033112582,1.3845735102833303
10.033112582781456,1.4276388130659998
10.052980132450331,1.4744511882965612
10.072847682119205,1.5245092511926601
10.09271523178808,1.5773346632454164
10.112582781456952,1.6324780493057347
10.132450331125828,1.6895219249306184
10.152317880794701,1.7480814362664572
10.172185430463577,1.8078036122124355
10.192052980132452,1.8683656871350067
10.211920529801324,1.9294729103911596
10.2317880794702,1.9908561355721761
10.251655629139073,2.05226938426896
10.271523178807948,2.113487505825226
10.29139072847682,2.1743040023624096
10.311258278145695,2.2345290528121176
10.331125827814569,2.293987746514529
10.350993377483444,2.3525185225807643
10.370860927152318,2.4099718029222377
10.390728476821192,2.466208802591083
10.410596026490065,2.521100499411436
10.43046357615894,2.574526744815308
10.450331125827816,2.6263754986607832
10.470198675496688,2.6765421721652163
10.490066225165563,2.7249290646540105
10.509933774834437,2.7714448814338515
10.529801324503312,2.8160043216498116
10.549668874172186,2.8585277264227322
10.56953642384106,2.898940778864497
10.589403973509933,2.9371742487257007
10.609271523178808,2.973163775448488
10.629139072847682,3.006849684285469
10.649006622516556,3.03817683091691
10.66887417218543,3.0670944706658667
10.688741721854305,3.093556148987634
10.70860927152318,3.1175196104086913
10.728476821192054,3.138946723521624
10.748344370860927,3.1578034200177267
