Time (s),Filtered Signal
0.0,0.02240231152391118
0.0334075723830735,-0.19846176214593195
0.066815144766147,-0.36192552889898183
0.1002227171492205,-0.4317139100206234
0.133630289532294,-0.4046498382427222
0.1670378619153675,-0.30784723173716466
0.200445434298441,-0.18382833802910636
0.23385300668151449,-0.07156973597776337
0.267260579064588,0.0074525986487512024
0.3006681514476615,0.05276758057441153
0.334075723830735,0.07837870228203532
0.3674832962138085,0.10132726928402731
0.400890868596882,0.1317746260027847
0.4342984409799555,0.1689224814349262
0.46770601336302897,0.20339387657608451
0.5011135857461025,0.22357999350151295
0.534521158129176,0.22219009772339357
0.5679287305122495,0.19986313839332367
0.601336302895323,0.16447980963917028
0.6347438752783965,0.12686788879698788
0.66815144766147,0.09518463476813016
0.7015590200445435,0.07083680865087724
0.734966592427617,0.04807367319190043
0.7683741648106905,0.017563564826248393
0.801781737193764,-0.02784056292765947
0.8351893095768375,-0.08818516190974889
0.868596881959911,-0.15498935864987762
0.9020044543429845,-0.2140758706361546
0.9354120267260579,-0.2511791208151217
0.9688195991091315,-0.25754147721513176
1.002227171492205,-0.23301326978967063
1.0356347438752784,-0.1857216565704618
1.069042316258352,-0.12908617775619133
1.1024498886414256,-0.07782228128910865
1.135857461024499,-0.044313432387881414
1.1692650334075725,-0.03590405769772444
1.202672605790646,-0.05312269336389432
1.2360801781737194,-0.08899439727089453
1.269487750556793,-0.13006396710066162
1.3028953229398665,-0.1597318827131832
1.33630289532294,-0.1635760039153784
1.3697104677060135,-0.13493009515766244
1.403118040089087,-0.07815334471553491
1.4365256124721606,-0.007581314678035824
1.469933184855234,0.05796128123825604
1.5033407572383075,0.10294518822423421
1.536748329621381,0.12171392608008205
1.5701559020044544,0.12069920596556635
1.603563474387528,0.11509802358881066
1.6369710467706016,0.12148928345802651
1.670378619153675,0.1498569851692281
1.7037861915367485,0.19877597466507646
1.737193763919822,0.255943953200547
1.7706013363028954,0.30362698763717333
1.804008908685969,0.3262715440200593
1.8374164810690425,0.31666544449542855
1.8708240534521159,0.27795884530864956
1.9042316258351895,0.22102566450067598
1.937639198218263,0.1589182926182099
1.9710467706013366,0.1014178742516739
2.00445434298441,0.05234229147862489
2.0378619153674835,0.010588233539356395
2.071269487750557,-0.026236357263959897
2.1046770601336307,-0.05816043836946594
2.138084632516704,-0.08169775252307568
2.1714922048997773,-0.09216346511290235
2.204899777282851,-0.08820393683792545
2.2383073496659245,-0.0756645629145371
2.271714922048998,-0.06792624361760524
2.3051224944320716,-0.08159035131453093
2.338530066815145,-0.12897528045666867
2.3719376391982183,-0.21087869569594714
2.405345211581292,-0.3133379444217884
2.4387527839643655,-0.4104778946973354
2.472160356347439,-0.4727494313416732
2.5055679287305126,-0.47729208922898914
2.538975501113586,-0.41608585667385384
2.5723830734966593,-0.29856008407750184
2.605790645879733,-0.14791325993015633
2.6391982182628064,0.006778886898775503
2.67260579064588,0.13900029456910512
2.7060133630289536,0.23050104247631104
2.739420935412027,0.27296169180674756
2.7728285077951007,0.26656249033909835
2.806236080178174,0.21761842676508897
2.8396436525612474,0.13702430447271563
2.873051224944321,0.039699739564661406
2.9064587973273945,-0.05624515740234801
2.939866369710468,-0.1321450134769438
2.9732739420935417,-0.1734696825017713
3.006681514476615,-0.17487026614930098
3.0400890868596884,-0.14267777685899685
3.073496659242762,-0.09258852959281756
3.1069042316258355,-0.04267862186194088
3.140311804008909,-0.004763541410947404
3.1737193763919826,0.02133998866420515
3.207126948775056,0.0470719340312934
3.2405345211581293,0.087621166436823
3.273942093541203,0.15135255912657358
3.3073496659242765,0.23228475610696594
3.34075723830735,0.31087834474640086
3.3741648106904236,0.3642035190528717
3.407572383073497,0.38093296920388975
3.4409799554565703,0.3726544774077945
3.474387527839644,0.3733953315466427
3.5077951002227175,0.42456928002013977
3.541202672605791,0.5505679643908049
3.5746102449888646,0.736760234524583
3.608017817371938,0.9227590884655299
3.6414253897550113,1.017968166357875
3.674832962138085,0.9357892816334502
3.7082405345211584,0.6325792139264114
3.7416481069042318,0.13312239588586547
3.7750556792873056,-0.4708946915394668
3.808463251670379,-1.0507311846572307
3.8418708240534527,-1.4863205016079983
3.875278396436526,-1.7074016830131533
3.9086859688195994,-1.7118313913785395
3.942093541202673,-1.554368080046107
3.9755011135857465,-1.3137729311372168
4.00890868596882,-1.0558811084539623
4.042316258351893,-0.8105088490782408
4.075723830734967,-0.5712932264879467
4.109131403118041,-0.31511037797486213
4.142538975501114,-0.028260594009302895
4.1759465478841875,0.27545330759074227
4.209354120267261,0.5541119291451682
4.242761692650334,0.754304924595654
4.276169265033408,0.8360870731464661
4.309576837416482,0.7935162532770591
4.342984409799555,0.6604210021348559
4.3763919821826285,0.49823988284366283
4.409799554565702,0.3713072439367201
4.443207126948775,0.3208645264495683
4.476614699331849,0.3496233219550122
4.510022271714923,0.42367740701056117
4.543429844097996,0.49040044962561935
4.5768374164810695,0.5036210725627105
4.610244988864143,0.4443331174416795
4.643652561247216,0.32778132316388936
4.67706013363029,0.1944842790245497
4.710467706013364,0.09021708111901
4.743875278396437,0.04464977984469439
4.77728285077951,0.058299738425813166
4.810690423162584,0.10313682799798406
4.844097995545657,0.13587696631986135
4.877505567928731,0.11759363878655267
4.910913140311805,0.03093614693475703
4.944320712694878,-0.1123242113946306
4.977728285077951,-0.27630853627646557
5.011135857461025,-0.4160489345581352
5.044543429844098,-0.4957294143459438
5.077951002227172,-0.5021651697834143
5.111358574610246,-0.4479201311888847
5.144766146993319,-0.36337068200602696
5.178173719376392,-0.2821186509304738
5.211581291759466,-0.22693034696648434
5.244988864142539,-0.20250297329523506
5.278396436525613,-0.19746111571185304
5.311804008908687,-0.19327670918122336
5.34521158129176,-0.17477864539176327
5.378619153674833,-0.13694538404366235
5.412026726057907,-0.0853662384796697
5.445434298440981,-0.03136701726957435
5.478841870824054,0.014685474770355037
5.512249443207128,0.04811276723192981
5.545657015590201,0.07065203664334131
5.579064587973274,0.08763847779462694
5.612472160356348,0.10387717679496263
5.645879732739422,0.12071164735528224
5.679287305122495,0.13572563370818339
5.712694877505569,0.14489526928408494
5.746102449888642,0.14571691437343898
5.779510022271715,0.13942488357161464
5.812917594654789,0.13097036456016203
5.846325167037863,0.12663473536036593
5.879732739420936,0.1304292829310504
5.91314031180401,0.14119809876457706
5.946547884187083,0.15219371440750135
5.979955456570156,0.15379385735641005
6.01336302895323,0.1383729763706322
6.046770601336304,0.10492413267828413
6.080178173719377,0.06072576531404817
6.1135857461024505,0.01860303768471334
6.146993318485524,-0.009311063956776148
6.180400890868597,-0.01823424356518346
6.213808463251671,-0.014108497435465061
6.247216035634745,-0.011438579958007976
6.280623608017818,-0.02615723911961647
6.3140311804008915,-0.06674174131176179
6.347438752783965,-0.12794778363519516
6.380846325167038,-0.1906023402671716
6.414253897550112,-0.2283104270850643
6.447661469933186,-0.21875492785430165
6.481069042316259,-0.15484144203987282
6.5144766146993325,-0.05042450432296448
6.547884187082406,0.06275324872000194
6.581291759465479,0.14652668691759782
6.614699331848553,0.17177313491574117
6.648106904231627,0.1311462271404518
6.6815144766147,0.043061638060114545
6.7149220489977735,-0.0554174892541205
6.748329621380847,-0.12410386268379844
6.78173719376392,-0.13684358503866256
6.815144766146994,-0.0924302870368527
6.848552338530068,-0.014024227027846866
6.881959910913141,0.06279575973801445
6.915367483296214,0.10754440044917678
6.948775055679288,0.10906804997479203
6.982182628062361,0.07917457329346697
7.015590200445435,0.0439312098994215
7.048997772828509,0.027724714098239026
7.082405345211582,0.039288422645558284
7.115812917594655,0.06771920356511744
7.149220489977729,0.09053410732282025
7.182628062360802,0.08853682881242751
7.216035634743876,0.05811460679203945
7.24944320712695,0.013202221842506918
7.282850779510023,-0.024366169762797336
7.316258351893096,-0.040016396737292195
7.34966592427617,-0.03733458214481962
7.383073496659243,-0.03732819332604079
7.416481069042317,-0.0657200121411058
7.449888641425391,-0.13538709873437252
7.4832962138084635,-0.23437697951702546
7.516703786191537,-0.32713685307659307
7.550111358574611,-0.3693320641151496
7.583518930957685,-0.32910076180549735
7.616926503340758,-0.20396975463803607
7.650334075723832,-0.024762570686995968
7.683741648106905,0.15566054146434918
7.717149220489978,0.28357781477530714
7.750556792873052,0.32565207339549174
7.783964365256126,0.28075349986197756
7.817371937639199,0.17774528807172876
7.850779510022273,0.061394137869586037
7.884187082405346,-0.026235215591227032
7.917594654788419,-0.060402312816523744
7.951002227171493,-0.03892479886118323
7.984409799554567,0.02215250168252791
8.01781737193764,0.09826980019546801
8.051224944320714,0.16588104839369616
8.084632516703786,0.2079767422417193
8.118040089086861,0.2150564002575474
8.151447661469934,0.18368137685392247
8.184855233853007,0.11539988327143737
8.218262806236082,0.017451325956001455
8.251670378619155,-0.0956100117004712
8.285077951002227,-0.20179496149329354
8.318485523385302,-0.27525373944772746
8.351893095768375,-0.2937250128584196
8.385300668151448,-0.24738490782496864
8.418708240534523,-0.14494522303908458
8.452115812917596,-0.0133352045910152
8.485523385300668,0.11005298222893131
8.518930957683743,0.19003904953497747
8.552338530066816,0.2061719471082119
8.585746102449889,0.15981648064339538
8.619153674832964,0.07284219478680166
8.652561247216036,-0.021390809632440753
8.68596881959911,-0.09079857932754423
8.719376391982184,-0.11576570199478559
8.752783964365257,-0.09446381481208797
8.78619153674833,-0.04082987639468828
8.819599109131405,0.023011123049774082
8.853006681514477,0.07594080612198473
8.88641425389755,0.10459791201920095
8.919821826280625,0.10543601632339229
8.953229398663698,0.08251103909743598
8.98663697104677,0.04344513151774958
9.020044543429846,-0.0037053286364605266
9.053452115812918,-0.05142017763944251
9.086859688195991,-0.09234862105660739
9.120267260579066,-0.11954701399814924
9.153674832962139,-0.12852518829176474
9.187082405345212,-0.12025163173015395
9.220489977728286,-0.10258428304704156
9.25389755011136,-0.08786016600598569
9.287305122494432,-0.0867557423978464
9.320712694877507,-0.10147616713947037
9.35412026726058,-0.12264769878856206
9.387527839643653,-0.1327409996949206
9.420935412026727,-0.11513106976229445
9.4543429844098,-0.06422173755755975
9.487750556792873,0.009222585235579601
9.521158129175948,0.08128022149960641
9.55456570155902,0.1258218020159685
9.587973273942094,0.12793372299941852
9.621380846325168,0.09268360066302227
9.654788418708241,0.04408667203364077
9.688195991091314,0.014099254308371374
9.721603563474389,0.02682673314451973
9.755011135857462,0.08595588185978398
9.788418708240535,0.1720384221758089
9.82182628062361,0.25126137772936347
9.855233853006682,0.2913673893570588
9.888641425389755,0.27667550803084073
9.92204899777283,0.21471569223235842
9.955456570155903,0.13145923404350165
9.988864142538976,0.05799767543859524
10.02227171492205,0.015645022191650884
10.055679287305123,0.00679674235695697
10.089086859688196,0.015581769390228284
10.12249443207127,0.017337019428669526
10.155902004454344,-0.008207286489410881
10.189309576837417,-0.06654123837570405
10.222717149220491,-0.14554437406834317
10.256124721603564,-0.22113203440587123
10.289532293986637,-0.26831538172305724
10.322939866369712,-0.2723307136687274
10.356347438752785,-0.23483395009804223
10.389755011135858,-0.1727268477905741
10.423162583518932,-0.11059991950532673
10.456570155902005,-0.07044716893961528
10.489977728285078,-0.06317039873468423
10.523385300668153,-0.08526997544419462
10.556792873051226,-0.12164355213792133
10.590200445434299,-0.15270816498537199
10.623608017817373,-0.16232513844933752
10.657015590200446,-0.14302327445179772
10.69042316258352,-0.09672185992971898
10.723830734966594,-0.03159959701127817
10.757238307349667,0.042409639925833076
10.790645879732741,0.116758051972541
10.824053452115814,0.18468558732625975
10.857461024498887,0.2395852365420017
10.890868596881962,0.27354414172121544
10.924276169265035,0.27826274905476983
10.957683741648108,0.24895698919106252
10.991091314031182,0.18953363213776733
11.024498886414255,0.11566829174395786
11.057906458797328,0.05257239312101512
11.091314031180403,0.02650438646194948
11.124721603563476,0.05258777838499168
11.158129175946549,0.12446593915326794
11.191536748329623,0.211881891209928
11.224944320712696,0.26951004296740144
11.25835189309577,0.2550811087105618
11.291759465478844,0.14946506891816072
11.325167037861917,-0.031059962699680928
11.35857461024499,-0.23764646366405381
11.391982182628064,-0.40722534639625213
11.425389755011137,-0.48868427188864283
11.45879732739421,-0.4644317690715998
11.492204899777285,-0.35660045237004606
11.525612472160358,-0.21486031828706467
11.55902004454343,-0.09238182214904406
11.592427616926505,-0.022423989753541554
11.625835189309578,-0.006975577921921393
11.659242761692651,-0.021724317904139392
11.692650334075726,-0.0327839120222488
11.726057906458799,-0.015138048928575537
11.759465478841872,0.036671640013368985
11.792873051224946,0.1095389857513098
11.82628062360802,0.1816106065604877
11.859688195991092,0.23398843477102138
11.893095768374167,0.2578264262250971
11.92650334075724,0.25426933415850317
11.959910913140313,0.22925339290185395
11.993318485523387,0.18768062649406753
12.02672605790646,0.13087025532634006
12.060133630289533,0.05841636126543691
12.093541202672608,-0.02739881728008188
12.12694877505568,-0.1179811858690316
12.160356347438753,-0.1983547710371688
12.193763919821828,-0.25131358281580973
12.227171492204901,-0.26406167625568955
12.260579064587974,-0.23411020753641748
12.293986636971049,-0.1713224385408315
12.327394209354122,-0.09471043178807424
12.360801781737194,-0.025123870804243532
12.39420935412027,0.022892907690900854
12.427616926503342,0.04620708635741283
12.461024498886415,0.05268267787290484
12.49443207126949,0.05550678704728246
12.527839643652563,0.06521456904114574
12.561247216035635,0.08357962433800925
12.59465478841871,0.1026010274123754
12.628062360801783,0.10920020074748521
12.661469933184856,0.09325306887911873
12.69487750556793,0.05472778187625147
12.728285077951004,0.005952135528864787
12.761692650334076,-0.03263836059368125
12.795100222717151,-0.04161587616811189
12.828507795100224,-0.012270613135884244
12.861915367483297,0.04788017154026486
12.895322939866372,0.11669271259908512
12.928730512249444,0.16566161840330274
12.962138084632517,0.1712913079544221
12.995545657015592,0.1246510373009428
13.028953229398665,0.03510419010050698
13.062360801781738,-0.07319290324138197
13.095768374164813,-0.17038385007666865
13.129175946547885,-0.2317438772596994
13.162583518930958,-0.24583756447083094
13.195991091314033,-0.21687102037661007
13.229398663697106,-0.16072470105934647
13.262806236080179,-0.09698741484477233
13.296213808463254,-0.04099615702084793
13.329621380846326,0.0004933584022244485
13.3630289532294,0.028633966440867166
13.396436525612474,0.04824880330889773
13.429844097995547,0.06316498990664449
13.46325167037862,0.07393160958481229
13.496659242761694,0.07878626071269498
13.530066815144767,0.0765374276428942
13.56347438752784,0.06895884941709139
13.596881959910915,0.0608616670302195
13.630289532293988,0.057678187570743694
13.66369710467706,0.062040430051594694
13.697104677060135,0.07150672967442771
13.730512249443208,0.07897689069201208
13.763919821826281,0.07585033655605943
13.797327394209356,0.056448676109549116
13.830734966592429,0.021453548009079823
13.864142538975502,-0.021487657535172455
13.897550111358576,-0.060451403135789915
13.93095768374165,-0.08403168597166236
13.964365256124722,-0.08599545147046672
13.997772828507797,-0.06766032536080394
14.03118040089087,-0.03702117933527998
14.064587973273943,-0.005217544826963948
14.097995545657017,0.01791845709720564
14.13140311804009,0.02726320972182415
14.164810690423163,0.023439012283496277
14.198218262806238,0.01130122826434272
14.23162583518931,-0.0032340333807184024
14.265033407572384,-0.01649428327887774
14.298440979955458,-0.028952285195550567
14.331848552338531,-0.044791146059458053
14.365256124721604,-0.06919124986183789
14.398663697104679,-0.10442421928906123
14.432071269487752,-0.14651625693346895
14.465478841870825,-0.18427517710948893
14.4988864142539,-0.2017385649179217
14.532293986636972,-0.18372142220017293
14.565701559020045,-0.12257155975292305
14.59910913140312,-0.02320984387653974
14.632516703786193,0.0962480007224885
14.665924276169266,0.20930653676770192
14.69933184855234,0.2898305418226647
14.732739420935413,0.3211130489196736
14.766146993318486,0.30129371518057524
14.79955456570156,0.24284355389653509
14.832962138084634,0.1667218699196353
14.866369710467707,0.09424908675563412
14.899777282850781,0.040367115965615874
14.933184855233854,0.010598320865726537
14.966592427616927,0.0017382846555562316
15.0,0.004659259625910705
