Time (s),Filtered Signal
0.0,-0.010133710439033519
0.03337000366703337,0.25249513842988025
0.06674000733406674,0.5249971180525672
0.1001100110011001,0.8008576761667423
0.13348001466813347,1.0502029735339384
0.16685001833516683,1.2275266757934522
0.2002200220022002,1.2899678675277033
0.2335900256692336,1.2162969478590402
0.26696002933626695,1.016543838307454
0.3003300330033003,0.7276924643731731
0.33370003667033366,0.39865705987747246
0.36707004033736707,0.0731927046881461
0.4004400440044004,-0.22054360382871896
0.4338100476714338,-0.4699900145124475
0.4671800513384672,-0.6704998674595215
0.5005500550055005,-0.816850367371142
0.5339200586725339,-0.9001989080597832
0.5672900623395672,-0.9122792412239633
0.6006600660066006,-0.8534816854253193
0.634030069673634,-0.7389289778282713
0.6674000733406673,-0.5980255881883819
0.7007700770077008,-0.4668954286853587
0.7341400806747341,-0.37692445820325116
0.7675100843417675,-0.34418931494448124
0.8008800880088008,-0.3635942113908548
0.8342500916758342,-0.4093046824411142
0.8676200953428675,-0.4410796061019608
0.9009900990099009,-0.41501993854254027
0.9343601026769344,-0.29667407646242383
0.9677301063439677,-0.07366321558727071
1.001100110011001,0.2360105828339494
1.0344701136780343,0.5840722329460769
1.0678401173450678,0.9028780333441602
1.1012101210121013,1.1255289847708232
1.1345801246791345,1.208834599762594
1.167950128346168,1.1498468936541895
1.2013201320132012,0.9878656543923918
1.2346901356802347,0.7893569951949229
1.268060139347268,0.6209159220532826
1.3014301430143014,0.5215465981507519
1.3348001466813346,0.4868172657060146
1.368170150348368,0.47270816643452146
1.4015401540154016,0.41802557446163935
1.4349101576824348,0.27528208202616766
1.4682801613494683,0.03551790809240602
1.5016501650165015,-0.2648345054918126
1.535020168683535,-0.5583867963101043
1.5683901723505682,-0.7756942796503469
1.6017601760176017,-0.8750751505868093
1.6351301796846351,-0.8596922042868397
1.6685001833516684,-0.7743990348331896
1.7018701870187019,-0.6841100679023414
1.735240190685735,-0.6436293630147577
1.7686101943527686,-0.6725894789491216
1.8019801980198018,-0.7469142058449697
1.8353502016868353,-0.8108419427159904
1.8687202053538687,-0.804037014812207
1.902090209020902,-0.6909573911869789
1.9354602126879354,-0.4781753448146815
1.9688302163549687,-0.21092394472008483
2.002200220022002,0.049616062556265925
2.0355702236890356,0.25687476784239355
2.0689402273560686,0.40147368310561543
2.102310231023102,0.5136427221453431
2.1356802346901356,0.6434453318908763
2.169050238357169,0.8284465085186253
2.2024202420242025,1.0655857924680854
2.2357902456912355,1.3026744427848165
2.269160249358269,1.4554789876753522
2.3025302530253025,1.4434265842302925
2.335900256692336,1.227199802055813
2.369270260359369,0.8300425032020644
2.4026402640264024,0.3323825812638538
2.436010267693436,-0.15757689314928355
2.4693802713604693,-0.5431815503045763
2.502750275027503,-0.7705620057963579
2.536120278694536,-0.839209403203889
2.5694902823615693,-0.7905419950111361
2.6028602860286028,-0.6835765923921455
2.636230289695636,-0.5710049222646151
2.6696002933626692,-0.48563630331501517
2.7029702970297027,-0.4395451318460952
2.736340300696736,-0.43141962563777037
2.7697103043637696,-0.45504254294666535
2.803080308030803,-0.5037420535141165
2.836450311697836,-0.5696752621217711
2.8698203153648696,-0.6401752821090794
2.903190319031903,-0.6946624643342817
2.9365603226989365,-0.7049940925488442
2.96993032636597,-0.6405769659814103
3.003300330033003,-0.4777900928554374
3.0366703337000365,-0.21137602859164512
3.07004033736707,0.13642130631789642
3.1034103410341034,0.5142088966445284
3.1367803447011364,0.8512220845086037
3.17015034836817,1.0780988841450556
3.2035203520352034,1.1521425902095535
3.236890355702237,1.0761378537792172
3.2702603593692703,0.9004396852603349
3.3036303630363033,0.7046961303984322
3.3370003667033368,0.5654082241077966
3.3703703703703702,0.5233705267293965
3.4037403740374037,0.5662535252103632
3.4371103777044367,0.6349947047151837
3.47048038137147,0.6513774972131015
3.5038503850385037,0.5539837674101467
3.537220388705537,0.325873604991617
3.5705903923725706,0.001749821818919239
3.6039603960396036,-0.3474725706091361
3.637330399706637,-0.6442256538985901
3.6707004033736705,-0.8338517535471219
3.704070407040704,-0.901617139635909
3.7374404107077375,-0.8718256179224959
3.7708104143747705,-0.7922459288862777
3.804180418041804,-0.7126705367066964
3.8375504217088374,-0.6669854943541502
3.870920425375871,-0.6645145324703151
3.904290429042904,-0.6913596994156809
3.9376604327099374,-0.7187340844857054
3.971030436376971,-0.7140921305292541
4.004400440044004,-0.6516426833367889
4.037770443711038,-0.5201217803053734
4.071140447378071,-0.3264562113214574
4.104510451045105,-0.09425906099103526
4.137880454712137,0.14313971852237897
4.171250458379171,0.35362183643134154
4.204620462046204,0.5174226511030338
4.237990465713238,0.6336456488584195
4.271360469380271,0.7186624901195616
4.304730473047305,0.7965083702984149
4.338100476714338,0.8853959676949922
4.3714704803813715,0.9866159568949714
4.404840484048405,1.0811256000993432
4.438210487715438,1.1355738638768351
4.471580491382471,1.1152091550924355
4.5049504950495045,0.9980923195127175
4.538320498716538,0.7845486566462847
4.571690502383571,0.497949285123466
4.605060506050605,0.17677997233853393
4.638430509717638,-0.13812778024945196
4.671800513384672,-0.4152197686362311
4.705170517051705,-0.6376226246070327
4.738540520718738,-0.8008906101370521
4.771910524385771,-0.9060544911707159
4.805280528052805,-0.9534352142686929
4.838650531719838,-0.9416719871316278
4.872020535386872,-0.872502766640869
4.905390539053905,-0.757576008649202
4.938760542720939,-0.6217345768437543
4.972130546387972,-0.4989379739614267
5.005500550055006,-0.42117029179857457
5.038870553722038,-0.4048602657300815
5.072240557389072,-0.44127339070838717
5.105610561056105,-0.49612310281665234
5.138980564723139,-0.5199233090021328
5.172350568390172,-0.4660108394324178
5.2057205720572055,-0.30958408231944856
5.239090575724239,-0.060000144944335095
5.272460579391272,0.23941661547140133
5.305830583058306,0.5251219786096653
5.3392005867253385,0.7359864755639833
5.372570590392372,0.8358158991206737
5.405940594059405,0.8261466282224479
5.439310597726439,0.7436260678753552
5.472680601393472,0.6431903592665921
5.506050605060506,0.5747421338024872
5.539420608727539,0.5637041203628774
5.572790612394573,0.6033230682976893
5.606160616061606,0.6605183106826957
5.63953061972864,0.6909585919450366
5.672900623395672,0.6560932435071763
5.706270627062706,0.5358986645680365
5.739640630729739,0.33444806778385366
5.773010634396773,0.07851235482871179
5.806380638063806,-0.18919797128784563
5.83975064173084,-0.42046270367533395
5.873120645397873,-0.5739257951766195
5.9064906490649065,-0.6269413176071511
5.93986065273194,-0.5834598063473008
5.9732306563989725,-0.47454108732960276
6.006600660066006,-0.3498835787477545
6.0399706637330395,-0.2620259430094995
6.073340667400073,-0.24821698090215574
6.106710671067106,-0.31666282794476
6.14008067473414,-0.4428644293240684
6.173450678401173,-0.5781826019136079
6.206820682068207,-0.6679424466671027
6.24019068573524,-0.6722921822275544
6.273560689402273,-0.5814783483661897
6.306930693069306,-0.4190712144076355
6.34030069673634,-0.23145568651590392
6.373670700403373,-0.06774010851333619
6.407040704070407,0.04139500727798856
6.44041070773744,0.09657715417133687
6.473780711404474,0.12837966226892483
6.507150715071507,0.18195933398323916
6.540520718738541,0.29426397509000196
6.573890722405573,0.4739214752595308
6.607260726072607,0.6930004085720964
6.64063072973964,0.8947868466557497
6.6740007334066735,1.014740737148587
6.707370737073707,1.0059328459208359
6.7407407407407405,0.8581309309230073
6.774110744407774,0.6023410294564744
6.807480748074807,0.2989533668675129
6.840850751741841,0.01486989322437303
6.8742207554088735,-0.20026365502617344
6.907590759075907,-0.32861408417252286
6.94096076274294,-0.38414788131949124
6.974330766409974,-0.39975034704990947
7.007700770077007,-0.4089389269105792
7.041070773744041,-0.4312443154613659
7.074440777411074,-0.46727398295691125
7.107810781078108,-0.5037943112167621
7.141180784745141,-0.5241989649750446
7.174550788412174,-0.518045337365585
7.207920792079207,-0.4852823255058052
7.241290795746241,-0.4345245214647741
7.274660799413274,-0.37771309047950913
7.308030803080308,-0.3242940068470752
7.341400806747341,-0.2770324655675052
7.3747708104143745,-0.23024134450136202
7.408140814081408,-0.17061215701755478
7.4415108177484415,-0.08084207414004059
7.474880821415475,0.05409022531630392
7.5082508250825075,0.2393657751164597
7.541620828749541,0.4643394386765066
7.5749908324165744,0.7014224351720202
7.608360836083608,0.9116420994407485
7.641730839750641,1.0556994177944896
7.675100843417675,1.1064341282635521
7.708470847084708,1.0575037118659893
7.741840850751742,0.9245457283954021
7.775210854418775,0.7384233141543789
7.808580858085808,0.5336228461700675
7.841950861752841,0.33675254279421746
7.875320865419875,0.15961058030119446
7.908690869086908,-0.0010443369238834254
7.942060872753942,-0.15774514433826436
7.975430876420975,-0.3233933407589715
8.008800880088009,-0.502669609346615
8.042170883755041,-0.6868306859547726
8.075540887422076,-0.8538370759911844
8.108910891089108,-0.9742732816199805
8.142280894756142,-1.0216732529608779
8.175650898423175,-0.9838756465405204
8.20902090209021,-0.8707376881412513
8.242390905757242,-0.7140477368140427
8.275760909424275,-0.5582659743842167
8.309130913091309,-0.44488834241143965
8.342500916758341,-0.3967161350452811
8.375870920425376,-0.4090602401499499
8.409240924092408,-0.45214894724135585
8.442610927759443,-0.4838676764656473
8.475980931426475,-0.4669699239628594
8.50935093509351,-0.3826908298135937
8.542720938760542,-0.23455847074891115
8.576090942427575,-0.041297660157327956
8.60946094609461,0.17656186535233745
8.642830949761642,0.4084652712428659
8.676200953428676,0.6570174015109229
8.709570957095709,0.930304570026506
8.742940960762743,1.2271921840519942
8.776310964429776,1.5238385664321858
8.80968096809681,1.7700583472071068
8.843050971763843,1.900066541640451
8.876420975430875,1.8551530048958436
8.90979097909791,1.6091881825064722
8.943160982764942,1.1850457885198493
8.976530986431976,0.6530307146803394
9.009900990099009,0.11027551776231351
9.043270993766043,-0.35096568886061663
9.076640997433076,-0.6728127770993616
9.11001100110011,-0.8467614865544147
9.143381004767143,-0.9086953825569524
9.176751008434175,-0.9173559214865377
9.21012101210121,-0.9264991980968028
9.243491015768242,-0.9628049674599289
9.276861019435277,-1.0182540410582486
9.31023102310231,-1.0590364031081687
9.343601026769344,-1.0459878329225338
9.376971030436376,-0.9568530826078743
9.41034103410341,-0.8001167019914299
9.443711037770443,-0.613933774336098
9.477081041437476,-0.45032356324968137
9.51045104510451,-0.3514992659554028
9.543821048771543,-0.32904031213850754
9.577191052438577,-0.35572283320334824
9.61056105610561,-0.3744251091811103
9.643931059772644,-0.3209469576713234
9.677301063439677,-0.1512733198019194
9.710671067106711,0.13828342696475163
9.744041070773743,0.5065336995346623
9.777411074440776,0.8801463891796136
9.81078107810781,1.1781202200969052
9.844151081774843,1.338008820890491
9.877521085441877,1.334021074517241
9.91089108910891,1.1812568373504773
9.944261092775944,0.926283885200886
9.977631096442977,0.6293098093848589
10.011001100110011,0.3454392818832742
10.044371103777044,0.1114971260195999
10.077741107444076,-0.058406764779198095
10.11111111111111,-0.16929018683421423
10.144481114778143,-0.23722602676111354
10.177851118445178,-0.28105978886257144
10.21122112211221,-0.3168592903414061
10.244591125779245,-0.3556104962761788
10.277961129446277,-0.4026466901085254
10.311331133113312,-0.4569121060209601
10.344701136780344,-0.5096141203210239
10.378071140447377,-0.5439732993547055
10.411441144114411,-0.5387517849802883
10.444811147781444,-0.47669600477042506
10.478181151448478,-0.3553901757984883
10.51155115511551,-0.19457704859359096
10.544921158782545,-0.033640329663036476
10.578291162449577,0.08291944501676542
10.611661166116612,0.1270517016191026
10.645031169783644,0.10480216092336656
10.678401173450677,0.05865854042214836
10.711771177117711,0.05003410727685107
10.745141180784744,0.1284283990218162
10.778511184451778,0.30277318308596557
10.81188118811881,0.5312624478741743
10.845251191785845,0.7370421002753512
10.878621195452878,0.8430126109670445
10.911991199119912,0.8078631724161405
10.945361202786945,0.6441898318603134
10.978731206453979,0.4092941725624826
11.012101210121012,0.1744669012147391
11.045471213788044,-0.009713941018211474
11.078841217455079,-0.1331475850258021
11.112211221122111,-0.22161572893599774
11.145581224789145,-0.3128288527825441
11.178951228456178,-0.42875697238539345
11.212321232123212,-0.5607038779340663
11.245691235790245,-0.6747493375294271
11.27906123945728,-0.7326568206902005
11.312431243124312,-0.7148392158432744
11.345801246791344,-0.6321006502718134
11.379171250458379,-0.5206027397843673
11.412541254125411,-0.424405228720767
11.445911257792446,-0.37598702571230314
11.479281261459478,-0.384468309568557
11.512651265126513,-0.4353526282510933
11.546021268793545,-0.49886064329598173
11.57939127246058,-0.5404628891454903
11.612761276127612,-0.5284269887707965
11.646131279794645,-0.43729534537593684
11.67950128346168,-0.24987495333268953
11.712871287128712,0.038980837898640125
11.746241290795746,0.41603895670602614
11.779611294462779,0.8438527627485171
11.812981298129813,1.2608019917875566
11.846351301796846,1.5912417499998708
11.87972130546388,1.7653997114230289
11.913091309130913,1.7427865638309479
11.946461312797945,1.529108490028074
11.97983131646498,1.1777181116224789
12.013201320132012,0.772799092457458
12.046571323799046,0.4000337349281335
12.079941327466079,0.1169851108527756
12.113311331133113,-0.06387961103017019
12.146681334800146,-0.17239018144268528
12.18005133846718,-0.2603673371248441
12.213421342134213,-0.37419071782692914
12.246791345801245,-0.5332636208709949
12.28016134946828,-0.7234446476678102
12.313531353135312,-0.9064583334355726
12.346901356802347,-1.0386899902261106
12.38027136046938,-1.0895034668490702
12.413641364136414,-1.0513353949613102
12.447011367803446,-0.9392554525982248
12.48038137147048,-0.7829327590575601
12.513751375137513,-0.6163127857164404
12.547121378804546,-0.46926642548367586
12.58049138247158,-0.3625588072900538
12.613861386138613,-0.30503381360183396
12.647231389805647,-0.29152615829571543
12.68060139347268,-0.3016283928389394
12.713971397139714,-0.30144422684784944
12.747341400806746,-0.25082837228334154
12.78071140447378,-0.11637945589238788
12.814081408140813,0.11344251390900122
12.847451411807846,0.417819214427733
12.88082141547488,0.7443274927418583
12.914191419141913,1.0233963588745576
12.947561422808947,1.1922625913782219
12.98093142647598,1.2185112769624422
13.014301430143014,1.1120593671967849
13.047671433810047,0.9191629591341822
13.081041437477081,0.7007901215936577
13.114411441144114,0.5058505899216806
13.147781444811146,0.35254213594949696
13.18115144847818,0.22662819207437251
13.214521452145213,0.09625639264916436
13.247891455812248,-0.06571949639004811
13.28126145947928,-0.264155785490997
13.314631463146315,-0.4772998442235519
13.348001466813347,-0.6663113421516778
13.381371470480381,-0.7919682694614654
13.414741474147414,-0.8294094066165576
13.448111477814447,-0.7746981109489504
13.481481481481481,-0.6426701449450989
13.514851485148514,-0.4600414510944756
13.548221488815548,-0.2586209806074024
13.58159149248258,-0.071008604340447
13.614961496149615,0.07218175762896875
13.648331499816647,0.14609260261912754
13.681701503483682,0.1376692886866797
13.715071507150714,0.05237478001108894
13.748441510817747,-0.08229486437105446
13.781811514484781,-0.22022616301437242
13.815181518151814,-0.3080764541335149
13.848551521818848,-0.3018037287282707
13.88192152548588,-0.18245060183195858
13.915291529152915,0.03534705580050981
13.948661532819948,0.3063551800361516
13.982031536486982,0.5689854273693727
14.015401540154015,0.7656990348510646
14.048771543821047,0.8615198759057273
14.082141547488082,0.8531159212372412
14.115511551155114,0.7649413753289539
14.148881554822148,0.6347413241503632
14.182251558489181,0.49551306453390537
14.215621562156215,0.3624061959737967
14.248991565823248,0.23035140843069435
14.282361569490282,0.08281144849179314
14.315731573157315,-0.09340419662816771
14.349101576824348,-0.2952430355306509
14.382471580491382,-0.49944591530096705
14.415841584158414,-0.670072523234686
14.449211587825449,-0.7741529530624043
14.482581591492481,-0.7975965435567057
14.515951595159516,-0.7528398972061062
14.549321598826548,-0.6735941646712036
14.582691602493583,-0.5987318171709443
14.616061606160615,-0.5533768661314408
14.649431609827648,-0.5372115287398226
14.682801613494682,-0.5264691704683517
14.716171617161715,-0.4886640057065883
14.749541620828749,-0.40185251702289576
14.782911624495782,-0.2674391687479564
14.816281628162816,-0.10916903065723156
14.849651631829849,0.040914728833016216
14.883021635496883,0.1609859613015033
14.916391639163916,0.25125658059430117
14.94976164283095,0.3321555196384574
14.983131646497982,0.4302880556960475
15.016501650165015,0.560876781719838
15.04987165383205,0.7171522888274519
15.083241657499082,0.8725640449791517
15.116611661166116,0.9938031873927407
15.149981664833149,1.056392814530707
15.183351668500183,1.053668454971581
15.216721672167216,0.9946012143009166
15.25009167583425,0.89302644065307
15.283461679501283,0.7560393835638962
15.316831683168315,0.5795418166045186
15.35020168683535,0.35415006821794315
15.383571690502382,0.07786479177634134
15.416941694169417,-0.23275840876957185
15.45031169783645,-0.5407906494557279
15.483681701503484,-0.7989978902545031
15.517051705170516,-0.9673071290838098
15.55042170883755,-1.02874222988461
15.583791712504583,-0.9956895629191107
15.617161716171616,-0.9037086856365717
15.65053171983865,-0.7965813788683667
15.683901723505683,-0.7100353997775194
15.717271727172717,-0.6608599965900429
15.75064173083975,-0.6442634418418354
15.784011734506784,-0.6383360847362894
15.817381738173816,-0.6126785727207799
15.85075174184085,-0.5386577423539959
15.884121745507883,-0.3996094579459508
15.917491749174916,-0.19903912550317152
15.95086175284195,0.03631795846184464
15.984231756508983,0.2619619651230199
16.017601760176017,0.43054560688117616
16.05097176384305,0.5122270884791054
16.084341767510082,0.5116677485781281
16.117711771177117,0.4718246872484063
16.15108177484415,0.4593021745486725
16.184451778511182,0.5349239027767764
16.217821782178216,0.7219241040997956
16.25119178584525,0.9875521283564288
16.284561789512285,1.2491419593614044
16.317931793179316,1.4044163012338784
16.35130179684635,1.373533636575523
16.384671800513384,1.133756699232634
16.41804180418042,0.7304895806723783
16.45141180784745,0.2595476925010146
16.484781811514484,-0.17087486181355724
16.51815181518152,-0.48099727457656355
16.55152181884855,-0.6452414719485112
16.584891822515583,-0.6934047283750223
16.618261826182618,-0.6894633835367294
16.651631829849652,-0.6998095470677625
16.685001833516683,-0.7657147465874485
16.718371837183717,-0.8906578896213205
16.75174184085075,-1.0448276793686948
16.785111844517782,-1.1812680072578845
16.818481848184817,-1.2545131009559263
16.85185185185185,-1.234104373680696
16.885221855518886,-1.1101144687657813
16.918591859185916,-0.8923417300578066
16.95196186285295,-0.6065667205555961
16.985331866519985,-0.2898757399434204
17.01870187018702,0.01545669349605851
17.05207187385405,0.27097120781728823
17.085441877521085,0.45342708423183625
17.11881188118812,0.5645857817078079
17.15218188485515,0.6332488864967665
17.185551888522184,0.705288764914249
17.21892189218922,0.8231742034301549
17.252291895856253,1.0031165207106163
17.285661899523284,1.2212053170858739
17.319031903190318,1.417097786229157
17.352401906857352,1.515782234913877
17.385771910524387,1.4587137697371173
