Time (s),Filtered Signal
0.0,-0.0171915600897006
0.03337000366703337,-0.25709584799967716
0.06674000733406674,-0.40350556610698485
0.1001100110011001,-0.3743952963674084
0.13348001466813347,-0.11422227546485027
0.16685001833516683,0.38677172719054304
0.2002200220022002,1.0784447801032855
0.2335900256692336,1.852683232810863
0.26696002933626695,2.5663400025950938
0.3003300330033003,3.0796818230511023
0.33370003667033366,3.2963409366383347
0.36707004033736707,3.189253494849424
0.4004400440044004,2.803017019730528
0.4338100476714338,2.23292707429457
0.4671800513384672,1.5898799505864194
0.5005500550055005,0.9649906580994854
0.5339200586725339,0.40703497906438685
0.5672900623395672,-0.07973139425943603
0.6006600660066006,-0.5183550888019096
0.634030069673634,-0.9319999648195859
0.6674000733406673,-1.320796396658301
0.7007700770077008,-1.654571937924012
0.7341400806747341,-1.884797943459142
0.7675100843417675,-1.968538097204749
0.8008800880088008,-1.890723053806226
0.8342500916758342,-1.6726312505060705
0.8676200953428675,-1.362940881499627
0.9009900990099009,-1.017706922624988
0.9343601026769344,-0.68105714176657
0.9677301063439677,-0.3765083480187899
1.001100110011001,-0.11144804269439354
1.0344701136780343,0.11064199893318001
1.0678401173450678,0.27957399589376614
1.1012101210121013,0.376839481554421
1.1345801246791345,0.38415434017486866
1.167950128346168,0.29676560184109163
1.2013201320132012,0.13307154508075186
1.2346901356802347,-0.06582220733810908
1.268060139347268,-0.24726359106978038
1.3014301430143014,-0.3637728908970908
1.3348001466813346,-0.3876373951856284
1.368170150348368,-0.3175157561495909
1.4015401540154016,-0.1756033992715582
1.4349101576824348,0.0020194107132011623
1.4682801613494683,0.17741678868567295
1.5016501650165015,0.3210796198045941
1.535020168683535,0.4175930234876227
1.5683901723505682,0.465299662146459
1.6017601760176017,0.4704439190104994
1.6351301796846351,0.43865177930646265
1.6685001833516684,0.368531052962309
1.7018701870187019,0.2520176094045806
1.735240190685735,0.08293022057958431
1.7686101943527686,-0.1299078387543652
1.8019801980198018,-0.3527920935762403
1.8353502016868353,-0.528536601348123
1.8687202053538687,-0.5924105124260448
1.902090209020902,-0.498104488124924
1.9354602126879354,-0.24261722450398102
1.9688302163549687,0.12255217850403045
2.002200220022002,0.5016166249612204
2.0355702236890356,0.7846397470579006
2.0689402273560686,0.8869658518093171
2.102310231023102,0.7823856211351685
2.1356802346901356,0.515983794260286
2.169050238357169,0.19002123222928094
2.2024202420242025,-0.0732822860494653
2.2357902456912355,-0.1785862401708759
2.269160249358269,-0.09556610885644805
2.3025302530253025,0.12771745502022358
2.335900256692336,0.38317569663699735
2.369270260359369,0.5468557889655858
2.4026402640264024,0.5314314772952519
2.436010267693436,0.3245750124818912
2.4693802713604693,-0.004485514740289121
2.502750275027503,-0.33448904191185996
2.536120278694536,-0.545448603066698
2.5694902823615693,-0.5716962624654588
2.6028602860286028,-0.43001186158568616
2.636230289695636,-0.20970314977670898
2.6696002933626692,-0.029734997319503152
2.7029702970297027,0.016290713355125535
2.736340300696736,-0.09863948502177004
2.7697103043637696,-0.3257289882796351
2.803080308030803,-0.5653387274085245
2.836450311697836,-0.7125945917134864
2.8698203153648696,-0.7021772584069057
2.903190319031903,-0.5334078387832818
2.9365603226989365,-0.2670417426399595
2.96993032636597,0.002468339040815086
3.003300330033003,0.1863595318593542
3.0366703337000365,0.23659307651423353
3.07004033736707,0.1634309380345698
3.1034103410341034,0.029554365553216107
3.1367803447011364,-0.07658891075319174
3.17015034836817,-0.07799785559190804
3.2035203520352034,0.05732408193701426
3.236890355702237,0.2997480091748697
3.2702603593692703,0.5657765509469739
3.3036303630363033,0.7485794319592355
3.3370003667033368,0.7605526685910305
3.3703703703703702,0.571449204175942
3.4037403740374037,0.2260997180046587
3.4371103777044367,-0.1671235424612593
3.47048038137147,-0.4744846419495239
3.5038503850385037,-0.5877995556262983
3.537220388705537,-0.4679309593544237
3.5705903923725706,-0.16256410907579796
3.6039603960396036,0.21024334827806412
3.637330399706637,0.507168180382694
3.6707004033736705,0.6153217530008753
3.704070407040704,0.4953075345438721
3.7374404107077375,0.193465574568346
3.7708104143747705,-0.18129383475419134
3.804180418041804,-0.5047157243549585
3.8375504217088374,-0.6865895084457221
3.870920425375871,-0.7005797101513072
3.904290429042904,-0.5834012573510966
3.9376604327099374,-0.40749667299998094
3.971030436376971,-0.24323037683525284
4.004400440044004,-0.12943390231415913
4.037770443711038,-0.06456203213034045
4.071140447378071,-0.01924410263116459
4.104510451045105,0.03914802665822761
4.137880454712137,0.12368649201826729
4.171250458379171,0.2182664065294827
4.204620462046204,0.2855993462509307
4.237990465713238,0.28888041398121855
4.271360469380271,0.2166307200857931
4.304730473047305,0.09782035339229028
4.338100476714338,-0.002530318237432115
4.3714704803813715,-0.008782318148994439
4.404840484048405,0.12809218005527748
4.438210487715438,0.3988661924188364
4.471580491382471,0.7277074510044105
4.5049504950495045,0.9953542406646735
4.538320498716538,1.0864133150177897
4.571690502383571,0.9397627323164006
4.605060506050605,0.5776553399432768
4.638430509717638,0.09881161673169471
4.671800513384672,-0.361327900876833
4.705170517051705,-0.6839445238153568
4.738540520718738,-0.8091406823052413
4.771910524385771,-0.7500746177419209
4.805280528052805,-0.5768369661197473
4.838650531719838,-0.3816195254907673
4.872020535386872,-0.24242474357828
4.905390539053905,-0.1993992612280066
4.938760542720939,-0.2496171715178682
4.972130546387972,-0.3577861491356082
5.005500550055006,-0.47521976299549085
5.038870553722038,-0.5583906266207986
5.072240557389072,-0.5806704004358445
5.105610561056105,-0.5349703688210945
5.138980564723139,-0.42918030952967673
5.172350568390172,-0.2789111247640257
5.2057205720572055,-0.10203532823236731
5.239090575724239,0.0829496891878725
5.272460579391272,0.25610259079747866
5.305830583058306,0.3962093732561597
5.3392005867253385,0.4846114437951974
5.372570590392372,0.5121099216964545
5.405940594059405,0.48497683835246086
5.439310597726439,0.42525760001607193
5.472680601393472,0.36322203428643096
5.506050605060506,0.3244402620036994
5.539420608727539,0.3175278278705
5.572790612394573,0.3288499121253626
5.606160616061606,0.32730416580845395
5.63953061972864,0.2776016453208571
5.672900623395672,0.15667435099801594
5.706270627062706,-0.033473914431998646
5.739640630729739,-0.2617886631408496
5.773010634396773,-0.47511791644625606
5.806380638063806,-0.6142173243353514
5.83975064173084,-0.633567587825006
5.873120645397873,-0.5180935809237941
5.9064906490649065,-0.29053427451928937
5.93986065273194,-0.00611370104567552
5.9732306563989725,0.26450511882511896
6.006600660066006,0.45854207164767913
6.0399706637330395,0.5422224658393564
6.073340667400073,0.5211057137621495
6.106710671067106,0.4346090858867144
6.14008067473414,0.33625007944198104
6.173450678401173,0.26801420323866937
6.206820682068207,0.24093731102238622
6.24019068573524,0.2319030659993136
6.273560689402273,0.19901291724104786
6.306930693069306,0.1081139722127986
6.34030069673634,-0.04364891667433063
6.373670700403373,-0.2208690336858696
6.407040704070407,-0.36479826605483007
6.44041070773744,-0.4233285340232353
6.473780711404474,-0.38005437766036054
6.507150715071507,-0.26594499138941524
6.540520718738541,-0.14622144830028005
6.573890722405573,-0.08873589954911519
6.607260726072607,-0.13051340240262638
6.64063072973964,-0.26007074406971115
6.6740007334066735,-0.42426031354842236
6.707370737073707,-0.555027698303103
6.7407407407407405,-0.6012442750582141
6.774110744407774,-0.5491017607755164
6.807480748074807,-0.42181885615787584
6.840850751741841,-0.2611362700202009
6.8742207554088735,-0.10267026234417047
6.907590759075907,0.04042647912018915
6.94096076274294,0.17683756554628316
6.974330766409974,0.3212611398876581
7.007700770077007,0.4742383844303321
7.041070773744041,0.6110430340803713
7.074440777411074,0.6876917539638142
7.107810781078108,0.662005543478154
7.141180784745141,0.5186025795760575
7.174550788412174,0.2838859954667418
7.207920792079207,0.021998530109844473
7.241290795746241,-0.18753203917293235
7.274660799413274,-0.28053404812229027
7.308030803080308,-0.23348673556996882
7.341400806747341,-0.07247500978452884
7.3747708104143745,0.13735787832215623
7.408140814081408,0.3165971921203643
7.4415108177484415,0.40001892193884614
7.474880821415475,0.3578339589118975
7.5082508250825075,0.20290260704038765
7.541620828749541,-0.016745345150768944
7.5749908324165744,-0.23541441029149784
7.608360836083608,-0.39012703088730566
7.641730839750641,-0.437506773535866
7.675100843417675,-0.36357136197164786
7.708470847084708,-0.18579069777010743
7.741840850751742,0.05151587739794392
7.775210854418775,0.28705499699238735
7.808580858085808,0.4564886854181545
7.841950861752841,0.5086604891727828
7.875320865419875,0.42074949959896385
7.908690869086908,0.20735570290096494
7.942060872753942,-0.08121591793772766
7.975430876420975,-0.37288916314762777
8.008800880088009,-0.5960181933947872
8.042170883755041,-0.7014718112960711
8.075540887422076,-0.6757158405166985
8.108910891089108,-0.5401801628349396
8.142280894756142,-0.33877856852542215
8.175650898423175,-0.12065751698948968
8.20902090209021,0.07372650133955035
8.242390905757242,0.21843761563595746
8.275760909424275,0.30040907993808064
8.309130913091309,0.31504028829187253
8.342500916758341,0.2642759266388466
8.375870920425376,0.15916196926532777
8.409240924092408,0.02412755550209667
8.442610927759443,-0.10267658138524058
8.475980931426475,-0.17738814194184402
8.50935093509351,-0.1660492365610872
8.542720938760542,-0.06111850897364423
8.576090942427575,0.11052355145111706
8.60946094609461,0.29443331582911353
8.642830949761642,0.4289862898987821
8.676200953428676,0.46998499322051096
8.709570957095709,0.4070917460803033
8.742940960762743,0.26384975928501936
8.776310964429776,0.0822875316104141
8.80968096809681,-0.09825056414839708
8.843050971763843,-0.25578723495800076
8.876420975430875,-0.3866202446583674
8.90979097909791,-0.49431453239829926
8.943160982764942,-0.5759191020306985
8.976530986431976,-0.6154238359923214
9.009900990099009,-0.5888724324694042
9.043270993766043,-0.4776350102735556
9.076640997433076,-0.2813811830621226
9.11001100110011,-0.02305571686700713
9.143381004767143,0.25658936899067736
9.176751008434175,0.5114761979074809
9.21012101210121,0.7033250793495692
9.243491015768242,0.8100798599256562
9.276861019435277,0.8277264210373642
9.31023102310231,0.766920567085041
9.343601026769344,0.6473846100356627
9.376971030436376,0.49262469447941426
9.41034103410341,0.3260383394800155
9.443711037770443,0.16805352294138023
9.477081041437476,0.03341057760305364
9.51045104510451,-0.0716676520620352
9.543821048771543,-0.15135053392607775
9.577191052438577,-0.21914020693477743
9.61056105610561,-0.2924861105675661
9.643931059772644,-0.3839587399073903
9.677301063439677,-0.4926635399241629
9.710671067106711,-0.6008905847076232
9.744041070773743,-0.6793457228833462
9.777411074440776,-0.6999674347871392
9.81078107810781,-0.6505191741155267
9.844151081774843,-0.542886281104804
9.877521085441877,-0.40927325845358753
9.91089108910891,-0.2867389561291238
9.944261092775944,-0.19754880674200387
9.977631096442977,-0.13641750044747744
10.011001100110011,-0.07306199423943001
10.044371103777044,0.02969373268394425
10.077741107444076,0.19133299702639855
10.11111111111111,0.3963888782600137
10.144481114778143,0.5951375220004921
10.177851118445178,0.7232308681851252
10.21122112211221,0.7307540880823568
10.244591125779245,0.6059469281997751
10.277961129446277,0.38168915328643493
10.311331133113312,0.12190634918193034
10.344701136780344,-0.10484963471631858
10.378071140447377,-0.25151531054332676
10.411441144114411,-0.30620346346129845
10.444811147781444,-0.2882730828928441
10.478181151448478,-0.23066639508524894
10.51155115511551,-0.1590372590809035
10.544921158782545,-0.0792081626091416
10.578291162449577,0.020485265877779397
10.611661166116612,0.15380440459037842
10.645031169783644,0.3175351264637681
10.678401173450677,0.480730251826281
10.711771177117711,0.590349486598652
10.745141180784744,0.5926364366347244
10.778511184451778,0.460455907719651
10.81188118811881,0.21231482672341315
10.845251191785845,-0.08823575500866489
10.878621195452878,-0.3546921034857987
10.911991199119912,-0.5118791085339294
10.945361202786945,-0.5262748276355136
10.978731206453979,-0.41776129835845804
11.012101210121012,-0.24750396319243764
11.045471213788044,-0.08868960934520807
11.078841217455079,0.005026247229900791
11.112211221122111,0.01852261752576816
11.145581224789145,-0.02555581774421229
11.178951228456178,-0.08405406254967948
11.212321232123212,-0.1162919076074734
11.245691235790245,-0.10122031481725316
11.27906123945728,-0.04246201170638177
11.312431243124312,0.037744129121486995
11.345801246791344,0.1098881972330703
11.379171250458379,0.14781514424904138
11.412541254125411,0.13563850692019905
11.445911257792446,0.0710417344721826
11.479281261459478,-0.033964969263294786
11.512651265126513,-0.15470595303590143
11.546021268793545,-0.25877080670750685
11.57939127246058,-0.31452384103177133
11.612761276127612,-0.30153644925327466
11.646131279794645,-0.21937301824421554
11.67950128346168,-0.09083355041306063
11.712871287128712,0.042534826975213685
11.746241290795746,0.13194005899235167
11.779611294462779,0.13651966630760856
11.812981298129813,0.037654085091760055
11.846351301796846,-0.15169847565015318
11.87972130546388,-0.3854337997495478
11.913091309130913,-0.5918239882811897
11.946461312797945,-0.6899370728013909
11.97983131646498,-0.6126365062522388
12.013201320132012,-0.3308974924254287
12.046571323799046,0.1285266595795363
12.079941327466079,0.6804045412513372
12.113311331133113,1.1979638387396943
12.146681334800146,1.5469910109200797
12.18005133846718,1.6269444848357004
12.213421342134213,1.4046765790092373
12.246791345801245,0.9280431908694454
12.28016134946828,0.31380514362973183
12.313531353135312,-0.286391922202424
12.346901356802347,-0.7305070857880309
12.38027136046938,-0.9264391160850104
12.413641364136414,-0.8555817919009635
12.447011367803446,-0.5730028548793965
12.48038137147048,-0.18550916971313405
12.513751375137513,0.18401604172361954
12.547121378804546,0.43356562601839144
12.58049138247158,0.5082368835854917
12.613861386138613,0.4084408463717276
12.647231389805647,0.17990082301185437
12.68060139347268,-0.10818423332044082
12.713971397139714,-0.38704437880827763
12.747341400806746,-0.6055097942253933
12.78071140447378,-0.7361979214907334
12.814081408140813,-0.7722237856141042
12.847451411807846,-0.719987292885903
12.88082141547488,-0.5939201779218891
12.914191419141913,-0.415758706308749
12.947561422808947,-0.2162082001481526
12.98093142647598,-0.0339893244561772
13.014301430143014,0.09164245991933768
13.047671433810047,0.13415292195812595
13.081041437477081,0.09274291943626978
13.114411441144114,-0.003038342487893049
13.147781444811146,-0.10220598008563053
13.18115144847818,-0.15288837788290063
13.214521452145213,-0.12556731619911252
13.247891455812248,-0.027322563139624702
13.28126145947928,0.10097811359663378
13.314631463146315,0.2042067193434088
13.348001466813347,0.24014572511639398
13.381371470480381,0.20091200562853698
13.414741474147414,0.11780188906515722
13.448111477814447,0.04694012372795734
13.481481481481481,0.04273530081751222
13.514851485148514,0.13212495322898915
13.548221488815548,0.30184449830078575
13.58159149248258,0.5040889989142654
13.614961496149615,0.6768718128694241
13.648331499816647,0.7689208071522421
13.681701503483682,0.7579810860604063
13.715071507150714,0.6556054740842886
13.748441510817747,0.49817550090624624
13.781811514484781,0.32968566835656954
13.815181518151814,0.18442329438431632
13.848551521818848,0.07649318482621495
13.88192152548588,-0.0007636916480144029
13.915291529152915,-0.0669660759289405
13.948661532819948,-0.14319782074895576
13.982031536486982,-0.24223296074201725
14.015401540154015,-0.36423220699178405
14.048771543821047,-0.4985981440527185
14.082141547488082,-0.6295992272930948
14.115511551155114,-0.7417422064153875
14.148881554822148,-0.8216690087064551
14.182251558489181,-0.8563245662361757
14.215621562156215,-0.8305067043154863
14.248991565823248,-0.7282179519694124
14.282361569490282,-0.540094659372612
14.315731573157315,-0.27454431650548744
14.349101576824348,0.033942250834866496
14.382471580491382,0.3264176044639074
14.415841584158414,0.5340871524532075
14.449211587825449,0.6020725954195159
14.482581591492481,0.512598139439121
14.515951595159516,0.2964565235858688
14.549321598826548,0.025932993169402483
14.582691602493583,-0.2093921124171926
14.616061606160615,-0.3344102572355706
14.649431609827648,-0.314460727503913
14.682801613494682,-0.16477499579805327
14.716171617161715,0.05958038022718151
14.749541620828749,0.2873537441505064
14.782911624495782,0.4570070266109699
14.816281628162816,0.5340488753045803
14.849651631829849,0.5146982303504689
14.883021635496883,0.4181788932683122
14.916391639163916,0.2748783824309049
14.94976164283095,0.11754666556959306
14.983131646497982,-0.0217716266514422
15.016501650165015,-0.11193909020233678
15.04987165383205,-0.12552095799577156
15.083241657499082,-0.04723825265253997
15.116611661166116,0.114649376461921
15.149981664833149,0.32163039648641406
15.183351668500183,0.5103725018934779
15.216721672167216,0.6118699988520703
15.25009167583425,0.5775519271019939
15.283461679501283,0.4002129213465391
15.316831683168315,0.11894139586899355
15.35020168683535,-0.1951930061407055
15.383571690502382,-0.4663601431957727
15.416941694169417,-0.6415698945906407
15.45031169783645,-0.7064741801171625
15.483681701503484,-0.6834863088241654
15.517051705170516,-0.6149615174340138
15.55042170883755,-0.5407514000397705
15.583791712504583,-0.48101712140047187
15.617161716171616,-0.43150606577997475
15.65053171983865,-0.3718401813175385
15.683901723505683,-0.2812019145346499
15.717271727172717,-0.1529665072103091
15.75064173083975,-0.001183354923419863
15.784011734506784,0.14384583980977736
15.817381738173816,0.24857096833567027
15.85075174184085,0.29173524240176874
15.884121745507883,0.2752550388144373
15.917491749174916,0.22497567320268183
15.95086175284195,0.18001102870358024
15.984231756508983,0.1746492113089249
16.017601760176017,0.2210183311989817
16.05097176384305,0.3015100974226187
16.084341767510082,0.3761228457366885
16.117711771177117,0.40250024548314556
16.15108177484415,0.35903032451145905
16.184451778511182,0.25834341042032843
16.217821782178216,0.14252347797842652
16.25119178584525,0.06097415077976688
16.284561789512285,0.042009550730648465
16.317931793179316,0.07382962618638647
16.35130179684635,0.10650206096289001
16.384671800513384,0.0758274042817652
16.41804180418042,-0.06172603825355499
16.45141180784745,-0.3002661768634834
16.484781811514484,-0.5770301975551553
16.51815181518152,-0.7917662693241599
16.55152181884855,-0.8459866402765294
16.584891822515583,-0.6856550980608084
16.618261826182618,-0.328758138725808
16.651631829849652,0.1346457697254838
16.685001833516683,0.570812564245771
16.718371837183717,0.8483990190608338
16.75174184085075,0.8846159933911296
16.785111844517782,0.6741466417921744
16.818481848184817,0.2904372092276524
16.85185185185185,-0.14057167347702504
16.885221855518886,-0.4841692897874103
16.918591859185916,-0.6418954246165587
16.95196186285295,-0.5817226451531211
16.985331866519985,-0.34332490530044246
17.01870187018702,-0.018114406069522866
17.05207187385405,0.28671333281817357
17.085441877521085,0.48541681969413336
17.11881188118812,0.5382874834853046
17.15218188485515,0.45604852057326045
17.185551888522184,0.28554914890679434
17.21892189218922,0.08565806893693236
17.252291895856253,-0.09511947775721726
17.285661899523284,-0.23069263521491098
17.319031903190318,-0.3168626319726937
