Frequency (Hz),Amplitude
0.0,5.384020325500794
0.019867549668874173,5.38198913861957
0.039735099337748346,5.37589901007584
0.059602649006622516,5.365760243311352
0.07947019867549669,5.35159003465902
0.09933774834437085,5.333412509670248
0.11920529801324503,5.31125877484493
0.13907284768211922,5.285166985650287
0.15894039735099338,5.255182431989293
0.17880794701986755,5.221357642569849
0.1986754966887417,5.18375250993517
0.2185430463576159,5.142434438248111
0.23841059602649006,5.0974785162793195
0.2582781456953642,5.0489677184343895
0.27814569536423844,4.99699313706946
0.2980132450331126,4.941654249787775
0.31788079470198677,4.883059225880492
0.33774834437086093,4.821325276566372
0.3576158940397351,4.75657905418927
0.3774834437086093,4.6889571060307516
0.3973509933774834,4.618606388864526
0.4172185430463576,4.545684850779435
0.4370860927152318,4.470362087074384
0.45695364238410596,4.392820077101684
0.4768211920529801,4.313254008694022
0.49668874172185434,4.231873196103037
0.5165562913907285,4.148902095995227
0.5364238410596026,4.064581423720184
0.5562913907284769,3.9791693684232166
0.5761589403973509,3.892942900155773
0.5960264900662252,3.8061991543623575
0.6158940397350993,3.71925686828748
0.6357615894039735,3.6324578291409018
0.6556291390728477,3.546168274406892
0.6754966887417219,3.4607801596496657
0.695364238410596,3.3767121779446136
0.7152317880794702,3.2944103775822207
0.7350993377483444,3.2143481818856494
0.7549668874172186,3.13702556943373
0.7748344370860927,3.062967129703306
0.7947019867549668,2.9927186763758415
0.8145695364238411,2.92684209028749
0.8344370860927152,2.8659080917438673
0.8543046357615894,2.810486725033094
0.8741721854304636,2.7611354918936866
0.8940397350993378,2.7183853028047085
0.9139072847682119,2.682724716764952
0.9337748344370861,2.6545832802255784
0.9536423841059603,2.6343150970806293
0.9735099337748344,2.6221839882410043
0.9933774834437087,2.618351654331095
1.0132450331125828,2.622870086307009
1.033112582781457,2.635679073877662
1.0529801324503312,2.6566090991403493
1.0728476821192052,2.685389281541734
1.0927152317880795,2.7216594872565048
1.1125827814569538,2.76498533713668
1.1324503311258278,2.8148746965579674
1.1523178807947019,2.8707943009055628
1.1721854304635762,2.9321854070908486
1.1920529801324504,2.9984776866232
1.2119205298013245,3.0691009144847023
1.2317880794701985,3.1434943052739177
1.2516556291390728,3.2211135742437818
1.271523178807947,3.3014359489534417
1.2913907284768211,3.3839634355384534
1.3112582781456954,3.4682246678496425
1.3311258278145695,3.553775655236451
1.3509933774834437,3.640199710825458
1.370860927152318,3.727106798467048
1.390728476821192,3.8141324910603878
1.410596026490066,3.900936690515464
1.4304635761589404,3.9872022226009722
1.4503311258278146,4.072633389196499
1.4701986754966887,4.156954535891509
1.4900662251655628,4.239908673818845
1.5099337748344372,4.321256180232481
1.5298013245033113,4.400773591767328
1.5496688741721854,4.478252496747015
1.5695364238410596,4.553498527641797
1.5894039735099337,4.626330451250464
1.609271523178808,4.696579351932312
1.6291390728476822,4.764087901893412
1.6490066225165563,4.828709711864807
1.6688741721854303,4.890308755297343
1.6887417218543048,4.948758859289523
1.7086092715231789,5.003943255752115
1.728476821192053,5.055754186720435
1.7483443708609272,5.104092558196757
1.7682119205298013,5.148867637405254
1.7880794701986755,5.189996788844574
1.8079470198675496,5.22740524501362
1.8278145695364238,5.261025908154031
1.847682119205298,5.2907991797940275
1.8675496688741722,5.3166728152900085
1.8874172185430464,5.338601800945199
1.9072847682119205,5.3565482516399126
1.9271523178807946,5.370481327238317
1.9470198675496688,5.380377166344408
1.9668874172185429,5.386218836268986
1.9867549668874174,5.3879962983430705
2.0066225165562916,5.385706387974402
2.0264900662251657,5.379352809096957
2.0463576158940397,5.368946142911184
2.066225165562914,5.354503871059548
2.086092715231788,5.336050413630543
2.1059602649006623,5.3136171826390965
2.1258278145695364,5.28724265189465
2.1456953642384105,5.256972444445159
2.165562913907285,5.222859439077839
2.185430463576159,5.184963897670307
2.205298013245033,5.143353615521517
2.2251655629139075,5.0981040971536125
2.2450331125827816,5.0492987604658595
2.2649006622516556,4.997029172541803
2.2847682119205297,4.941395320860186
2.3046357615894038,4.882505924137582
2.324503311258278,4.820478787529644
2.3443708609271523,4.755441207429003
2.364238410596027,4.687530431604417
2.384105960264901,4.616894180900763
2.403973509933775,4.543691239124878
2.423841059602649,4.4680921180201345
2.443708609271523,4.390279804302598
2.463576158940397,4.310450595478729
2.4834437086092715,4.228815030434103
2.5033112582781456,4.145598919360169
2.52317880794702,4.06104447519023
2.543046357615894,3.9754115449739413
2.562913907284768,3.888978934056767
2.5827814569536423,3.802045807949837
2.6026490066225163,3.7149331456579695
2.622516556291391,3.6279852031474698
2.642384105960265,3.5415709256893986
2.662251655629139,3.456085222162147
2.6821192052980134,3.371949982434699
2.7019867549668874,3.2896146806410203
2.7218543046357615,3.2095563635084168
2.741721854304636,3.1322787766448816
2.76158940397351,3.058310338069509
2.781456953642384,2.9882006358614017
2.801324503311258,2.9225151180213063
2.821192052980132,2.8618276734408212
2.8410596026490067,2.806710890947536
2.8609271523178808,2.7577239441831636
2.8807947019867552,2.715398290348312
2.9006622516556293,2.680221680699789
2.9205298013245033,2.652621326404836
2.9403973509933774,2.632947385375068
2.9602649006622515,2.621458156025859
2.9801324503311255,2.618308405004849
3.0,2.62354206756405
3.0198675496688745,2.637090143304979
3.0397350993377485,2.6587740306505356
3.0596026490066226,2.688313914011086
3.0794701986754967,2.7253412673423667
3.0993377483443707,2.769414171025766
3.119205298013245,2.82003400571357
3.1390728476821192,2.8766621751581276
3.1589403973509933,2.9387357610505984
3.1788079470198674,3.0056813467064036
3.198675496688742,3.0769265880808945
3.218543046357616,3.1519094062684663
3.23841059602649,3.2300848975861944
3.2582781456953644,3.3109302002399494
3.2781456953642385,3.3939476298674474
3.2980132450331126,3.4786664163838035
3.3178807947019866,3.564643359061546
3.3377483443708607,3.6514626808769766
3.3576158940397347,3.7387353183539798
3.3774834437086096,3.826097837172971
3.3973509933774837,3.913211121273839
3.4172185430463577,3.9997589463290995
3.437086092715232,4.085446518014908
3.456953642384106,4.1699990312581
3.47682119205298,4.253160287905538
3.4966887417218544,4.334691396177976
3.5165562913907285,4.414369564951662
3.5364238410596025,4.491986998549546
3.556291390728477,4.567349892629983
3.576158940397351,4.640277528366932
3.596026490066225,4.710601459972477
3.615894039735099,4.778164789370279
3.6357615894039736,4.842821521222529
3.6556291390728477,4.904435991345203
3.6754966887417218,4.962882361670907
3.695364238410596,5.018044175230455
3.7152317880794703,5.069813965048439
3.7350993377483444,5.1180929113320826
3.754966887417219,5.16279054184063
3.774834437086093,5.203824470831245
3.794701986754967,5.241120172471248
3.814569536423841,5.274610785076789
3.834437086092715,5.304236942980493
3.854304635761589,5.329946633243078
3.8741721854304636,5.351695074806913
3.8940397350993377,5.369444618044937
3.9139072847682117,5.38316466298863
3.9337748344370858,5.392831594826287
3.9536423841059607,5.398428735552395
3.9735099337748347,5.399946310922376
3.993377483443709,5.39738143212883
4.013245033112583,5.390738091869416
4.033112582781457,5.380027174725232
4.052980132450331,5.36526648201677
4.072847682119205,5.34648077155522
4.0927152317880795,5.323701812963343
4.112582781456953,5.2969684595070134
4.132450331125828,5.266326737658348
4.152317880794702,5.231829955908235
4.172185430463576,5.193538834664064
4.19205298013245,5.151521659409405
4.211920529801325,5.105854459671572
4.231788079470199,5.056621216740432
4.251655629139073,5.00391410351127
4.271523178807947,4.947833760284311
4.291390728476821,4.888489610842659
4.311258278145695,4.82600022364294
4.33112582781457,4.760493723478782
4.3509933774834435,4.6921082594993955
4.370860927152318,4.620992535957587
4.390728476821192,4.547306412483351
4.410596026490066,4.47122158097238
4.43046357615894,4.392922326260989
4.450331125827815,4.312606377512061
4.470198675496689,4.230485856501165
4.490066225165563,4.146788327548435
4.509933774834438,4.061757951398041
4.529801324503311,3.9756567415207633
4.549668874172186,3.8887659156123657
4.569536423841059,3.801387326865652
4.589403973509934,3.7138449481597924
4.6092715231788075,3.626486366776348
4.629139072847682,3.539684226690153
4.649006622516556,3.4538375290184713
4.66887417218543,3.369372668218241
4.688741721854305,3.2867440420687237
4.708609271523179,3.206434028435639
4.728476821192054,3.1289520741536805
4.748344370860927,3.054832596598984
4.768211920529802,2.984631365648922
4.788079470198675,2.918920025743838
4.80794701986755,2.858278451324251
4.827814569536423,2.8032847223701576
4.847682119205298,2.7545026759052966
4.867549668874172,2.7124672405723835
4.887417218543046,2.677668083395631
4.9072847682119205,2.650532454242555
4.927152317880794,2.631408441128619
4.947019867549669,2.6205500668790536
4.966887417218543,2.618105685330721
4.986754966887418,2.624110924070587
5.006622516556291,2.638486977108564
5.026490066225166,2.661044445934707
5.04635761589404,2.6914922813974216
5.066225165562914,2.7294508250356615
5.086092715231788,2.774467591216461
5.105960264900662,2.8260343167236393
5.125827814569536,2.883603914641097
5.14569536423841,2.946606239960085
5.1655629139072845,3.0144619220018294
5.185430463576159,3.086593867465332
5.205298013245033,3.162436334738449
5.225165562913908,3.241441699151637
5.245033112582782,3.3230851667581867
5.264900662251656,3.406867762031578
5.28476821192053,3.4923179300279177
5.304635761589404,3.5789920740968317
5.324503311258278,3.666474311462427
5.344370860927152,3.754375682331009
5.364238410596027,3.842333001146024
5.3841059602649,3.930007495569563
5.403973509933775,4.017083341792848
5.4238410596026485,4.103266174433014
5.443708609271523,4.188281625247654
5.463576158940397,4.27187392643909
5.483443708609272,4.353804600514191
5.503311258278146,4.433851248605128
5.52317880794702,4.511806442022729
5.543046357615895,4.58747671691352
5.562913907284768,4.6606816686573564
5.582781456953643,4.731253140628617
5.602649006622516,4.799034500804721
5.622516556291391,4.8638799991809725
5.642384105960264,4.925654198845828
5.662251655629139,4.984231473744072
5.682119205298013,5.0394955665045575
5.701986754966887,5.091339200161305
5.7218543046357615,5.139663738102565
5.741721854304636,5.184378887106223
5.7615894039735105,5.225402438840503
5.781456953642384,5.262660045711808
5.801324503311259,5.2960850274182905
5.821192052980132,5.325618205014913
5.841059602649007,5.351207759711774
5.860927152317881,5.372809114013198
5.880794701986755,5.390384833162563
5.900662251655629,5.403904545189402
5.920529801324503,5.413344878164929
5.940397350993377,5.418689413562293
5.960264900662251,5.419928654893091
5.980132450331126,5.417060011054951
6.0,5.410087794080374
6.0198675496688745,5.399023231228094
6.039735099337749,5.3838844916085495
6.059602649006623,5.36469672778857
6.079470198675497,5.341492133080176
6.099337748344371,5.3143100154895855
6.119205298013245,5.283196889586675
6.139072847682119,5.24820658785848
6.158940397350993,5.209400393434288
6.178807947019867,5.166847196419934
6.198675496688741,5.12062367645664
6.218543046357616,5.0708145145292205
6.23841059602649,5.017512637490474
6.258278145695365,4.960819499243874
6.2781456953642385,4.900845403033437
6.298013245033113,4.837709869822174
6.317880794701987,4.771542058289424
6.337748344370861,4.702481242525007
6.357615894039735,4.630677354018077
6.377483443708609,4.556291594990441
6.397350993377484,4.4794971304477835
6.417218543046357,4.400479866433773
6.437086092715232,4.319439321750188
6.456953642384105,4.236589599686059
6.47682119205298,4.15216046485396
6.496688741721854,4.066398527758979
6.516556291390729,3.979568535827063
6.5364238410596025,3.8919547637803324
6.556291390728477,3.8038624878222076
6.5761589403973515,3.7156195163012695
6.596026490066225,3.6275777334523838
6.6158940397351,3.5401145914868963
6.635761589403973,3.4536344587882257
6.655629139072848,3.3685696975918678
6.675496688741721,3.285381303241116
6.695364238410596,3.2045588900221245
6.715231788079469,3.126619758712488
6.735099337748344,3.052106734149971
6.754966887417219,2.98158442687388
6.774834437086093,2.9156335650017486
6.794701986754967,2.8548430786366312
6.814569536423841,2.7997997186620687
6.8344370860927155,2.7510751713084494
6.854304635761589,2.709210895690528
6.874172185430464,2.6747012507407044
6.894039735099337,2.64797585087252
6.913907284768212,2.6293824282782636
6.933774834437086,2.619171697308491
6.95364238410596,2.6174857299985637
6.973509933774834,2.6243511127362997
6.993377483443709,2.639677673977179
7.013245033112583,2.6632629318376866
7.033112582781457,2.6948017382276706
7.052980132450331,2.7339000327511647
7.072847682119205,2.7800912703335525
7.0927152317880795,2.832853993219192
7.112582781456954,2.8916291556189884
7.132450331125828,2.9558361059929164
7.152317880794702,3.0248864993352744
7.172185430463576,3.098195771889734
7.19205298013245,3.1751921111322696
7.211920529801324,3.255323070818227
7.231788079470198,3.338060113495452
7.251655629139073,3.4229014242583604
7.271523178807947,3.509373348515108
7.291390728476822,3.59703078193769
7.311258278145695,3.6854567981366877
7.33112582781457,3.7742617502824998
7.3509933774834435,3.8630820342075163
7.370860927152318,3.951578656585155
7.390728476821192,4.0394357144295645
7.410596026490066,4.126358861773019
7.430463576158941,4.212073815504906
7.450331125827814,4.296324934146356
7.470198675496689,4.378873889813082
7.490066225165562,4.459498443840755
7.509933774834438,4.537991329672941
7.52980132450331,4.61415924193806
7.549668874172186,4.6878219276010595
7.569536423841059,4.7588113732211355
7.589403973509934,4.8269710813382005
7.6092715231788075,4.892155428590709
7.629139072847682,4.954229098145808
7.649006622516557,5.013066579261857
7.66887417218543,5.0685517272038565
7.6887417218543055,5.120577377224513
7.708609271523178,5.169045006860303
7.728476821192054,5.213864441339492
7.748344370860927,5.25495359743821
7.768211920529802,5.292238261637219
7.788079470198675,5.325651898919924
7.80794701986755,5.355135489007196
7.827814569536423,5.380637387247395
7.847682119205298,5.402113207770289
7.8675496688741715,5.419525726875146
7.887417218543046,5.432844804958233
7.907284768211921,5.442047325596963
7.927152317880795,5.447117150700986
7.9470198675496695,5.448045090917787
7.966887417218543,5.444828890746379
7.986754966887418,5.437473228070381
8.006622516556291,5.42598972807606
8.026490066225167,5.410396991774212
8.046357615894038,5.39072063960245
8.066225165562914,5.366993370848879
8.086092715231787,5.339255039914199
8.105960264900663,5.307552750720685
8.125827814569536,5.271940970886611
8.14569536423841,5.23248166761846
8.165562913907285,5.189244467633355
8.185430463576159,5.142306843815319
8.205298013245034,5.09175433173276
8.225165562913906,5.037680779604867
8.245033112582782,4.980188635800326
8.264900662251655,4.919389278482853
8.28476821192053,4.855403392578784
8.304635761589404,4.788361399823017
8.324503311258278,4.718403948224345
8.344370860927151,4.6456824678521
8.364238410596027,4.570359800343687
8.3841059602649,4.492610909904439
8.403973509933774,4.412623683732473
8.42384105960265,4.33059982962651
8.443708609271523,4.2467558778535235
8.463576158940398,4.161324292930357
8.483443708609272,4.074554698492736
8.503311258278146,3.986715214468416
8.52317880794702,3.898093899796868
8.543046357615895,3.809000285263293
8.562913907284768,3.719766968804327
8.582781456953642,3.630751228926905
8.602649006622515,3.54233658960146
8.62251655629139,3.454934241128263
8.642384105960264,3.3689841852780886
8.66225165562914,3.284955929373628
8.682119205298013,3.203348504038451
8.701986754966887,3.124689526268399
8.721854304635762,3.0495329794743253
8.741721854304636,2.9784553454231695
8.76158940397351,2.9120497144161592
8.781456953642383,2.8509175386584644
8.801324503311259,2.7956578005577195
8.821192052980132,2.7468535604126516
8.841059602649008,2.7050561331137017
8.86092715231788,2.6707675064222927
8.880794701986755,2.6444220100755444
8.90066225165563,2.6263686007129445
8.920529801324504,2.616855348364728
8.940397350993377,2.616017707758287
8.960264900662251,2.623871883029711
8.980132450331126,2.640314065774645
9.0,2.6651256357273856
9.019867549668875,2.6979837038690397
9.039735099337747,2.738475798679289
9.059602649006623,2.7861171550984847
9.079470198675496,2.8403689991023313
9.099337748344372,2.9006563939785144
9.119205298013245,2.966384545678004
9.139072847682119,3.0369528586456824
9.158940397350994,3.1117664094471076
9.178807947019868,3.190244811593454
9.198675496688743,3.271828660038127
9.218543046357615,3.355983870134047
9.23841059602649,3.442204279233427
9.258278145695364,3.53001288030842
9.27814569536424,3.618962025762865
9.298013245033111,3.7086328919319675
9.317880794701987,3.7986344419224505
9.33774834437086,3.8886020735107536
9.357615894039736,3.9781960936037
9.37748344370861,4.067100122822741
9.397350993377483,4.155019503240645
9.417218543046358,4.241679758547362
9.437086092715232,4.326825137974127
9.456953642384107,4.41021726210496
9.47682119205298,4.491633879255706
9.496688741721854,4.570867734536376
9.516556291390728,4.647725549314886
9.536423841059603,4.722027105996198
9.556291390728477,4.79360443137567
9.57615894039735,4.86230107098006
9.596026490066224,4.9279714465222275
9.6158940397351,4.990480288680532
9.635761589403973,5.0497021377374525
9.655629139072847,5.105520905079588
9.675496688741722,5.157829489105942
9.695364238410596,5.206529439668856
9.715231788079471,5.25153066575212
9.735099337748345,5.292751181654258
9.754966887417218,5.330116887481422
9.774834437086092,5.363561380256719
9.794701986754967,5.393025792420031
9.814569536423841,5.4184586549239055
9.834437086092716,5.439815782528919
9.854304635761588,5.457060179269101
9.874172185430464,5.470161962397926
9.894039735099337,5.4790983034412815
9.913907284768213,5.48385338528065
9.933774834437086,5.484418374470389
9.95364238410596,5.480791408262418
9.973509933774835,5.472977596072897
9.993377483443709,5.460989035383695
10.013245033112582,5.444844842329147
10.033112582781456,5.424571197481122
10.052980132450331,5.400201407616129
10.072847682119205,5.371775984530883
10.09271523178808,5.339342742272404
10.112582781456952,5.302956914468888
10.132450331125828,5.262681293792705
10.152317880794701,5.2185863959611085
10.172185430463577,5.170750651087645
10.192052980132452,5.119260625640912
10.211920529801324,5.064211278750656
10.2317880794702,5.005706257124291
10.251655629139073,4.943858233400625
10.271523178807948,4.878789293365599
10.29139072847682,4.810631378080498
10.311258278145695,4.739526787607787
10.331125827814569,4.665628753638977
10.350993377483444,4.5891020888904
10.370860927152318,4.510123921575841
10.390728476821192,4.4288845235007095
10.410596026490065,4.345588240222335
10.43046357615894,4.260454531109482
10.450331125827816,4.173719125762183
10.470198675496688,4.085635300791926
10.490066225165563,3.996475276965711
10.509933774834437,3.9065317306114626
10.529801324503312,3.8161194042318667
10.549668874172186,3.72557678857801
10.56953642384106,3.635267830932929
10.589403973509933,3.5455836008825288
10.609271523178808,3.4569438142634863
10.629139072847682,3.3697980773960694
10.649006622516556,3.284626666938457
10.66887417218543,3.2019406068618683
10.688741721854305,3.1222807464817905
10.70860927152318,3.0462154888502613
10.728476821192054,2.9743367782238432
10.748344370860927,2.907253945054315
10.7682119205298,2.845585048032974
10.788079470198676,2.789945468361581
10.80794701986755,2.740933721288359
10.827814569536423,2.6991147610301325
10.847682119205297,2.665001450675609
10.867549668874172,2.6390352986967014
