Frequency (Hz),Amplitude
0.0,0.0566764303561591
0.019801980198019802,0.20014661173081108
0.039603960396039604,0.38788105477667933
0.0594059405940594,0.5778867028872479
0.07920792079207921,0.7680065490083933
0.09900990099009901,0.9576423069713844
0.1188118811881188,1.1464675732486656
0.13861386138613863,1.3342353082370195
0.15841584158415842,1.5207291707781272
0.1782178217821782,1.7057473146834499
0.19801980198019803,1.889095993662945
0.21782178217821782,2.0705867466091314
0.2376237623762376,2.2500350775192244
0.25742574257425743,2.427259825386142
0.27722772277227725,2.602082878406749
0.297029702970297,2.774329070878291
0.31683168316831684,2.943826181796331
0.33663366336633666,3.110404992164728
0.3564356435643564,3.2738993770458644
0.37623762376237624,3.4341464183974693
0.39603960396039606,3.590986530257016
0.4158415841584158,3.7442635909888393
0.43564356435643564,3.8938250791750058
0.45544554455445546,4.039522210868563
0.4752475247524752,4.181210076640374
0.495049504950495,4.3187477773083245
0.5148514851485149,4.451998557538301
0.5346534653465347,4.580829936708143
0.5544554455445545,4.705113836564286
0.5742574257425742,4.8247267052975475
0.594059405940594,4.9395496377337835
0.613861386138614,5.049468491385434
0.6336633663366337,5.15437399814795
0.6534653465346534,5.254161871453396
0.6732673267326733,5.348732908716559
0.6930693069306931,5.437993088926375
0.7128712871287128,5.521853665250757
0.7326732673267327,5.600231252535251
0.7524752475247525,5.673047909586909
0.7722772277227723,5.740231216144434
0.7920792079207921,5.801714344444342
0.8118811881188118,5.857436125301017
0.8316831683168316,5.907341108626204
0.8514851485148516,5.951379618320501
0.8712871287128713,5.989507801476661
0.891089108910891,6.0216876718410335
0.9108910891089109,6.047887147486081
0.9306930693069307,6.0680800826536405
0.9504950495049505,6.082246293734743
0.9702970297029703,6.090371579358219
0.99009900990099,6.0924477345668535
1.00990099009901,6.0884725590656945
1.0297029702970297,6.078449859533818
1.0495049504950495,6.0623894459969465
1.0693069306930694,6.040307122264319
1.0891089108910892,6.012224670439981
1.108910891089109,5.978169829524355
1.1287128712871286,5.9381762681286885
1.1485148514851484,5.892283551330989
1.1683168316831685,5.84053710170856
1.188118811881188,5.782988154588626
1.2079207920792079,5.719693707564981
1.227722772277228,5.650716464335195
1.2475247524752475,5.576124772919898
1.2673267326732673,5.495992558332147
1.2871287128712872,5.4103992497727065
1.3069306930693068,5.319429702434129
1.3267326732673268,5.223174114005138
1.3465346534653466,5.121727935975274
1.3663366336633662,5.01519177984965
1.3861386138613863,4.90367131839469
1.405940594059406,4.787277182048466
1.4257425742574257,4.666124850644298
1.4455445544554455,4.540334540614943
1.4653465346534653,4.410031087867564
1.4851485148514851,4.275343826549693
1.504950495049505,4.13640646396534
1.5247524752475248,3.9933569519529972
1.5445544554455446,3.8463373551103994
1.5643564356435644,3.69549371635274
1.5841584158415842,3.5409759204383624
1.6039603960396038,3.3829375563119393
1.6237623762376237,3.2215357794384847
1.6435643564356437,3.0569311757984288
1.6633663366336633,2.8892876299924932
1.683168316831683,2.718772201160003
1.7029702970297032,2.5455550124922475
1.7227722772277227,2.3698091636735517
1.7425742574257426,2.1917106818683187
1.7623762376237624,2.011438538453973
1.782178217821782,1.8291747810482288
1.801980198019802,1.6451048758987648
1.8217821782178218,1.4594184545557762
1.8415841584158414,1.27231089072322
1.8613861386138615,1.0839867323840018
1.881188118811881,0.8946677637707978
1.900990099009901,0.7046144855195999
1.920792079207921,0.5141958723341614
1.9405940594059405,0.32420562366612465
1.9603960396039604,0.13877927734569642
1.98019801980198,0.08484981452732544
2.0,0.26265303924253985
2.01980198019802,0.45209044365483486
2.0396039603960396,0.6425490802949086
2.0594059405940595,0.8328381600714531
2.0792079207920793,1.0225121547382883
2.099009900990099,1.2112872748925356
2.118811881188119,1.3989324153053964
2.1386138613861387,1.5852384219993594
2.1584158415841586,1.7700071738756364
2.1782178217821784,1.9530470949127472
2.1980198019801978,2.134171133318775
2.217821782178218,2.3131958090707134
2.237623762376238,2.4899407687483186
2.257425742574257,2.6642285991505963
2.2772277227722775,2.8358847805781897
2.297029702970297,3.0047377188563633
2.3168316831683167,3.170618823186588
2.336633663366337,3.3333626111917094
2.3564356435643563,3.4928068301574338
2.376237623762376,3.648792587734619
2.3960396039603964,3.801164487832988
2.4158415841584158,3.949770768911471
2.4356435643564356,4.094463442777876
2.455445544554456,4.235098432584263
2.4752475247524752,4.371535709074949
2.495049504950495,4.503639424390724
2.514851485148515,4.631278042898521
2.5346534653465347,4.754324468630852
2.5544554455445545,4.872656169000489
2.5742574257425743,4.986155294514008
2.594059405940594,5.094708794250923
2.6138613861386135,5.198208526907535
2.633663366336634,5.296551367229588
2.6534653465346536,5.389639307677502
2.673267326732673,5.477379555184265
2.6930693069306932,5.559684622879284
2.712871287128713,5.636472416663046
2.7326732673267324,5.707666316527558
2.7524752475247527,5.7731952525265475
2.7722772277227725,5.832993775307764
2.792079207920792,5.887002121127402
2.811881188118812,5.935166271274033
2.8316831683168315,5.9774380058364205
2.8514851485148514,6.01377495175653
2.8712871287128716,6.044140625115393
2.891089108910891,6.068504467606358
2.910891089108911,6.086841877156285
2.9306930693069306,6.099134232662044
2.9504950495049505,6.10536891281544
2.9702970297029703,6.105539308996527
2.99009900990099,6.099644832221004
3.00990099009901,6.087690914133993
3.0297029702970297,6.069689002048569
3.0495049504950495,6.045656548033496
3.0693069306930694,6.015616992061159
3.089108910891089,5.979599739232602
3.108910891089109,5.937640131103001
3.128712871287129,5.889779411136931
3.148514851485148,5.836064684329603
3.1683168316831685,5.776548871035785
3.1881188118811883,5.711290655055268
3.2079207920792077,5.640354426029807
3.227722772277228,5.563810216213169
3.2475247524752473,5.481733631682905
3.267326732673267,5.3942057780690424
3.2871287128712874,5.301313180882937
3.3069306930693068,5.203147700536509
3.3267326732673266,5.09980644215118
3.346534653465347,4.991391660264573
3.366336633663366,4.87801065855358
3.386138613861386,4.759775684704205
3.4059405940594063,4.63680382057253
3.4257425742574257,4.509216867798302
3.4455445544554455,4.377141229053571
3.4653465346534653,4.240707785136076
3.485148514851485,4.100051768152761
3.504950495049505,3.9553126310868185
3.5247524752475248,3.8066339141079943
3.5445544554455446,3.654163108079887
3.564356435643564,3.4980515158529846
3.5841584158415842,3.338454112132148
3.603960396039604,3.1755294030082752
3.6237623762376234,3.0094392867088313
3.6435643564356437,2.840348917857781
3.6633663366336635,2.668426578730427
3.683168316831683,2.4938435629886033
3.702970297029703,2.3167740808378086
3.722772277227723,2.137395200746362
3.7425742574257423,1.955886854459185
3.762376237623762,1.7724319548048697
3.7821782178217824,1.5872167231306629
3.801980198019802,1.4004314285860795
3.8217821782178216,1.2122719964483986
3.841584158415842,1.022943627187141
3.8613861386138613,0.8326696702790132
3.881188118811881,0.6417167491155144
3.9009900990099013,0.4504845177688545
3.9207920792079207,0.2599921976819664
3.9405940594059405,0.0796046974697454
3.96039603960396,0.1393653477474358
3.98019801980198,0.3268357886435123
4.0,0.5178869553748082
4.01980198019802,0.7091951870622923
4.03960396039604,0.9000901207956574
4.0594059405940595,1.090238544312221
4.079207920792079,1.2793936635849665
4.099009900990099,1.4673397085959263
4.118811881188119,1.653874873356104
4.138613861386139,1.8388049283858507
4.158415841584159,2.0219405203910608
4.178217821782178,2.203095950865707
4.198019801980198,2.382088616854636
4.217821782178218,2.5587387742159358
4.237623762376238,2.7328694685932913
4.257425742574258,2.904306558149
4.2772277227722775,3.0728787884345983
4.297029702970297,3.238417897622724
4.316831683168317,3.400758739575525
4.336633663366336,3.559739417249793
4.356435643564357,3.7152014217780773
4.376237623762377,3.8669897742278883
4.3960396039603955,4.01495316804508
4.415841584158416,4.158944110812121
4.435643564356436,4.298819064349021
4.455445544554455,4.434438582445413
4.475247524752476,4.5656674456853015
4.4950495049504955,4.692374792944805
4.514851485148514,4.814434249225819
4.534653465346535,4.931724049547754
4.554455445544555,5.044127158662331
4.574257425742574,5.151531386388767
4.594059405940594,5.2538294983914655
4.613861386138614,5.350919322241593
4.633663366336633,5.4427038486197485
4.653465346534653,5.529091327530173
4.673267326732674,5.609995359407778
4.693069306930693,5.685334981009542
4.712871287128713,5.755034745990372
4.732673267326733,5.819024800071749
4.752475247524752,5.877240950718847
4.772277227722772,5.929624731249442
4.792079207920793,5.976123459304286
4.811881188118812,6.016690289615715
4.8316831683168315,6.051284261017567
4.851485148514852,6.079870337646065
4.871287128712871,6.102419444287451
4.891089108910891,6.118908495834765
4.910891089108912,6.129320420822105
4.930693069306931,6.133644179011014
4.9504950495049505,6.131874773009932
4.97029702970297,6.124013253913801
4.99009900990099,6.110066720956879
5.00990099009901,6.090048315178326
5.02970297029703,6.063977207106004
5.0495049504950495,6.0318785784702
5.069306930693069,5.993783597965233
5.089108910891089,5.949729391082677
5.108910891089109,5.89975900404676
5.128712871287129,5.843921361888007
5.148514851485149,5.782271220697738
5.1683168316831685,5.714869114112294
5.188118811881188,5.641781294081911
5.207920792079208,5.56307966598572
5.227722772277227,5.4788417181607985
5.247524752475248,5.389150445919464
5.267326732673268,5.294094270136365
5.2871287128712865,5.193766950493566
5.306930693069307,5.088267493479316
5.326732673267327,4.977700055244646
5.346534653465346,4.862173839430111
5.366336633663367,4.741802990085443
5.3861386138613865,4.616706479815816
5.405940594059405,4.487007993302172
5.425742574257426,4.352835806359137
5.445544554455446,4.214322660715291
5.465346534653465,4.071605634726794
5.485148514851486,3.924826010271675
5.504950495049505,3.7741291361211498
5.524752475247524,3.6196642881535532
5.544554455445545,3.4615845268768775
5.564356435643565,3.30004655287355
5.584158415841584,3.1352105610054855
5.603960396039604,2.967240094565859
5.623762376237624,2.7963019011188486
5.643564356435643,2.6225657926787544
5.663366336633663,2.4462045144179907
5.683168316831684,2.2673936287838883
5.702970297029703,2.0863114267965672
5.7227722772277225,1.9031388875971849
5.742574257425743,1.7180597259210464
5.762376237623762,1.531260606731375
5.782178217821782,1.342931696748133
5.801980198019803,1.1532679490596578
5.821782178217822,0.962472151713186
5.841584158415841,0.7707628361250844
5.861386138613861,0.578398407758752
5.881188118811881,0.3857743074132685
5.900990099009901,0.19410010523467808
5.920792079207921,0.039699321206299085
5.9405940594059405,0.20174150891455156
5.96039603960396,0.39360029417776554
5.98019801980198,0.5863598961376342
6.0,0.7788904630113808
6.01980198019802,0.9708063827694956
6.03960396039604,1.1618513368825822
6.0594059405940595,1.3518071229789723
6.079207920792079,1.5404706797069796
6.099009900990099,1.727646495321289
6.118811881188119,1.9131436678356424
6.138613861386139,2.096774664354085
6.158415841584159,2.2783547899010417
6.178217821782178,2.457701983525743
6.198019801980198,2.634636777300074
6.217821782178218,2.8089823412356303
6.237623762376237,2.9805645754782066
6.257425742574258,3.1492122292123566
6.2772277227722775,3.314757034761442
6.297029702970296,3.4770338501405043
6.316831683168317,3.6358808059483394
6.336633663366337,3.791139453989997
6.356435643564356,3.9426549159123945
6.376237623762377,4.090276030680201
6.396039603960396,4.233855500060777
6.415841584158415,4.373250031507407
6.435643564356436,4.5083204779754915
6.455445544554456,4.638931974304747
6.475247524752475,4.764954069868791
6.495049504950495,4.8862608572417106
6.514851485148515,5.002731096666802
6.534653465346534,5.114248336138822
6.554455445544554,5.22070102693158
6.574257425742575,5.321982634419029
6.594059405940594,5.417991744050873
6.6138613861386135,5.508632162355325
6.633663366336634,5.593813012851004
6.653465346534653,5.673448826759035
6.673267326732673,5.74745962841369
6.693069306930694,5.815771015278178
6.712871287128713,5.878314232478297
6.732673267326732,5.935026241774121
6.752475247524753,5.985849784895746
6.772277227722772,6.030733441176245
6.792079207920792,6.069631679420614
6.811881188118813,6.102504903956026
6.8316831683168315,6.129319494814972
6.851485148514851,6.150047842008845
6.871287128712871,6.16466837385562
6.891089108910891,6.173165579331695
6.910891089108911,6.175530024423714
6.930693069306931,6.1717583624626595
6.9504950495049505,6.161853338428213
6.97029702970297,6.145823787217961
6.99009900990099,6.123684625881648
7.00990099009901,6.095456839827198
7.02970297029703,6.061167463010958
7.0495049504950495,6.020849552131003
7.069306930693069,5.974542154848137
7.089108910891089,5.9222902720654815
7.108910891089109,5.864144814303472
7.128712871287128,5.800162552213115
7.148514851485149,5.730406061276499
7.1683168316831685,5.654943660749256
7.188118811881187,5.573849346906136
7.207920792079208,5.487202720656318
7.227722772277228,5.395088909601667
7.247524752475247,5.297598484616763
7.267326732673268,5.194827371036021
7.287128712871287,5.086876754539258
7.306930693069306,4.97385298183383
7.326732673267327,4.855867456237719
7.346534653465347,4.733036528275735
7.366336633663366,4.605481381408138
7.3861386138613865,4.473327913019941
7.405940594059406,4.336706610808833
7.425742574257425,4.195752424721308
7.445544554455446,4.050604634600818
7.465346534653466,3.90140671372997
7.485148514851485,3.748306188472776
7.504950495049505,3.591454494256005
7.524752475247524,3.4310068281752124
7.544554455445544,3.267121998579603
7.564356435643565,3.099962272092828
7.584158415841584,2.9296932186869813
7.603960396039604,2.7564835556834666
7.623762376237624,2.5805049919774836
7.643564356435643,2.401932074504949
7.663366336633663,2.2209420402492057
7.683168316831684,2.037714679442509
7.702970297029703,1.8524322201758985
7.7227722772277225,1.6652792539397034
7.742574257425743,1.4764427418996657
7.762376237623762,1.2861121895180154
7.782178217821782,1.094480201312725
7.801980198019803,0.901743992955663
7.821782178217822,0.7081097082861444
7.841584158415841,0.5138069979026193
7.861386138613862,0.3191577573850869
7.881188118811881,0.12528924879122627
7.900990099009901,0.07674078283657482
7.92079207920792,0.26929182241949573
7.9405940594059405,0.46407082896357504
7.96039603960396,0.6587068829522107
7.980198019801979,0.8528135386874581
8.0,1.0461483230172002
8.01980198019802,1.2385005426099807
8.03960396039604,1.4296704569554979
8.05940594059406,1.6194635030185767
8.07920792079208,1.8076883359953608
8.099009900990099,1.9941561110047303
8.118811881188119,2.178680241157141
8.138613861386139,2.36107636152652
8.158415841584159,2.5411623902104052
8.178217821782178,2.718758638119872
8.198019801980198,2.8936879442104906
8.217821782178218,3.065775824157706
8.237623762376238,3.234850625924726
8.257425742574258,3.4007436884499045
8.277227722772277,3.563289501169826
8.297029702970297,3.722325862927598
8.316831683168317,3.8776940392987256
8.336633663366337,4.029238917658013
8.356435643564357,4.176809159490393
8.376237623762377,4.320257349563698
8.396039603960396,4.459440141656879
8.415841584158416,4.594218400588383
8.435643564356436,4.724457340324945
8.455445544554456,4.850026657977088
8.475247524752476,4.970800663506666
8.495049504950495,5.0866584049868075
8.514851485148515,5.1974837892667844
8.534653465346535,5.303165697904102
8.554455445544555,5.403598098235102
8.574257425742575,5.498680149462927
8.594059405940595,5.588316303649058
8.613861386138613,5.672416401501096
8.633663366336634,5.750895762856093
8.653465346534654,5.823675271764807
8.673267326732672,5.8906814560884175
8.693069306930694,5.951846561525194
8.712871287128714,6.007108619990673
8.732673267326732,6.056411512280637
8.752475247524753,6.099705024952429
8.772277227722773,6.1369449013657436
8.792079207920791,6.168092886830345
8.811881188118813,6.193116767813732
8.831683168316832,6.21199040516827
8.85148514851485,6.2246937613428575
8.871287128712872,6.231212921550383
8.891089108910892,6.231540108868617
8.91089108910891,6.225673693257617
8.930693069306932,6.2136181944832085
8.950495049504951,6.195384278942365
8.97029702970297,6.170988750391636
8.990099009900991,6.140454534586839
9.00990099009901,6.103810657847331
9.029702970297029,6.061092219565006
9.04950495049505,6.012340358683575
9.06930693069307,5.9576022141802145
9.089108910891088,5.8969308795870825
9.10891089108911,5.830385351596679
9.12871287128713,5.758030472800461
9.148514851485148,5.6799368686162826
9.16831683168317,5.596180878465802
9.188118811881187,5.50684448126874
9.207920792079207,5.412015215326802
9.227722772277229,5.311786092675215
9.247524752475247,5.206255507985758
9.267326732673267,5.095527142110376
9.287128712871288,4.97970986035984
9.306930693069306,4.858917605617385
9.326732673267326,4.733269286392093
9.346534653465348,4.602888659922275
9.366336633663366,4.4679042104438
9.386138613861386,4.3284490227434045
9.405940594059407,4.184660651121804
9.425742574257425,4.036680983896304
9.445544554455445,3.8846561035771394
9.465346534653467,3.7287361428567163
9.485148514851485,3.5690751365555773
9.504950495049505,3.4058308696740296
9.524752475247526,3.2391647217032333
9.544554455445544,3.069241507356005
9.564356435643564,2.896229313884007
9.584158415841586,2.720299335157236
9.603960396039604,2.541625702694001
9.623762376237623,2.360385313848801
9.643564356435645,2.176757657396753
9.663366336633663,1.9909246368100948
9.683168316831683,1.8030703916302426
9.702970297029704,1.6133811175626627
9.722772277227723,1.4220448864180741
9.742574257425742,1.2292514682309932
9.762376237623764,1.0351921611511015
9.782178217821782,0.8400596448523312
9.801980198019802,0.6440479113084925
9.821782178217823,0.4473525161772524
9.841584158415841,0.25017292901488797
9.861386138613861,0.05277203489499576
9.881188118811881,0.14495291843634614
9.900990099009901,0.34241473221694135
9.92079207920792,0.5395983344617538
9.94059405940594,0.7362947936142233
9.96039603960396,0.9323065523724867
9.98019801980198,1.1274380868622906
10.0,1.3214950613904737
10.01980198019802,1.5142842884229324
10.03960396039604,1.7056138475840252
10.05940594059406,1.8952932484301566
10.07920792079208,2.083133607506316
10.099009900990099,2.268947830173783
10.118811881188119,2.4525507935563016
10.138613861386139,2.6337595289730005
10.158415841584159,2.8123934030132633
10.178217821782178,2.988274296747727
10.198019801980198,3.1612267827266067
10.217821782178218,3.331078299495743
10.237623762376238,3.497659323403084
10.257425742574258,3.6608035374926104
10.277227722772277,3.8203479972978323
10.297029702970297,3.97613329335726
10.316831683168317,4.128003710281876
10.336633663366337,4.275807382210615
10.356435643564357,4.419396444495186
10.376237623762377,4.558627181460339
10.396039603960396,4.693360170090356
10.415841584158416,4.823460419496976
10.435643564356436,4.948797506028483
10.455445544554454,5.069245703884205
10.475247524752476,5.184684111103272
10.495049504950495,5.294996770801165
10.514851485148514,5.400072787532331
10.534653465346535,5.499806438662006
10.554455445544555,5.594097280635402
10.574257425742573,5.682850250037412
10.594059405940595,5.765975759341211
10.613861386138614,5.843389787249289
10.633663366336632,5.915013963536072
10.653465346534654,5.980775648306304
10.673267326732674,6.04060800558928
10.693069306930692,6.094450071194467
10.712871287128714,6.14224681475966
10.732673267326733,6.183949195928722
10.752475247524751,6.219514214601646
10.772277227722773,6.248904955205639
10.792079207920793,6.272090624941821
10.81188118811881,6.289046585968013
