Frequency (Hz),Amplitude
0.0,4.016568800309158
0.019801980198019802,4.014911671223302
0.039603960396039604,4.009942801647133
0.0594059405940594,4.001669749389273
0.07920792079207921,3.990105126785136
0.09900990099009901,3.97526662504833
0.1188118811881188,3.957177049111984
0.13861386138613863,3.935864363727047
0.15841584158415842,3.9113617518332786
0.1782178217821782,3.8837076864861344
0.19801980198019803,3.852946017920336
0.21782178217821782,3.8191260776596283
0.2376237623762376,3.782302801954465
0.25742574257425743,3.7425368772481287
0.27722772277227725,3.6998949108488217
0.297029702970297,3.6544496305285357
0.31683168316831684,3.606280117389536
0.33663366336633666,3.5554720770454993
0.3564356435643564,3.502118154968456
0.37623762376237624,3.446318302762476
0.39603960396039606,3.3881802031478814
0.4158415841584158,3.3278197625778474
0.43564356435643564,3.2653616816554236
0.45544554455445546,3.200940114853654
0.4752475247524752,3.134699432424712
0.495049504950495,3.0667950987375043
0.5148514851485149,2.997394682487697
0.5346534653465347,2.9266790150776045
0.5544554455445545,2.854843513664096
0.5742574257425742,2.7820996844627155
0.594059405940594,2.7086768192088986
0.613861386138614,2.634823892253152
0.6336633663366337,2.560811656275571
0.6534653465346534,2.486934919229199
0.6732673267326733,2.4135149615014497
0.6930693069306931,2.3409020174743036
0.7128712871287128,2.2694776962981833
0.7326732673267327,2.199657149387825
0.7524752475247525,2.1318907044658415
0.7722772277227723,2.066664578163705
0.7920792079207921,2.004500156970778
0.8118811881188118,1.9459512148354134
0.8316831683168316,1.8915983439845057
0.8514851485148516,1.8420398596795633
0.8712871287128713,1.797878561410813
0.891089108910891,1.7597040583372152
0.9108910891089109,1.7280709396725085
0.9306930693069307,1.7034738739266326
0.9504950495049505,1.6863216359809006
0.9702970297029703,1.676912856065132
0.99009900990099,1.675416661677989
1.00990099009901,1.681861092718156
1.0297029702970297,1.6961311509137063
1.0495049504950495,1.7179768059165033
1.0693069306930694,1.7470296483362104
1.0891089108910892,1.7828256214908766
1.108910891089109,1.8248306854824805
1.1287128712871286,1.8724664091302927
1.1485148514851484,1.925133154966172
1.1683168316831685,1.9822294239801457
1.188118811881188,2.043166793280072
1.2079207920792079,2.107380548050819
1.227722772277228,2.1743365269165524
1.2475247524752475,2.243534892612017
1.2673267326732673,2.3145115691498717
1.2871287128712872,2.386838017818422
1.3069306930693068,2.4601199100771898
1.3267326732673268,2.5339951311146196
1.3465346534653466,2.608131433441877
1.3663366336633662,2.682223964257831
1.3861386138613863,2.755992815392986
1.405940594059406,2.8291806887637874
1.4257425742574257,2.90155073028031
1.4455445544554455,2.972884557604274
1.4653465346534653,3.042980488917123
1.4851485148514851,3.1116519683424144
1.504950495049505,3.178726176855309
1.5247524752475248,3.244042813899996
1.5445544554455446,3.3074530334295376
1.5643564356435644,3.368818517917249
1.5841584158415842,3.4280106745307037
1.6039603960396038,3.484909938753449
1.6237623762376237,3.539405172052345
1.6435643564356437,3.5913931415685654
1.6633663366336633,3.640778071168124
1.683168316831683,3.6874712544703905
1.7029702970297032,3.731390721652273
1.7227722772277227,3.7724609528921342
1.7425742574257426,3.810612632270102
1.7623762376237624,3.8457824367831144
1.782178217821782,3.8779128558766733
1.801980198019802,3.906952037545944
1.8217821782178218,3.932853657630584
1.8415841584158414,3.955576809428147
1.8613861386138615,3.975085911191998
1.881188118811881,3.991350629467657
1.900990099009901,4.004345816566793
1.920792079207921,4.01405146078648
1.9405940594059405,4.020452648260117
1.9603960396039604,4.023539535581432
1.98019801980198,4.023307332579599
2.0,4.019756294846998
2.01980198019802,4.012891725835992
2.0396039603960396,4.002723988552294
2.0594059405940595,3.989268527084055
2.0792079207920793,3.9725458984226747
2.099009900990099,3.95258181525732
2.118811881188119,3.929407200666714
2.1386138613861387,3.903058255891686
2.1584158415841586,3.8735765426582742
2.1782178217821784,3.8410090818382656
2.1980198019801978,3.805408470589453
2.217821782178218,3.7668330205190754
2.237623762376238,3.725346919868945
2.257425742574257,3.6810204232385844
2.2772277227722775,3.633930072953259
2.297029702970297,3.5841589568577956
2.3168316831683167,3.5317970080827963
2.336633663366337,3.476941353200486
2.3564356435643563,3.419696716166226
2.376237623762376,3.3601758865371165
2.3960396039603964,3.2985002616644614
2.4158415841584158,3.234800473859724
2.4356435643564356,3.1692171149016732
2.455445544554456,3.101901571623021
2.4752475247524752,3.0330169875858086
2.495049504950495,2.962739366858205
2.514851485148515,2.8912588363795164
2.5346534653465347,2.818781082953442
2.5544554455445545,2.745528978956457
2.5742574257425743,2.6717444065560234
2.594059405940594,2.5976902824133465
2.6138613861386135,2.5236527718846977
2.633663366336634,2.449943661482843
2.6534653465346536,2.3769028280985056
2.673267326732673,2.30490069998308
2.6930693069306932,2.2343405443255904
2.712871287128713,2.1656603365027367
2.7326732673267324,2.0993338657458676
2.7524752475247527,2.0358706143506087
2.7722772277227725,1.975813823747027
2.792079207920792,1.919736053997869
2.811881188118812,1.8682314929796922
2.8316831683168315,1.8219043339054493
2.8514851485148514,1.7813527810821435
2.8712871287128716,1.7471487197442097
2.891089108910891,1.7198138071994682
2.910891089108911,1.6997936330653127
2.9306930693069306,1.6874324663866564
2.9504950495049505,1.6829516755101055
2.9702970297029703,1.6864348898793606
2.99009900990099,1.6978222251287132
3.00990099009901,1.7169145175350327
3.0297029702970297,1.7433868673054562
3.0495049504950495,1.776809345783838
3.0693069306930694,1.8166718650321882
3.089108910891089,1.8624100844789062
3.108910891089109,1.9134297245646366
3.128712871287129,1.9691275002329645
3.148514851485148,2.0289077887882514
3.1683168316831685,2.092194900686629
3.1881188118811883,2.158441335709313
3.2079207920792077,2.227132680847855
3.227722772277228,2.297789891638561
3.2475247524752473,2.3699696617527928
3.267326732673267,2.443263484795885
3.2871287128712874,2.517295889465667
3.3069306930693068,2.5917222099264836
3.3267326732673266,2.6662261501035407
3.346534653465347,2.7405173178311952
3.366336633663366,2.8143288418808674
3.386138613861386,2.8874151391268574
3.4059405940594063,2.9595498670744242
3.4257425742574257,3.030524075397667
3.4455445544554455,3.1001445562146164
3.4653465346534653,3.1682323843357905
3.485148514851485,3.234621633967809
3.504950495049505,3.299158256096639
3.5247524752475248,3.361699100130096
3.5445544554455446,3.4221110637333956
3.564356435643564,3.4802703557239614
3.5841584158415842,3.5360618581271104
3.603960396039604,3.589378574850832
3.6237623762376234,3.6401211558047146
3.6435643564356437,3.6881974865989062
3.6633663366336635,3.733522335176427
3.683168316831683,3.7760170478406425
3.702970297029703,3.8156092881342887
3.722772277227723,3.852232812909547
3.7425742574257423,3.885827280709126
3.762376237623762,3.916338088263283
3.7821782178217824,3.943716231509641
3.801980198019802,3.96791818806974
3.8217821782178216,3.98890581858003
3.841584158415842,4.0066462846831
3.8613861386138613,4.0211119818467935
3.881188118811881,4.032280485501377
3.9009900990099013,4.040134509275536
3.9207920792079207,4.044661874376087
3.9405940594059405,4.04585548940081
3.96039603960396,4.043713340102208
3.98019801980198,4.038238488839421
4.0,4.029439083668289
4.01980198019802,4.017328377231603
4.03960396039604,4.0019247558276305
4.0594059405940595,3.983251779257964
4.079207920792079,3.961338232292519
4.099009900990099,3.936218188843273
4.118811881188119,3.907931090215669
4.138613861386139,3.8765218391133387
4.158415841584159,3.8420409114134206
4.178217821782178,3.8045444881152406
4.198019801980198,3.764094610300488
4.217821782178218,3.7207593604386697
4.237623762376238,3.6746130739358343
4.257425742574258,3.625736585467773
4.2772277227722775,3.5742175153715348
4.297029702970297,3.520150602200281
4.316831683168317,3.4636380884854967
4.336633663366336,3.4047901678018966
4.356435643564357,3.343725502393586
4.376237623762377,3.2805718218860807
4.3960396039603955,3.2154666149502886
4.415841584158416,3.1485579271526265
4.435643564356436,3.080005279532346
4.455445544554455,3.0099807235497615
4.475247524752476,2.938670048723313
4.4950495049504955,2.8662741591773377
4.514851485148514,2.793010633948427
4.534653465346535,2.719115482508869
4.554455445544555,2.6448451005154605
4.574257425742574,2.570478419834433
4.594059405940594,2.4963192294889964
4.613861386138614,2.4226986178302163
4.633663366336633,2.349977447905128
4.653465346534653,2.2785487243172504
4.673267326732674,2.208839637671495
4.693069306930693,2.1413129801279482
4.712871287128713,2.0764675141180198
4.732673267326733,2.0148367537247553
4.752475247524752,1.956985502852125
4.772277227722772,1.9035034190567945
4.792079207920793,1.8549948867374833
4.811881188118812,1.8120646515962824
4.8316831683168315,1.7752990519315883
4.851485148514852,1.7452433127855633
4.871287128712871,1.722376206534639
4.891089108910891,1.7070842824748718
4.910891089108912,1.6996385770676268
4.930693069306931,1.7001769426143323
4.9504950495049505,1.7086946643792478
4.97029702970297,1.7250448769861475
4.99009900990099,1.7489487070692091
5.00990099009901,1.780013506871474
5.02970297029703,1.817756439470348
5.0495049504950495,1.8616302746043474
5.069306930693069,1.911048533791389
5.089108910891089,1.9654078605409784
5.108910891089109,2.0241063924876843
5.128712871287129,2.086557734273741
5.148514851485149,2.1522007377993884
5.1683168316831685,2.2205056584670158
5.188118811881188,2.2909774078926084
5.207920792079208,2.3631566282128866
5.227722772277227,2.436619232954792
5.247524752475248,2.5109749427903387
5.267326732673268,2.585865222797887
5.2871287128712865,2.6609609182018987
5.306930693069307,2.7359597950650216
5.326732673267327,2.8105841221278305
5.346534653465346,2.8845783779236123
5.366336633663367,2.957707130230677
5.3861386138613865,3.0297531095182615
5.405940594059405,3.10051548131114
5.425742574257426,3.1698083119065266
5.445544554455446,3.237459215736868
5.465346534653465,3.3033081694832735
5.485148514851486,3.3672064767915977
5.504950495049505,3.429015867416788
5.524752475247524,3.4886077153288135
5.544554455445545,3.545862361428334
5.564356435643565,3.600668527824472
5.584158415841584,3.652922811985513
5.603960396039604,3.7025292504003082
5.623762376237624,3.749398942638402
5.643564356435643,3.7934497278439623
5.663366336633663,3.834605906734837
5.683168316831684,3.8727980031025724
5.702970297029703,3.907962559628093
5.7227722772277225,3.94004196354914
5.742574257425743,3.9689842983490804
5.762376237623762,3.9947432181929767
5.782178217821782,4.017277842325177
5.801980198019803,4.036552667072914
5.821782178217822,4.05253749348063
5.841584158415841,4.065207368938528
5.861386138613861,4.074542541472362
5.881188118811881,4.0805284256371355
5.900990099009901,4.083155579210333
5.920792079207921,4.082419690116396
5.9405940594059405,4.078321573238013
5.96039603960396,4.070867176986732
5.98019801980198,4.0600675997192495
6.0,4.0459391163017315
6.01980198019802,4.028503215346571
6.03960396039604,4.007786647879497
6.0594059405940595,3.9838214884439997
6.079207920792079,3.9566452099207163
6.099009900990099,3.9263007736373092
6.118811881188119,3.8928367366747607
6.138613861386139,3.8563073786480038
6.158415841584159,3.816772850657706
6.178217821782178,3.774299349585576
6.198019801980198,3.7289593214472365
6.217821782178218,3.680831698132125
6.237623762376237,3.6300021725627967
6.257425742574258,3.576563518101153
6.2772277227722775,3.520615958930987
6.297029702970296,3.4622675991555214
6.316831683168317,3.401634919470758
6.336633663366337,3.3388433515014615
6.356435643564356,3.27402794119629
6.376237623762377,3.2073341140309064
6.396039603960396,3.138918556087826
6.415841584158415,3.068950226247293
6.435643564356436,2.997611515538913
6.455445544554456,2.9250995698711266
6.475247524752475,2.851627791429215
6.495049504950495,2.7774275313608996
6.514851485148515,2.702749981023264
6.534653465346534,2.627868259753176
6.554455445544554,2.553079682094866
6.574257425742575,2.4787081643932267
6.594059405940594,2.4051066968096
6.6138613861386135,2.3326597588924867
6.633663366336634,2.261785491574349
6.653465346534653,2.1929373534828183
6.673267326732673,2.1266048848682777
6.693069306930694,2.0633130835191036
6.712871287128713,2.0036197778497047
6.732673267326732,1.9481102900775928
6.752475247524753,1.897388660530037
6.772277227722772,1.8520648113499878
6.792079207920792,1.8127373280387808
6.811881188118813,1.7799720756814872
6.8316831683168315,1.7542776332761472
6.851485148514851,1.7360794201539191
6.871287128712871,1.7256951893998893
6.891089108910891,1.723314989759809
6.910891089108911,1.7289884974239176
6.930693069306931,1.7426217068811474
6.9504950495049505,1.7639835148870915
6.97029702970297,1.7927211245394286
6.99009900990099,1.8283818938566896
7.00990099009901,1.870438581509531
7.02970297029703,1.9183149788250327
7.0495049504950495,1.9714095045443167
7.069306930693069,2.029115198943409
7.089108910891089,2.090835418609588
7.108910891089109,2.1559952259407895
7.128712871287128,2.2240489203901017
7.148514851485149,2.294484385284655
7.1683168316831685,2.3668249798207484
7.188118811881187,2.440629654340201
7.207920792079208,2.5154918620764652
7.227722772277228,2.5910377197700822
7.247524752475247,2.666923755028631
7.267326732673268,2.742834480601086
7.287128712871287,2.8184799579816886
7.306930693069306,2.8935934539884127
7.326732673267327,2.967929251369635
7.346534653465347,3.041260644773488
7.366336633663366,3.113378133453954
7.3861386138613865,3.184087809253442
7.405940594059406,3.253209930611508
7.425742574257425,3.320577669027533
7.445544554455446,3.3860360123982542
7.465346534653466,3.449440809137342
7.485148514851485,3.510657937393653
7.504950495049505,3.5695625846266377
7.524752475247524,3.626038624015283
7.544554455445544,3.6799780755030187
7.564356435643565,3.7312806406111187
7.584158415841584,3.779853301425977
7.603960396039604,3.825609975347621
7.623762376237624,3.868471218262225
7.643564356435643,3.9083639697668233
7.663366336633663,3.9452213349331813
7.683168316831684,3.9789823978558636
7.702970297029703,4.009592062897525
7.7227722772277225,4.037000920131204
7.742574257425743,4.061165131994734
7.762376237623762,4.0820463386262835
7.782178217821782,4.099611579751342
7.801980198019803,4.11383323134721
7.821782178217822,4.124688955630482
7.841584158415841,4.132161663200508
7.861386138613862,4.136239486436083
7.881188118811881,4.136915763486611
7.900990099009901,4.134189032429878
7.92079207920792,4.128063035390381
7.9405940594059405,4.118546732629388
7.96039603960396,4.105654326835562
7.980198019801979,4.089405298067457
8.0,4.069824450030908
8.01980198019802,4.046941968620902
8.03960396039604,4.020793493922692
8.05940594059406,3.9914202071584066
8.07920792079208,3.958868934386981
8.099009900990099,3.923192269125925
8.118811881188119,3.8844487164682624
8.138613861386139,3.8427028617273895
8.158415841584159,3.7980255671639025
8.178217821782178,3.7504942009409574
8.198019801980198,3.7001929031297904
8.217821782178218,3.6472128943525797
8.237623762376238,3.5916528335155733
8.257425742574258,3.5336192320583852
8.277227722772277,3.4732269332274606
8.297029702970297,3.4105996660687103
8.316831683168317,3.3458706851099786
8.336633663366337,3.279183508033119
8.356435643564357,3.210692764953979
8.376237623762377,3.140565174130396
8.396039603960396,3.0689806598318583
8.415841584158416,2.9961336284675704
8.435643564356436,2.9222344184873235
8.455445544554456,2.847510937463816
8.475247524752476,2.7722104953062487
8.495049504950495,2.6966018345839435
8.514851485148515,2.6209773458731207
8.534653465346535,2.5456554357982517
8.554455445544555,2.4709829854004983
8.574257425742575,2.397337793545396
8.594059405940595,2.3251308410277733
8.613861386138613,2.254808133135022
8.633663366336634,2.186851780853068
8.653465346534654,2.1217798669415515
8.673267326732672,2.0601445234678053
8.693069306930694,2.0025275442614814
8.712871287128714,1.9495328064819195
8.732673267326732,1.9017748333200513
8.752475247524753,1.8598630574348292
8.772277227722773,1.8243817957188444
8.792079207920791,1.7958666329219384
8.811881188118813,1.7747787668600168
8.831683168316832,1.7614797176191712
8.85148514851485,1.756209384259064
8.871287128712872,1.7590704725527384
8.891089108910892,1.7700216614746467
8.91089108910891,1.788880598206576
8.930693069306932,1.815336228409334
8.950495049504951,1.8489685262650204
8.97029702970297,1.889272772759804
8.990099009900991,1.935685312220196
9.00990099009901,1.9876081189221657
9.029702970297029,2.0444302844215243
9.04950495049505,2.105545413207555
9.06930693069307,2.1703646769123854
9.089108910891088,2.23832581921393
9.10891089108911,2.308898711183751
9.12871287128713,2.3815881723648706
9.148514851485148,2.4559347582000086
9.16831683168317,2.531514127460266
9.188118811881187,2.6079354874807485
9.207920792079207,2.684839497823077
9.227722772277229,2.76189590901072
9.247524752475247,2.838801127908092
9.267326732673267,2.9152758355872366
9.287128712871288,2.9910627349793684
9.306930693069306,3.0659244711169062
9.326732673267326,3.1396417431576302
9.346534653465348,3.2120116118503947
9.366336633663366,3.2828459963765475
9.386138613861386,3.351970348827962
9.405940594059407,3.419222491658155
9.425742574257425,3.4844516023236767
9.445544554455445,3.5475173293577487
9.465346534653467,3.6082890248288613
9.485148514851485,3.6666450792269183
9.504950495049505,3.722472346086398
9.524752475247526,3.7756656449709465
9.544554455445544,3.826127332729268
9.564356435643564,3.873766934141751
9.584158415841586,3.918500824189473
9.603960396039604,3.960251955182365
9.623762376237623,3.9989496228814447
9.643564356435645,4.034529266547507
9.663366336633663,4.066932298551406
9.683168316831683,4.0961059598004645
9.702970297029704,4.122003197780317
9.722772277227723,4.144582564490789
9.742574257425742,4.16380813197818
9.762376237623764,4.179649423541995
9.782178217821782,4.192081359030167
9.801980198019802,4.20108421293883
9.821782178217823,4.206643584309038
9.841584158415841,4.208750377666666
9.861386138613861,4.207400794491562
9.881188118811881,4.202596334929015
9.900990099009901,4.194343809680058
9.92079207920792,4.182655362226711
9.94059405940594,4.1675485017737115
9.96039603960396,4.1490461475191
9.98019801980198,4.127176685111864
10.0,4.101974036416994
10.01980198019802,4.073477743994789
10.03960396039604,4.041733072016426
10.05940594059406,4.006791125689564
10.07920792079208,3.9687089916616736
10.099009900990099,3.927549902314812
10.118811881188119,3.883383427369619
10.138613861386139,3.8362856967903056
10.158415841584159,3.7863396596336094
10.178217821782178,3.733635384224166
10.198019801980198,3.6782704058745637
10.217821782178218,3.6203501293080667
10.237623762376238,3.559988293988551
10.257425742574258,3.4973075117139816
10.277227722772277,3.432439887071703
10.297029702970297,3.3655277326579447
10.316831683168317,3.296724392273208
10.336633663366337,3.2261951865273386
10.356435643564357,3.1541184962700894
10.376237623762377,3.080686999773008
10.396039603960396,3.0061090792729765
10.415841584158416,2.9306104108299564
10.435643564356436,2.85443574770563
10.455445544554454,2.777850900590036
10.475247524752476,2.7011449065537403
10.495049504950495,2.624632360680976
10.514851485148514,2.548655857518027
10.534653465346535,2.4735884508403134
10.554455445544555,2.3998359866236387
10.574257425742573,2.3278390926095662
10.594059405940595,2.258074516985547
10.613861386138614,2.1910554002639
10.633663366336632,2.127329946445213
10.653465346534654,2.0674778499836384
10.673267326732674,2.0121037657725966
10.693069306930692,1.9618271279354722
10.712871287128714,1.9172677893167318
10.732673267326733,1.8790273251184861
10.752475247524751,1.8476664500304887
10.772277227722773,1.8236798012345006
