Frequency (Hz),Amplitude
0.0,10.985856993220578
0.01978021978021978,10.987905874008813
0.03956043956043956,10.994042166416913
0.05934065934065934,11.00423490994714
0.07912087912087912,11.018432799950423
0.0989010989010989,11.036564625918373
0.11868131868131868,11.058539873360687
0.13846153846153844,11.08424947805042
0.15824175824175823,11.11356671891537
0.17802197802197803,11.14634823381938
0.1978021978021978,11.182435140961601
0.21758241758241756,11.221654247646592
0.23736263736263735,11.263819327739345
0.2571428571428572,11.308732449191586
0.2769230769230769,11.356185333560427
0.2967032967032967,11.405960730377267
0.31648351648351647,11.457833790491577
0.3362637362637363,11.511573424033086
0.35604395604395606,11.566943630329632
0.3758241758241758,11.623704788912274
0.3956043956043956,11.681614902565462
0.4153846153846154,11.740430785179607
0.4351648351648351,11.799909188886476
0.45494505494505494,11.85980786656642
0.4747252747252747,11.91988656728201
0.4945054945054945,11.979907963497176
0.5142857142857143,12.0396385100747
0.5340659340659341,12.098849236006236
0.5538461538461538,12.157316470621469
0.5736263736263736,12.21482250665593
0.5934065934065934,12.271156203041608
0.6131868131868132,12.326113530636423
0.6329670329670329,12.379498064341853
0.6527472527472528,12.43112142518984
0.6725274725274726,12.480803676024834
0.6923076923076923,12.528373674380576
0.7120879120879121,12.573669386065953
0.7318681318681318,12.616538162844256
0.7516483516483516,12.656836987424253
0.7714285714285715,12.694432688790776
0.7912087912087912,12.729202130693519
0.810989010989011,12.761032375893054
0.8307692307692308,12.789820828537117
0.8505494505494506,12.81547535681271
0.8703296703296702,12.837914397793043
0.8901098901098901,12.857067046175626
0.9098901098901099,12.872873128389452
0.9296703296703297,12.885283263337227
0.9494505494505494,12.894258910831434
0.9692307692307692,12.899772408582637
0.989010989010989,12.90180699840203
1.0087912087912088,12.900356842089051
1.0285714285714287,12.895427027285818
1.0483516483516484,12.88703356339399
1.0681318681318681,12.875203367463586
1.087912087912088,12.85997423977669
1.1076923076923075,12.841394828660613
1.1274725274725275,12.819524583873353
1.1472527472527472,12.794433697708547
1.1670329670329669,12.766203032766054
1.1868131868131868,12.734924035127978
1.2065934065934065,12.700698631467542
1.2263736263736265,12.663639108400007
1.2461538461538462,12.623867972162266
1.2659340659340659,12.581517786480712
1.2857142857142858,12.536730986259764
1.3054945054945055,12.489659664496518
1.3252747252747252,12.440465329607111
1.3450549450549452,12.389318630140453
1.3648351648351649,12.336399043662853
1.3846153846153846,12.281894526430197
1.4043956043956045,12.226001120331865
1.4241758241758242,12.168922513503425
1.443956043956044,12.110869550975671
1.4637362637362636,12.052059691769175
1.4835164835164834,11.992716408971031
1.5032967032967033,11.933068529559428
1.523076923076923,11.873349511088046
1.542857142857143,11.813796652821226
1.5626373626373626,11.754650239537527
1.5824175824175823,11.696152617004868
1.6021978021978023,11.638547199084973
1.621978021978022,11.582077407551612
1.6417582417582417,11.526985547005156
1.6615384615384616,11.473511618725485
1.6813186813186813,11.421892078908975
1.7010989010989013,11.372358548454898
1.720879120879121,11.325136483264675
1.7406593406593405,11.280443815844547
1.7604395604395604,11.238489580800078
1.7802197802197801,11.199472538511765
1.7999999999999998,11.163579812810077
1.8197802197802198,11.13098555974884
1.8395604395604395,11.101849685529778
1.8593406593406594,11.07631663218639
1.879120879120879,11.05451424973007
1.8989010989010988,11.036552773047598
1.9186813186813187,11.022523920889487
1.9384615384615385,11.012500132798168
1.9582417582417584,11.00653395781452
1.978021978021978,11.004657606318345
1.9978021978021978,11.006882673475014
2.0175824175824175,11.013200039572032
2.0373626373626372,11.023579949147207
2.0571428571428574,11.03797226735857
2.076923076923077,11.056306908652017
2.096703296703297,11.078494429570688
2.1164835164835165,11.104426774633259
2.1362637362637362,11.133978161683274
2.1560439560439564,11.167006091053706
2.175824175824176,11.203352461348569
2.195604395604396,11.242844773641208
2.215384615384615,11.285297405423524
2.2351648351648348,11.330512935686643
2.254945054945055,11.378283503025454
2.2747252747252746,11.428392179575935
2.2945054945054943,11.480614344843971
2.314285714285714,11.534719044990581
2.3340659340659338,11.590470324822782
2.353846153846154,11.647628521528224
2.3736263736263736,11.70595151101558
2.3934065934065933,11.765195899522958
2.413186813186813,11.825118154883054
2.4329670329670328,11.885475673447326
2.452747252747253,11.946027780143725
2.4725274725274726,12.006536660454803
2.4923076923076923,12.06676822424496
2.512087912087912,12.126492902335377
2.5318681318681318,12.185486377526093
2.5516483516483515,12.243530252405462
2.5714285714285716,12.30041265677973
2.5912087912087913,12.355928797913926
2.610989010989011,12.409881457014993
2.6307692307692307,12.462081435525283
2.6505494505494505,12.512347954844017
2.6703296703296706,12.560509013071957
2.6901098901098903,12.60640170229284
2.70989010989011,12.649872489777486
2.7296703296703297,12.690777466332928
2.7494505494505495,12.728982564829773
2.769230769230769,12.76436375173323
2.7890109890109893,12.796807194244208
2.808791208791209,12.826209405431632
2.8285714285714287,12.852477369509765
2.8483516483516484,12.875528649187874
2.8681318681318677,12.895291476796691
2.887912087912088,12.911704830677602
2.9076923076923076,12.924718498107987
2.9274725274725273,12.934293125828768
2.947252747252747,12.940400259039247
2.9670329670329667,12.943022369527458
2.986813186813187,12.942152873412587
3.0065934065934066,12.937796138786556
3.0263736263736263,12.929967483355155
3.046153846153846,12.918693161992623
3.0659340659340657,12.904010343936596
3.085714285714286,12.88596707916157
3.1054945054945056,12.864622253277028
3.1252747252747253,12.84004553010034
3.145054945054945,12.812317280853222
3.1648351648351647,12.781528498724127
3.184615384615385,12.74778069732603
3.2043956043956046,12.711185791361029
3.2241758241758243,12.671865957579952
3.243956043956044,12.629953473898553
3.2637362637362637,12.585590534303655
3.2835164835164834,12.538929036956365
3.3032967032967036,12.490130342678254
3.3230769230769233,12.439365000796949
3.342857142857143,12.38681243913438
3.3626373626373627,12.332660614753474
3.3824175824175824,12.277105621945786
3.4021978021978025,12.2203512538542
3.4219780219780223,12.162608514093982
3.441758241758242,12.10409507477506
3.4615384615384617,12.04503467745414
3.481318681318681,11.985656473771263
3.501098901098901,11.92619430286884
3.520879120879121,11.866885903166796
3.5406593406593405,11.807972056689916
3.5604395604395602,11.749695664924882
3.58021978021978,11.692300756134255
3.5999999999999996,11.636031425176519
3.61978021978022,11.581130708174348
3.6395604395604395,11.52783939582828
3.659340659340659,11.476394790772067
3.679120879120879,11.427029416082467
3.6989010989010986,11.379969683852025
3.718681318681319,11.335434534559866
3.7384615384615385,11.293634059775016
3.758241758241758,11.254768122430965
3.7780219780219784,11.21902499044663
3.7978021978021976,11.186580000758045
3.8175824175824173,11.157594271792352
3.8373626373626375,11.132213482986149
3.8571428571428568,11.11056674006329
3.876923076923077,11.09276554439399
3.896703296703296,11.078902883829082
3.916483516483517,11.06905246093551
3.936263736263736,11.06326807257045
3.956043956043956,11.061583152269016
3.9758241758241755,11.064010484055046
3.9956043956043956,11.070542093109522
4.015384615384615,11.081149315358891
4.035164835164835,11.095783044597448
4.054945054945055,11.114374152362426
4.0747252747252745,11.13683407256077
4.094505494505494,11.16305553991668
4.114285714285715,11.192913468766454
4.134065934065934,11.226265956647177
4.153846153846154,11.262955395558766
4.173626373626373,11.3028096727504
4.193406593406594,11.345643442389987
4.213186813186813,11.39125944949521
4.232967032967033,11.439449887992268
4.252747252747253,11.489997775662584
4.2725274725274724,11.54267832996914
4.292307692307692,11.597260330244776
4.312087912087913,11.65350745339804
4.331868131868132,11.711179572073437
4.351648351648352,11.77003400602292
4.371428571428571,11.829826719245263
4.391208791208792,11.89031345717854
4.410989010989011,11.951250819849289
4.43076923076923,12.012397268360795
4.450549450549451,12.073514063422952
4.4703296703296695,12.134366135777098
4.49010989010989,12.194722889348217
4.50989010989011,12.254358938767194
4.52967032967033,12.313054783555756
4.549450549450549,12.370597421768103
4.569230769230769,12.426780906249673
4.589010989010989,12.48140684692072
4.608791208791209,12.534284862636232
4.628571428571428,12.585232986228856
4.648351648351649,12.634078026324222
4.6681318681318675,12.680655889440436
4.687912087912088,12.724811865759273
4.707692307692308,12.76640088179598
4.7274725274725276,12.805287723007073
4.747252747252747,12.841347229169815
4.767032967032967,12.874464465148762
4.786813186813187,12.904534869440216
4.806593406593407,12.931464382658412
4.826373626373626,12.955169557900751
4.846153846153847,12.975577654706303
4.8659340659340655,12.992626718102876
4.885714285714286,13.00626564402476
4.905494505494506,13.016454232175313
4.9252747252747255,13.023163227206716
4.945054945054945,13.02637434889163
4.964835164835165,13.026080311768773
4.984615384615385,13.022284834554311
5.004395604395604,13.015002639423283
5.024175824175824,13.004259441077739
5.043956043956045,12.99009192533082
5.0637362637362635,12.972547716746096
5.083516483516483,12.951685334678924
5.103296703296703,12.92757413686968
5.123076923076923,12.900294249536941
5.142857142857143,12.86993648271155
5.162637362637362,12.836602229339151
5.182417582417583,12.800403346460307
5.2021978021978015,12.76146201655386
5.221978021978022,12.719910586902069
5.241758241758242,12.675891384608255
5.2615384615384615,12.629556504670575
5.281318681318681,12.581067568295476
5.301098901098901,12.530595448424037
5.320879120879121,12.47831995925221
5.340659340659341,12.42442950635849
5.36043956043956,12.369120693919816
5.380219780219781,12.312597885408266
5.3999999999999995,12.255072714131064
5.41978021978022,12.196763540015988
5.43956043956044,12.137894849170277
5.4593406593406595,12.078696592967292
5.479120879120879,12.01940346375834
5.498901098901099,11.960254104781908
5.518681318681319,11.901490252464509
5.538461538461538,11.843355810086951
5.558241758241758,11.78609585273805
5.578021978021979,11.729955564597237
5.5978021978021975,11.67517911087788
5.617582417582418,11.622008448214645
5.637362637362637,11.570682078874603
5.6571428571428575,11.521433755883956
5.676923076923077,11.47449114795545
5.696703296703297,11.430074474924968
5.716483516483517,11.388395126203449
5.736263736263735,11.34965427645414
5.756043956043956,11.314041514242481
5.775824175824176,11.281733500698817
5.795604395604395,11.252892676206777
5.815384615384615,11.22766603370913
5.835164835164835,11.206183977347019
5.854945054945055,11.188559284768969
5.874725274725275,11.174886190533687
5.894505494505494,11.165239606580608
5.914285714285715,11.159674493771787
5.934065934065933,11.158225396064928
5.953846153846154,11.160906146028557
5.973626373626374,11.167709747251754
5.993406593406593,11.178608435839285
6.013186813186813,11.193553919743934
6.032967032967033,11.212477791295003
6.052747252747253,11.235292105060395
6.072527472527473,11.261890110242904
6.092307692307692,11.292147124256344
6.112087912087913,11.325921532030401
6.131868131868131,11.363055894006258
6.151648351648352,11.403378144732521
6.171428571428572,11.446702863454895
6.191208791208791,11.492832598087315
6.210989010989011,11.541559224415446
6.230769230769231,11.592665323255106
6.2505494505494505,11.64592555949909
6.270329670329671,11.701108048459236
6.29010989010989,11.757975696570785
6.309890109890111,11.816287505296458
6.329670329670329,11.875799828882185
6.349450549450549,11.936267578412817
6.36923076923077,11.997445366345353
6.3890109890109885,12.059088587318394
6.408791208791209,12.12095443252096
6.428571428571428,12.182802836230545
6.4483516483516485,12.244397354289882
6.468131868131868,12.305505975279877
6.487912087912088,12.36590186596604
6.507692307692308,12.425364053255292
6.527472527472527,12.483678045410766
6.547252747252747,12.540636395647546
6.567032967032967,12.596039211487739
6.5868131868131865,12.649694613404503
6.606593406593407,12.701419146346707
6.626373626373626,12.751038147723973
6.6461538461538465,12.79838607535966
6.665934065934065,12.843306798798674
6.685714285714286,12.885653857200209
6.705494505494506,12.925290686860256
6.725274725274725,12.962090821204999
6.745054945054945,12.99593806587951
6.764835164835165,13.026726651332343
6.7846153846153845,13.054361365069774
6.804395604395605,13.078757665527638
6.824175824175824,13.099841779284533
6.8439560439560445,13.117550783121377
6.863736263736263,13.131832672217904
6.883516483516484,13.142646415568285
6.903296703296704,13.149961999494503
6.923076923076923,13.15376045993817
6.942857142857143,13.154033904016883
6.962637362637362,13.150785521140197
6.9824175824175825,13.144029583791067
7.002197802197802,13.133791437890167
7.021978021978022,13.120107482471289
7.041758241758242,13.103025138205266
7.061538461538461,13.082602804115986
7.081318681318681,13.058909801633966
7.101098901098901,13.032026304930499
7.1208791208791204,13.002043256266866
7.140659340659341,12.969062264879504
7.16043956043956,12.933195487702756
7.1802197802197805,12.894565490006883
7.199999999999999,12.853305083802201
7.21978021978022,12.809557141631743
7.23956043956044,12.763474383149157
7.259340659340659,12.715219131658182
7.279120879120879,12.66496303758142
7.298901098901099,12.612886765635109
7.318681318681318,12.559179642320853
7.338461538461539,12.504039260214746
7.358241758241758,12.447671035448689
7.3780219780219785,12.39028771475124
7.397802197802197,12.3321088284584
7.417582417582418,12.27336008603369
7.437362637362638,12.21427271086688
7.457142857142857,12.155082711466834
7.476923076923077,12.096030086642763
7.496703296703297,12.037357962892223
7.516483516483516,11.979311662997025
7.536263736263736,11.922137705777734
7.556043956043957,11.866082738077765
7.575824175824176,11.811392401338177
7.595604395604395,11.758310136574703
7.615384615384615,11.707075933161333
7.635164835164835,11.657925028534049
7.654945054945055,11.61108656771527
7.674725274725275,11.566782233377447
7.694505494505494,11.525224858954765
7.7142857142857135,11.486617039008882
7.734065934065935,11.451149752584909
7.753846153846154,11.419001016581245
7.7736263736263735,11.390334587124922
7.793406593406592,11.365298727521202
7.813186813186814,11.344025061470948
7.832967032967034,11.326627529873138
7.852747252747252,11.31320146862503
7.872527472527472,11.303822823392283
7.892307692307693,11.298547515364355
7.912087912087912,11.297410969581733
7.931868131868132,11.300427814590362
7.951648351648351,11.307591759036061
7.971428571428572,11.318875647467749
7.991208791208791,11.33423169419274
8.010989010989011,11.353591890646165
8.03076923076923,11.376868578522243
8.05054945054945,11.40395517798071
8.07032967032967,11.434727057684318
8.09010989010989,11.469042531319088
8.10989010989011,11.506743963649324
8.129670329670331,11.547658968091685
8.149450549450549,11.59160167725572
8.169230769230769,11.638374067871897
8.189010989010988,11.687767321968428
8.20879120879121,11.73956320700729
8.22857142857143,11.793535458879417
8.248351648351647,11.849451153113531
8.268131868131867,11.907072051295687
8.287912087912087,11.966155911454523
8.307692307692308,12.026457752970895
8.327472527472528,12.0877310683605
8.347252747252746,12.14972897600409
8.367032967032966,12.2122053095206
8.386813186813187,12.274915640965252
8.406593406593407,12.337618236366382
8.426373626373627,12.400074943280455
8.446153846153845,12.462052011040559
8.465934065934066,12.523320845202141
8.485714285714286,12.583658698358455
8.505494505494505,12.642849300017938
8.525274725274725,12.700683428620247
8.545054945054945,12.756959429031607
8.564835164835165,12.811483679019405
8.584615384615384,12.86407100827536
8.604395604395604,12.914545073551013
8.624175824175826,12.962738693402864
8.643956043956043,13.00849414592876
8.663736263736263,13.051663432723915
8.683516483516483,13.092108512103493
8.703296703296704,13.129701504437024
8.723076923076924,13.164324872225224
8.742857142857142,13.195871577327225
8.762637362637362,13.224245217520041
8.782417582417583,13.249360144346472
8.802197802197803,13.271141563983434
8.821978021978023,13.289525622643344
8.84175824175824,13.30445947780588
8.86153846153846,13.315901356368112
8.881318681318682,13.323820600596216
8.901098901098901,13.328197702562498
8.920879120879121,13.32902432755544
8.940659340659339,13.326303326757866
8.96043956043956,13.320048739297313
8.98021978021978,13.310285783582787
9.0,13.297050837650897
9.01978021978022,13.2803914080523
9.03956043956044,13.260366086613598
9.05934065934066,13.237044494210688
9.079120879120879,13.210507210485195
9.098901098901099,13.180845688226839
9.11868131868132,13.148162150929133
9.138461538461538,13.112569471806662
9.158241758241758,13.07419103233775
9.178021978021977,13.033160558169477
9.197802197802199,12.989621929994522
9.217582417582419,12.94372896678435
9.237362637362637,12.895645178545035
9.257142857142856,12.845543485555442
9.276923076923078,12.793605900859818
9.296703296703297,12.740023172624896
9.316483516483517,12.684994382845678
9.336263736263735,12.628726498804095
9.356043956043957,12.571433873663269
9.375824175824176,12.51333769263034
9.395604395604396,12.454665361257161
9.415384615384616,12.395649832686281
9.435164835164835,12.336528871004145
9.454945054945055,12.277544248350194
9.474725274725275,12.218940874062978
9.494505494505495,12.160965854934254
9.514285714285714,12.103867486597489
9.534065934065934,12.047894177202664
9.553846153846154,11.993293305821448
9.573626373626373,11.94031001947755
9.593406593406593,11.889185974287557
9.613186813186815,11.840158027900712
9.632967032967032,11.793456892204798
9.652747252747252,11.749305757070994
9.672527472527472,11.707918897686648
9.692307692307693,11.66950027970477
9.712087912087913,11.634242177950945
9.731868131868131,11.602323825696285
9.75164835164835,11.573910112454692
9.771428571428572,11.549150348822176
9.791208791208792,11.528177116986717
9.810989010989012,11.511105225150661
9.83076923076923,11.498030783197086
9.850549450549451,11.489030415491724
9.87032967032967,11.484160624760746
9.89010989010989,11.483457318567748
9.90989010989011,11.486935507098371
9.92967032967033,11.494589177839407
9.94945054945055,11.506391349418527
9.96923076923077,11.522294303469621
9.989010989010989,11.542229990031387
10.008791208791209,11.566110598794168
10.028571428571428,11.593829285593289
10.048351648351648,11.625261041002792
10.068131868131868,11.660263685786129
10.08791208791209,11.69867897636217
10.107692307692307,11.740333802371715
10.127472527472527,11.78504145788287
10.147252747252747,11.832602967731818
10.167032967032966,11.882808450917281
10.186813186813188,11.935438503795117
10.206593406593406,11.990265586986807
10.226373626373626,12.047055401348347
10.246153846153845,12.105568239967628
10.265934065934067,12.165560304898081
10.285714285714286,12.226784979123524
10.305494505494504,12.28899404602695
10.325274725274724,12.35193885035192
10.345054945054946,12.415371396260412
10.364835164835165,12.479045379574483
10.384615384615385,12.542717152620865
10.404395604395603,12.606146621265818
10.424175824175824,12.669098074727732
10.443956043956044,12.73134094958989
10.463736263736264,12.792650530111201
10.483516483516484,12.852808587461046
10.503296703296703,12.911603960896489
10.523076923076923,12.968833084173111
10.542857142857143,13.024300460647492
10.562637362637362,13.07781909060667
10.582417582417584,13.129210854361554
10.602197802197802,13.178306854580738
10.621978021978022,13.224947721231603
