Time (s),Filtered Signal
0.0,0.02517559546166609
0.03337000366703337,-0.20734957140415491
0.06674000733406674,-0.5474029188850799
0.1001100110011001,-1.041033224213141
0.13348001466813347,-1.6411913680432944
0.16685001833516683,-2.2205918933102713
0.2002200220022002,-2.623467135810764
0.2335900256692336,-2.7319515125321567
0.26696002933626695,-2.516237694462543
0.3003300330033003,-2.0460387542461094
0.33370003667033366,-1.4598042285144637
0.36707004033736707,-0.907859084962873
0.4004400440044004,-0.49646633302506205
0.4338100476714338,-0.25708687853146955
0.4671800513384672,-0.15118122176232696
0.5005500550055005,-0.10340287953767764
0.5339200586725339,-0.04370427331662268
0.5672900623395672,0.06277618536746161
0.6006600660066006,0.21026585201151063
0.634030069673634,0.3694135523353177
0.6674000733406673,0.5131858901120073
0.7007700770077008,0.6347322312794698
0.7341400806747341,0.7469959382957253
0.7675100843417675,0.8661557812373466
0.8008800880088008,0.99146623400897
0.8342500916758342,1.0963031544605912
0.8676200953428675,1.1378210567154121
0.9009900990099009,1.080290611316679
0.9343601026769344,0.9178617724650028
0.9677301063439677,0.6822650912093842
1.001100110011001,0.42999975176688776
1.0344701136780343,0.21603834082027995
1.0678401173450678,0.0690860972700336
1.1012101210121013,-0.017869927215428114
1.1345801246791345,-0.07741265170514074
1.167950128346168,-0.1450659710999145
1.2013201320132012,-0.2377903757863161
1.2346901356802347,-0.3453084951964155
1.268060139347268,-0.4375410961887727
1.3014301430143014,-0.4820644486713309
1.3348001466813346,-0.4607532261133617
1.368170150348368,-0.3768395032425377
1.4015401540154016,-0.2503742755831442
1.4349101576824348,-0.10690257209408974
1.4682801613494683,0.03294535442203173
1.5016501650165015,0.15734684850640643
1.535020168683535,0.2600877137947153
1.5683901723505682,0.3342008128674442
1.6017601760176017,0.3678503767768339
1.6351301796846351,0.3459962682613893
1.6685001833516684,0.2576639364448669
1.7018701870187019,0.105208030074166
1.735240190685735,-0.08961474893202723
1.7686101943527686,-0.28702025109476254
1.8019801980198018,-0.4391779540101044
1.8353502016868353,-0.5058809818594786
1.8687202053538687,-0.46973836339194586
1.902090209020902,-0.3440680838216923
1.9354602126879354,-0.16934214590858127
1.9688302163549687,0.0009623953306748556
2.002200220022002,0.11934369999887381
2.0355702236890356,0.16005473045223823
2.0689402273560686,0.12521376691403815
2.102310231023102,0.03936112996842374
2.1356802346901356,-0.06412651856613667
2.169050238357169,-0.1579077877220063
2.2024202420242025,-0.22996008143343222
2.2357902456912355,-0.28368629391462413
2.269160249358269,-0.33008046308735023
2.3025302530253025,-0.3770147339980135
2.335900256692336,-0.421585446701219
2.369270260359369,-0.44914833902930523
2.4026402640264024,-0.4388004823469416
2.436010267693436,-0.3720071838954155
2.4693802713604693,-0.24035681721190333
2.502750275027503,-0.04982638457463458
2.536120278694536,0.17905264661002962
2.5694902823615693,0.4145135608714903
2.6028602860286028,0.61951939238378
2.636230289695636,0.7595327683952302
2.6696002933626692,0.8107586517347246
2.7029702970297027,0.7667159426357353
2.736340300696736,0.6407270669021424
2.7697103043637696,0.46288317785518757
2.803080308030803,0.272073658509728
2.836450311697836,0.1057610482621758
2.8698203153648696,-0.008868009654605524
2.903190319031903,-0.05957930902017186
2.9365603226989365,-0.04900817693264146
2.96993032636597,0.008527595352838202
3.003300330033003,0.09086141503107291
3.0366703337000365,0.1711363387030734
3.07004033736707,0.22100514757165385
3.1034103410341034,0.21560853456504264
3.1367803447011364,0.14082239130703833
3.17015034836817,0.000430320808801864
3.2035203520352034,-0.18120493275040647
3.236890355702237,-0.3644983448985721
3.2702603593692703,-0.507520910070692
3.3036303630363033,-0.5811162281125305
3.3370003667033368,-0.5788124454971018
3.3703703703703702,-0.5163855201492745
3.4037403740374037,-0.4215584576741954
3.4371103777044367,-0.3198541450567653
3.47048038137147,-0.22459903034596373
3.5038503850385037,-0.13625641350463916
3.537220388705537,-0.050393631771796565
3.5705903923725706,0.03172646002113249
3.6039603960396036,0.09745765479119128
3.637330399706637,0.12637768635615132
3.6707004033736705,0.10178730401254106
3.704070407040704,0.0237619926003466
3.7374404107077375,-0.08384857520140634
3.7708104143747705,-0.17717345795037845
3.804180418041804,-0.20627401311974208
3.8375504217088374,-0.13395429691294813
3.870920425375871,0.048086163319146426
3.904290429042904,0.3122183060900819
3.9376604327099374,0.5999913544313501
3.971030436376971,0.8381013719979479
4.004400440044004,0.9602168288674028
4.037770443711038,0.9275622645082509
4.071140447378071,0.7413083660281158
4.104510451045105,0.44231194413955255
4.137880454712137,0.09797721795407506
4.171250458379171,-0.21939755246767392
4.204620462046204,-0.45517620535206244
4.237990465713238,-0.5876795998931931
4.271360469380271,-0.6306010663347593
4.304730473047305,-0.6217993833602163
4.338100476714338,-0.603179816684513
4.3714704803813715,-0.6002294316700532
4.404840484048405,-0.6102558613564144
4.438210487715438,-0.6049415845547353
4.471580491382471,-0.5465830360427307
4.5049504950495045,-0.41086149213775536
4.538320498716538,-0.20518590708343684
4.571690502383571,0.027301915424599216
4.605060506050605,0.22193611109522854
4.638430509717638,0.3201079032411887
4.671800513384672,0.29798251840749657
4.705170517051705,0.18201004149979147
4.738540520718738,0.041890074381571836
4.771910524385771,-0.037938767135630255
4.805280528052805,0.0037615852958387407
4.838650531719838,0.17549404932730933
4.872020535386872,0.4267727381275174
4.905390539053905,0.6691899976106631
4.938760542720939,0.8153680107327155
4.972130546387972,0.817265054621419
5.005500550055006,0.6855419033985476
5.038870553722038,0.48123771198487597
5.072240557389072,0.28479808144347546
5.105610561056105,0.1583169209205629
5.138980564723139,0.11932577507862999
5.172350568390172,0.13779924127921753
5.2057205720572055,0.15608503964173076
5.239090575724239,0.12038933498136861
5.272460579391272,0.007597817370782911
5.305830583058306,-0.1653726086033996
5.3392005867253385,-0.3529038826809842
5.372570590392372,-0.5052212401074878
5.405940594059405,-0.5924293823633627
5.439310597726439,-0.6155575242835863
5.472680601393472,-0.5998908007687566
5.506050605060506,-0.5757426044420966
5.539420608727539,-0.5584728239268698
5.572790612394573,-0.5395681880540072
5.606160616061606,-0.49413973261181526
5.63953061972864,-0.4007249380273295
5.672900623395672,-0.2617673129452045
5.706270627062706,-0.11167489199776785
5.739640630729739,-0.005184387700502648
5.773010634396773,0.010552307871504657
5.806380638063806,-0.07347348622725466
5.83975064173084,-0.21246216272655816
5.873120645397873,-0.3189941431949291
5.9064906490649065,-0.2997365662873047
5.93986065273194,-0.101844569033995
5.9732306563989725,0.25425371386269147
6.006600660066006,0.674304140653389
6.0399706637330395,1.0250738701139632
6.073340667400073,1.1895119708150836
6.106710671067106,1.1162087558182152
6.14008067473414,0.8397681773336013
6.173450678401173,0.46337578117738915
6.206820682068207,0.11333513243121054
6.24019068573524,-0.11216350541569034
6.273560689402273,-0.17709860337254144
6.306930693069306,-0.11179751135829441
6.34030069673634,0.010538680338640515
6.373670700403373,0.11083338570008862
6.407040704070407,0.13673842261107597
6.44041070773744,0.07776562507083067
6.473780711404474,-0.040264434221537075
6.507150715071507,-0.17506078055853813
6.540520718738541,-0.29046010012506795
6.573890722405573,-0.371046486404447
6.607260726072607,-0.4233965248833843
6.64063072973964,-0.46544205330232635
6.6740007334066735,-0.5107689740348544
6.707370737073707,-0.5564188713769546
6.7407407407407405,-0.5805672622495657
6.774110744407774,-0.5515082108811871
6.807480748074807,-0.44385035387752086
6.840850751741841,-0.25408309406353163
6.8742207554088735,-0.0074373732437655535
6.907590759075907,0.2483613571650595
6.94096076274294,0.4606161087029875
6.974330766409974,0.5926600439024677
7.007700770077007,0.6380131772246045
7.041070773744041,0.6200970503150197
7.074440777411074,0.5770314286020775
7.107810781078108,0.539068489220123
7.141180784745141,0.5107361753569709
7.174550788412174,0.4679085523449555
7.207920792079207,0.37235866201476564
7.241290795746241,0.19679849914508082
7.274660799413274,-0.05282652051903554
7.308030803080308,-0.3303894877737608
7.341400806747341,-0.5632104409971196
7.3747708104143745,-0.6811313614930973
7.408140814081408,-0.6478499119449579
7.4415108177484415,-0.47961189881412747
7.474880821415475,-0.2418570697655564
7.5082508250825075,-0.02453157360609562
7.541620828749541,0.0932460657889207
7.5749908324165744,0.07345630120617148
7.608360836083608,-0.0688305779381135
7.641730839750641,-0.276083881719907
7.675100843417675,-0.47511372838189386
7.708470847084708,-0.6064465401913147
7.741840850751742,-0.642737421708526
7.775210854418775,-0.5895596776435076
7.808580858085808,-0.47156419832447083
7.841950861752841,-0.3140993477732026
7.875320865419875,-0.13129579725463175
7.908690869086908,0.07366196181017765
7.942060872753942,0.29839583438599426
7.975430876420975,0.529641226756327
8.008800880088009,0.7388980183280498
8.042170883755041,0.8894223750356193
8.075540887422076,0.9512998141050634
8.108910891089108,0.9160858876121688
8.142280894756142,0.8022906869971391
8.175650898423175,0.6479004795185523
8.20902090209021,0.4933807411290488
8.242390905757242,0.36410911249342204
8.275760909424275,0.26177378592419104
8.309130913091309,0.16941717652574012
8.342500916758341,0.0670504971933608
8.375870920425376,-0.05149684574542742
8.409240924092408,-0.17079098102527251
8.442610927759443,-0.26019178718725444
8.475980931426475,-0.29114914325487673
8.50935093509351,-0.2555051686393397
8.542720938760542,-0.17411391779917196
8.576090942427575,-0.0905284482068401
8.60946094609461,-0.05284242291480727
8.642830949761642,-0.09311598281994005
8.676200953428676,-0.2146887346405739
8.709570957095709,-0.39291101872574724
8.742940960762743,-0.5874079267727483
8.776310964429776,-0.758252334854419
8.80968096809681,-0.8774988829978309
8.843050971763843,-0.9315656213303658
8.876420975430875,-0.9160993008085682
8.90979097909791,-0.8292780815429125
8.943160982764942,-0.6695031314020308
8.976530986431976,-0.43953978210435984
9.009900990099009,-0.15417852708458793
9.043270993766043,0.1544382868051148
9.076640997433076,0.438903189790124
9.11001100110011,0.6472633557930951
9.143381004767143,0.7389091802617493
9.176751008434175,0.6992113490668886
9.21012101210121,0.5467354847216744
9.243491015768242,0.32999592054504545
9.276861019435277,0.11491422415297878
9.31023102310231,-0.03269734486897234
9.343601026769344,-0.0643704827619505
9.376971030436376,0.038318734968363875
9.41034103410341,0.2580877729198846
9.443711037770443,0.5444040440316905
9.477081041437476,0.8241872871198856
9.51045104510451,1.0196757617985688
9.543821048771543,1.0701963079888197
9.577191052438577,0.9518229120516233
9.61056105610561,0.6873572610222051
9.643931059772644,0.3408304821547402
9.677301063439677,-0.003615305615925212
9.710671067106711,-0.27120742908566614
9.744041070773743,-0.42211029459934934
9.777411074440776,-0.46169981504683644
9.81078107810781,-0.4312690488522407
9.844151081774843,-0.3846171478462098
9.877521085441877,-0.3628543391571398
9.91089108910891,-0.3798329866875143
9.944261092775944,-0.42394634136765397
9.977631096442977,-0.47265606931178034
10.011001100110011,-0.509523744794342
10.044371103777044,-0.5333590942689328
10.077741107444076,-0.5549932211422762
10.11111111111111,-0.585178811559523
10.144481114778143,-0.6222688390033576
10.177851118445178,-0.647797582536813
10.21122112211221,-0.6327335075416951
10.244591125779245,-0.550675058186645
10.277961129446277,-0.3905928374612017
10.311331133113312,-0.16269037118942614
10.344701136780344,0.10464610276559197
10.378071140447377,0.3740923076687289
10.411441144114411,0.609796020938563
10.444811147781444,0.7848349285983605
10.478181151448478,0.8843852071143967
10.51155115511551,0.9056985469923081
10.544921158782545,0.8566424889700704
10.578291162449577,0.753606625785016
10.611661166116612,0.6183449428001604
10.645031169783644,0.473122266293443
10.678401173450677,0.3346531216744701
10.711771177117711,0.20888211882373073
10.745141180784744,0.08930983833769321
10.778511184451778,-0.03946329179372494
10.81188118811881,-0.19363239447966066
10.845251191785845,-0.38050306395964634
10.878621195452878,-0.5911928055867486
10.911991199119912,-0.7988357422551079
10.945361202786945,-0.963259654742845
10.978731206453979,-1.040758137465774
11.012101210121012,-0.9959966470430451
11.045471213788044,-0.8126848007413559
11.078841217455079,-0.5002777188371003
11.112211221122111,-0.09514249473638065
11.145581224789145,0.34420849082334576
11.178951228456178,0.7473161501062204
11.212321232123212,1.0460576877293086
11.245691235790245,1.190482740812223
11.27906123945728,1.162235545261509
11.312431243124312,0.9808310593687876
11.345801246791344,0.6992118056503724
11.379171250458379,0.3885255968837137
11.412541254125411,0.11671320994345372
11.445911257792446,-0.07120817424629576
11.479281261459478,-0.16354535836144107
11.512651265126513,-0.17950811027591
11.546021268793545,-0.15633909876654964
11.57939127246058,-0.13275016658538388
11.612761276127612,-0.135968842764096
11.646131279794645,-0.17649528045507581
11.67950128346168,-0.2500646686660074
11.712871287128712,-0.3432179897683931
11.746241290795746,-0.43877838744949355
11.779611294462779,-0.5196248007530767
11.812981298129813,-0.5713128153999224
11.846351301796846,-0.5846262916172542
11.87972130546388,-0.5580157570239813
11.913091309130913,-0.4984796424142117
11.946461312797945,-0.41931129417676183
11.97983131646498,-0.33471521822008693
12.013201320132012,-0.25359171513150713
12.046571323799046,-0.176046746156833
12.079941327466079,-0.09515879743944836
12.113311331133113,-0.0035129704964104867
12.146681334800146,0.09917560205982492
12.18005133846718,0.20218017348065162
12.213421342134213,0.2865919863546668
12.246791345801245,0.3339708439318689
12.28016134946828,0.3364110726049337
12.313531353135312,0.3025499723146638
12.346901356802347,0.2560194521170098
12.38027136046938,0.2267143632504207
12.413641364136414,0.23889456383931684
12.447011367803446,0.30161040923780835
12.48038137147048,0.40552449704189547
12.513751375137513,0.5268196525541913
12.547121378804546,0.6355748447037737
12.58049138247158,0.7046046977793169
12.613861386138613,0.7157063634316734
12.647231389805647,0.6623525150498824
12.68060139347268,0.54943211419946
12.713971397139714,0.390908049922966
12.747341400806746,0.2058308501557702
12.78071140447378,0.01314266584251342
12.814081408140813,-0.17346000470008469
12.847451411807846,-0.3484139094552383
12.88082141547488,-0.5129550858618681
12.914191419141913,-0.6694758240300027
12.947561422808947,-0.8141879455357948
12.98093142647598,-0.9324423101397903
13.014301430143014,-1.000342746824883
13.047671433810047,-0.9931268184894366
13.081041437477081,-0.8968310399611559
13.114411441144114,-0.717395480508893
13.147781444811146,-0.48216933889544045
13.18115144847818,-0.23245061653971555
13.214521452145213,-0.010175045466173926
13.247891455812248,0.15533957817992597
13.28126145947928,0.25497517828743393
13.314631463146315,0.29903686139629987
13.348001466813347,0.3092908901854595
13.381371470480381,0.3079176083554665
13.414741474147414,0.30838930671016146
13.448111477814447,0.3120746571946154
13.481481481481481,0.3116807828959659
13.514851485148514,0.299492917358227
13.548221488815548,0.2759320196491645
13.58159149248258,0.2533485491451541
13.614961496149615,0.25189330111180536
13.648331499816647,0.28839281333790623
13.681701503483682,0.36363961853853494
13.715071507150714,0.4557520855863142
13.748441510817747,0.525268186866085
13.781811514484781,0.5316511551651493
13.815181518151814,0.45381999341862705
13.848551521818848,0.30343455039990835
13.88192152548588,0.1220241099861769
13.915291529152915,-0.0387246863226037
13.948661532819948,-0.14428027797831433
13.982031536486982,-0.19719446208783892
14.015401540154015,-0.23716492485789073
14.048771543821047,-0.3189611879877709
14.082141547488082,-0.47856485932818366
14.115511551155114,-0.7056793764786992
14.148881554822148,-0.9388204459660355
14.182251558489181,-1.0879584980421082
14.215621562156215,-1.074984538881775
14.248991565823248,-0.8721482079119953
14.282361569490282,-0.518785955489008
14.315731573157315,-0.10727111957945165
14.349101576824348,0.2553583713129829
14.382471580491382,0.49141768490629856
14.415841584158414,0.5810694945968062
14.449211587825449,0.5625266956122652
14.482581591492481,0.5058135401996867
14.515951595159516,0.47492607303939394
14.549321598826548,0.4979305915720721
14.582691602493583,0.5589783393979786
14.616061606160615,0.6139004641340894
14.649431609827648,0.6187759536474107
14.682801613494682,0.5549974779878922
14.716171617161715,0.4375617754588488
14.749541620828749,0.30336302031720325
14.782911624495782,0.1874559064266233
14.816281628162816,0.10154700699770491
14.849651631829849,0.02722346035549712
14.883021635496883,-0.07210962435763196
14.916391639163916,-0.2271616193074335
14.94976164283095,-0.44001745966551115
14.983131646497982,-0.6757396217536114
15.016501650165015,-0.8737614296372579
15.04987165383205,-0.9738464200097284
15.083241657499082,-0.9433762946123645
15.116611661166116,-0.7918564517064545
15.149981664833149,-0.5653862089601162
15.183351668500183,-0.3246262700497803
15.216721672167216,-0.11839440478684653
15.25009167583425,0.03340414685810563
15.283461679501283,0.1399134990741813
15.316831683168315,0.22484996795371953
15.35020168683535,0.30747138902887616
15.383571690502382,0.39024673825817996
15.416941694169417,0.45902123866041444
15.45031169783645,0.4933858462605508
15.483681701503484,0.47953394561217216
15.517051705170516,0.4180770742558063
15.55042170883755,0.323959644054376
15.583791712504583,0.22081174335550105
15.617161716171616,0.13421727250110502
15.65053171983865,0.08674366315020826
15.683901723505683,0.09442182480269826
15.717271727172717,0.1627395674447129
15.75064173083975,0.2815254161505939
15.784011734506784,0.4211422102876356
15.817381738173816,0.5344032588520815
15.85075174184085,0.5673617935419412
15.884121745507883,0.47765834368685395
15.917491749174916,0.2538702331727881
15.95086175284195,-0.07336371406429257
15.984231756508983,-0.43558777740186805
16.017601760176017,-0.7468559320041045
16.05097176384305,-0.933061798184342
16.084341767510082,-0.958157384544047
16.117711771177117,-0.8358542247988818
16.15108177484415,-0.6218499420146324
16.184451778511182,-0.39056387962947886
16.217821782178216,-0.2070823177553094
16.25119178584525,-0.1061543816683432
16.284561789512285,-0.08559631955727715
16.317931793179316,-0.11431887777786366
16.35130179684635,-0.14923417693899182
16.384671800513384,-0.15299227890508477
16.41804180418042,-0.10601022531466518
16.45141180784745,-0.009997742166456368
16.484781811514484,0.11599796712366343
16.51815181518152,0.2437593074430027
16.55152181884855,0.34485779013817913
16.584891822515583,0.39825489119386304
16.618261826182618,0.39573572785720085
16.651631829849652,0.3447495793611034
16.685001833516683,0.2677411456923191
16.718371837183717,0.19682861345066544
16.75174184085075,0.163850694642053
16.785111844517782,0.18829403658677565
16.818481848184817,0.26790502941925176
16.85185185185185,0.3769485369147274
16.885221855518886,0.47426677835735986
16.918591859185916,0.5186083722096212
16.95196186285295,0.48467404186189605
16.985331866519985,0.372445336529581
17.01870187018702,0.20547322578326702
17.05207187385405,0.019408734595546942
17.085441877521085,-0.15296090244949137
17.11881188118812,-0.29244926439844043
17.15218188485515,-0.3951807567203991
17.185551888522184,-0.4660093944189528
17.21892189218922,-0.5092069821412653
17.252291895856253,-0.5231981585778129
17.285661899523284,-0.5029880952291712
17.319031903190318,-0.4483615769136556
17.352401906857352,-0.37144758897546876
