Frequency (Hz),Amplitude
0.0,4.505678674805387
0.019801980198019802,4.508753697821816
0.039603960396039604,4.51795410049616
0.0594059405940594,4.533206431280086
0.07920792079207921,4.554390066269441
0.09900990099009901,4.581339800504594
0.1188118811881188,4.613849282621528
0.13861386138613863,4.651675122029236
0.15841584158415842,4.694541477159212
0.1782178217821782,4.742144928139719
0.19801980198019803,4.794159446048967
0.21782178217821782,4.850241290910265
0.2376237623762376,4.9100336982783395
0.25742574257425743,4.973171245961349
0.27722772277227725,5.03928382481494
0.297029702970297,5.108000167992169
0.31683168316831684,5.178950919710232
0.33663366336633666,5.25177124648173
0.3564356435643564,5.32610301052227
0.37623762376237624,5.401596536882421
0.39603960396039606,5.477912013299337
0.4158415841584158,5.5547205655480045
0.43564356435643564,5.631705051979175
0.45544554455445546,5.708560619715945
0.4752475247524752,5.784995062312706
0.495049504950495,5.860729015117228
0.5148514851485149,5.935496020557675
0.5346534653465347,6.0090424914304785
0.5544554455445545,6.081127596222324
0.5742574257425742,6.151523086712136
0.594059405940594,6.220013084655431
0.613861386138614,6.286393841296559
0.6336633663366337,6.350473480792936
0.6534653465346534,6.412071736357629
0.6732673267326733,6.471019686005039
0.6930693069306931,6.527159493185639
0.7128712871287128,6.58034415628198
0.7326732673267327,6.630437269872831
0.7524752475247525,6.677312799818772
0.7722772277227723,6.720854873549315
0.7920792079207921,6.760957586408302
0.8118811881188118,6.79752482451605
0.8316831683168316,6.830470104310865
0.8514851485148516,6.8597164287203025
0.8712871287128713,6.885196159768348
0.891089108910891,6.906850907334731
0.9108910891089109,6.924631433735883
0.9306930693069307,6.938497573785308
0.9504950495049505,6.948418170005385
0.9702970297029703,6.954371022698318
0.99009900990099,6.956342854634458
1.00990099009901,6.954329290178705
1.0297029702970297,6.94833484874517
1.0495049504950495,6.938372952544625
1.0693069306930694,6.9244659486645785
1.0891089108910892,6.906645145595875
1.108910891089109,6.884950864389675
1.1287128712871286,6.859432504689652
1.1485148514851484,6.8301486259355855
1.1683168316831685,6.797167044068652
1.188118811881188,6.760564944082726
1.2079207920792079,6.720429008752827
1.227722772277228,6.6768555638240406
1.2475247524752475,6.6299507398524895
1.2673267326732673,6.579830650743031
1.2871287128712872,6.526621588814377
1.3069306930693068,6.4704602359215295
1.3267326732673268,6.411493889764375
1.3465346534653466,6.349880703981396
1.3663366336633662,6.285789939948767
1.3861386138613863,6.219402227343067
1.405940594059406,6.150909829452066
1.4257425742574257,6.080516907893098
1.4455445544554455,6.008439779787333
1.4653465346534653,5.9349071585028526
1.4851485148514851,5.860160366785795
1.504950495049505,5.784453508420446
1.5247524752475248,5.70805358148495
1.5445544554455446,5.631240512808203
1.5643564356435644,5.554307089430519
1.5841584158415842,5.4775587588162304
1.6039603960396038,5.401313265414191
1.6237623762376237,5.325900087147751
1.6435643564356437,5.2516596318697495
1.6633663366336633,5.178942151186358
1.683168316831683,5.108106327896895
1.7029702970297032,5.0395174942907355
1.7227722772277227,4.973545442443934
1.7425742574257426,4.910561795253919
1.7623762376237624,4.850936918962711
1.782178217821782,4.795036374879629
1.801980198019802,4.743216930100159
1.8217821782178218,4.695822173878214
1.8415841584158414,4.653177816892431
1.8613861386138615,4.615586783099395
1.881188118811881,4.583324235515184
1.900990099009901,4.5566327047764705
1.920792079207921,4.535717509027326
1.9405940594059405,4.520742662040232
1.9603960396039604,4.5118274607562
1.98019801980198,4.509043922233383
2.0,4.512415203772635
2.01980198019802,4.521915091192071
2.0396039603960396,4.537468583124094
2.0594059405940595,4.558953539336584
2.0792079207920793,4.586203304396478
2.099009900990099,4.619010169964653
2.118811881188119,4.657129503791423
2.1386138613861387,4.700284353384219
2.1584158415841586,4.74817032764699
2.1782178217821784,4.800460569046392
2.1980198019801978,4.856810649213587
2.217821782178218,4.916863248797235
2.237623762376238,4.980252514176105
2.257425742574257,5.046608016023748
2.2772277227722775,5.115558265077098
2.297029702970297,5.18673376699914
2.3168316831683167,5.259769619947472
2.336633663366337,5.334307675056391
2.3564356435643563,5.4099982917188765
2.376237623762376,5.486501726865943
2.3960396039603964,5.563489201113934
2.4158415841584158,5.640643685472785
2.4356435643564356,5.717660451031363
2.455445544554456,5.79424742132772
2.4752475247524752,5.870125363525313
2.495049504950495,5.945027950486957
2.514851485148515,6.018701721690916
2.5346534653465347,6.090905966896638
2.5544554455445545,6.161412552689502
2.5742574257425743,6.2300057086022065
2.594059405940594,6.296481786466353
2.6138613861386135,6.360649003998792
2.633663366336634,6.422327181361734
2.6534653465346536,6.481347477525008
2.673267326732673,6.537552131669879
2.6930693069306932,6.590794213568913
2.712871287128713,6.640937385818318
2.7326732673267324,6.687855679952228
2.7524752475247527,6.731433287800365
2.7722772277227725,6.771564368931718
2.792079207920792,6.808152874632403
2.811881188118812,6.8411123885728475
2.8316831683168315,6.870365984109978
2.8514851485148514,6.895846098027713
2.8712871287128716,6.917494420430712
2.891089108910891,6.935261800461269
2.910891089108911,6.949108167498107
2.9306930693069306,6.959002467511385
2.9504950495049505,6.9649226142842915
2.9702970297029703,6.966855455262841
2.99009900990099,6.96479675185834
3.00990099009901,6.958751174096772
3.0297029702970297,6.9487323095839315
3.0495049504950495,6.934762686830612
3.0693069306930694,6.916873813056408
3.089108910891089,6.895106226659924
3.108910891089109,6.869509564605208
3.128712871287129,6.84014264502373
3.148514851485148,6.807073565366089
3.1683168316831685,6.770379816449994
3.1881188118811883,6.7301484127376225
3.2079207920792077,6.686476039125092
3.227722772277228,6.639469214434569
3.2475247524752473,6.589244471649091
3.267326732673267,6.535928554713378
3.2871287128712874,6.479658631419805
3.3069306930693068,6.420582521491546
3.3267326732673266,6.358858938440226
3.346534653465347,6.294657743088092
3.366336633663366,6.228160205774682
3.386138613861386,6.159559273182402
3.4059405940594063,6.089059834378243
3.4257425742574257,6.01687897904237
3.4455445544554455,5.943246238901747
3.4653465346534653,5.868403801073635
3.485148514851485,5.792606679324475
3.504950495049505,5.716122826152351
3.5247524752475248,5.639233165117025
3.5445544554455446,5.562231519016823
3.564356435643564,5.485424405437605
3.5841584158415842,5.409130667034746
3.603960396039604,5.333680899890986
3.6237623762376234,5.259416639758896
3.6435643564356437,5.1866892633957775
3.6633663366336635,5.115858561099259
3.683168316831683,5.047290937633452
3.702970297029703,4.981357202760628
3.722772277227723,4.9184299203499275
3.7425742574257423,4.858880297243424
3.762376237623762,4.803074610243989
3.7821782178217824,4.751370191912942
3.801980198019802,4.70411102295276
3.8217821782178216,4.661623009722226
3.841584158415842,4.624209057997002
3.8613861386138613,4.592144085742791
3.881188118811881,4.565670145046783
3.9009900990099013,4.5449918427652705
3.9207920792079207,4.530272257380317
3.9405940594059405,4.5216295432923514
3.96039603960396,4.519134391978701
3.98019801980198,4.522808482634804
4.0,4.53262400561605
4.01980198019802,4.54850428455165
4.03960396039604,4.570325462984769
4.0594059405940595,4.597919164780537
4.079207920792079,4.6310759897814275
4.099009900990099,4.669549671387394
4.118811881188119,4.713061703141469
4.138613861386139,4.761306237246229
4.158415841584159,4.8139550676618645
4.178217821782178,4.870662531172087
4.198019801980198,4.931070187976919
4.217821782178218,4.994811175315878
4.237623762376238,5.061514160053859
4.257425742574258,5.1308068464838925
4.2772277227722775,5.202319022042603
4.297029702970297,5.275685145226483
4.316831683168317,5.350546496450391
4.336633663366336,5.426552924129506
4.356435643564357,5.503364225451468
4.376237623762377,5.58065120487272
4.3960396039603955,5.658096454110264
4.415841584158416,5.735394896059709
4.435643564356436,5.812254132316082
4.455445544554455,5.888394630357557
4.475247524752476,5.963549782405108
4.4950495049504955,6.037465863815923
4.514851485148514,6.109901914829732
4.534653465346535,6.180629565712546
4.554455445544555,6.249432821916726
4.574257425742574,6.316107822839482
4.594059405940594,6.380462585121985
4.613861386138614,6.442316739173409
4.633663366336633,6.501501265702157
4.653465346534653,6.557858237454564
4.673267326732674,6.611240570063511
4.693069306930693,6.66151178485666
4.712871287128713,6.708545785632729
4.732673267326733,6.752226650750027
4.752475247524752,6.792448441356973
4.772277227722772,6.82911502620229
4.792079207920793,6.862139923172931
4.811881188118812,6.891446157500008
4.8316831683168315,6.9169661364326265
4.851485148514852,6.938641540092881
4.871287128712871,6.956423228181209
4.891089108910891,6.970271162191646
4.910891089108912,6.98015434281251
4.930693069306931,6.9860507622253065
4.9504950495049505,6.987947371066517
4.97029702970297,6.985840059879844
4.99009900990099,6.979733654957558
5.00990099009901,6.969641928543741
5.02970297029703,6.9555876234485465
5.0495049504950495,6.937602492196736
5.069306930693069,6.915727350903248
5.089108910891089,6.8900121481303165
5.108910891089109,6.860516049030184
5.128712871287129,6.827307535111556
5.148514851485149,6.790464519980127
5.1683168316831685,6.750074481388157
5.188118811881188,6.706234609877451
5.207920792079208,6.659051974204687
5.227722772277227,6.60864370358608
5.247524752475248,6.555137186577257
5.267326732673268,6.498670286096502
5.2871287128712865,6.439391569686473
5.306930693069307,6.377460553568085
5.326732673267327,6.313047958344383
5.346534653465346,6.246335973331893
5.366336633663367,6.177518525398798
5.3861386138613865,6.1068015468369055
5.405940594059405,6.034403235150577
5.425742574257426,5.960554295672536
5.445544554455446,5.885498155579647
5.465346534653465,5.809491135157092
5.485148514851486,5.732802559033014
5.504950495049505,5.655714786593461
5.524752475247524,5.578523136932555
5.544554455445545,5.50153567959341
5.564356435643565,5.425072858169793
5.584158415841584,5.349466909809908
5.603960396039604,5.275061040133884
5.623762376237624,5.202208310500901
5.643564356435643,5.131270193515956
5.663366336633663,5.06261475383602
5.683168316831684,4.996614415489083
5.702970297029703,4.9336432848492295
5.7227722772277225,4.874074010835699
5.742574257425743,4.81827418134131
5.762376237623762,4.766602277494971
5.782178217821782,4.719403234724675
5.801980198019803,4.677003690602827
5.821782178217822,4.6397070321935905
5.841584158415841,4.60778838733942
5.861386138613861,4.581489731621529
5.881188118811881,4.561015301895759
5.900990099009901,4.546527514828855
5.920792079207921,4.5381435820438485
5.9405940594059405,4.535932991046097
5.96039603960396,4.539915983633833
5.98019801980198,4.550063113607149
6.0,4.566295907693884
6.01980198019802,4.5884885933410775
6.03960396039604,4.616470800378172
6.0594059405940595,4.650031095978336
6.079207920792079,4.68892117789811
6.099009900990099,4.732860531845683
6.118811881188119,4.781541355182807
6.138613861386139,4.8346335593801335
6.158415841584159,4.8917896847989955
6.178217821782178,4.952649589864848
6.198019801980198,5.016844808849669
6.217821782178218,5.084002505012802
6.237623762376237,5.153748976187582
6.257425742574258,5.225712696292555
6.2772277227722775,5.299526897746439
6.297029702970296,5.374831716104492
6.316831683168317,5.451275929654391
6.336633663366337,5.528518333780375
6.356435643564356,5.606228793371316
6.376237623762377,5.684089017200411
6.396039603960396,5.7617930967964215
6.415841584158415,5.839047849520856
6.435643564356436,5.915573001912231
6.455445544554456,5.991101245285897
6.475247524752475,6.065378191407337
6.495049504950495,6.13816225200934
6.514851485148515,6.209224462145198
6.534653465346534,6.278348263944801
6.554455445544554,6.345329264306197
6.574257425742575,6.409974977418801
6.594059405940594,6.472104560761682
6.6138613861386135,6.5315485513227385
6.633663366336634,6.588148607207685
6.653465346534653,6.641757258514457
6.673267326732673,6.692237670299931
6.693069306930694,6.739463419628652
6.712871287128713,6.783318288032189
6.732673267326732,6.823696070196195
6.752475247524753,6.860500399303155
6.772277227722772,6.893644589170825
6.792079207920792,6.923051493121028
6.811881188118813,6.948653379374649
6.8316831683168315,6.970391822683273
6.851485148514851,6.988217611865444
6.871287128712871,7.002090672906858
6.891089108910891,7.011980007300725
6.910891089108911,7.017863645342899
6.930693069306931,7.019728614148524
6.9504950495049505,7.017570920221495
6.97029702970297,7.0113955464785755
6.99009900990099,7.001216463705644
7.00990099009901,6.987056656499884
7.02970297029703,6.968948163826215
7.0495049504950495,6.946932134386349
7.069306930693069,6.921058897060141
7.089108910891089,6.8913880467290936
7.108910891089109,6.857988545825009
7.128712871287128,6.82093884195876
7.148514851485149,6.780327001967802
7.1683168316831685,6.736250862668991
7.188118811881187,6.688818198505751
7.207920792079208,6.638146906124316
7.227722772277228,6.584365205688913
7.247524752475247,6.527611858433281
7.267326732673268,6.46803639952726
7.287128712871287,6.4057993847880565
7.306930693069306,6.341072649060612
7.326732673267327,6.2740395731997
7.346534653465347,6.2048953554740285
7.366336633663366,6.133847281843535
7.3861386138613865,6.061114987897022
7.405940594059406,5.986930703240399
7.425742574257425,5.911539466762305
7.445544554455446,5.835199298448119
7.465346534653466,5.758181310254398
7.485148514851485,5.680769735006969
7.504950495049505,5.603261848395687
7.524752475247524,5.525967755004495
7.544554455445544,5.449210005100514
7.564356435643565,5.373323004857559
7.584158415841584,5.298652179154442
7.603960396039604,5.225552843530585
7.623762376237624,5.15438874088203
7.643564356435643,5.085530199736146
7.663366336633663,5.0193518752271205
7.683168316831684,4.956230042005105
7.702970297029703,4.896539420968959
7.7227722772277225,4.840649539430066
7.742574257425743,4.7889206472259955
7.762376237623762,4.741699238989274
7.782178217821782,4.699313264092076
7.801980198019803,4.662067138764631
7.821782178217822,4.630236706733612
7.841584158415841,4.604064322007484
7.861386138613862,4.58375424640865
7.881188118811881,4.569468561596804
7.900990099009901,4.561323787964681
7.92079207920792,4.55938837968461
7.9405940594059405,4.563681227000726
7.96039603960396,4.57417124629265
7.980198019801979,4.590778079980712
8.0,4.613373867700003
8.01980198019802,4.641785993378242
8.03960396039604,4.675800665351558
8.05940594059406,4.715167152480845
8.07920792079208,4.759602480519335
8.099009900990099,4.808796389829407
8.118811881188119,4.862416366262571
8.138613861386139,4.920112578626365
8.158415841584159,4.98152258502652
8.178217821782178,5.046275702796475
8.198019801980198,5.113996969428269
8.217821782178218,5.184310652333818
8.237623762376238,5.25684329166236
8.257425742574258,5.331226281851452
8.277227722772277,5.407098013847649
8.297029702970297,5.484105611255935
8.316831683168317,5.561906300648658
8.336633663366337,5.640168459636708
8.356435643564357,5.7185723868738565
8.376237623762377,5.796810836687076
8.396039603960396,5.87458935816241
8.415841584158416,5.951626474817854
8.435643564356436,6.027653736888889
8.455445544554456,6.102415674056761
8.475247524752476,6.175669672385625
8.495049504950495,6.247185795445402
8.514851485148515,6.316746566164858
8.534653465346535,6.384146722922116
8.554455445544555,6.449192960741958
8.574257425742575,6.511703666216935
8.594059405940595,6.571508652873059
8.613861386138613,6.6284489021257835
8.633663366336634,6.682376313680809
8.653465346534654,6.733153468188249
8.673267326732672,6.7806534041233055
8.693069306930694,6.824759410208067
8.712871287128714,6.865364834179711
8.732673267326732,6.9023729083227705
8.752475247524753,6.935696591897671
8.772277227722773,6.965258430393247
8.792079207920791,6.990990431394333
8.811881188118813,7.012833956770996
8.831683168316832,7.030739630855209
8.85148514851485,7.044667264262682
8.871287128712872,7.054585793036372
8.891089108910892,7.060473232826717
8.91089108910891,7.062316647877401
8.930693069306932,7.060112134650395
8.950495049504951,7.0538648199957565
8.97029702970297,7.0435888738477
8.990099009900991,7.02930753650564
9.00990099009901,7.01105316063414
9.029702970297029,6.988867268185592
9.04950495049505,6.962800622512136
9.06930693069307,6.932913315982438
9.089108910891088,6.899274873453039
9.10891089108911,6.86196437195501
9.12871287128713,6.821070576939623
9.148514851485148,6.7766920953737495
9.16831683168317,6.728937545875941
9.188118811881187,6.677925745927705
9.207920792079207,6.623785915965726
9.227722772277229,6.566657899843985
9.247524752475247,6.506692400729841
9.267326732673267,6.444051230941228
9.287128712871288,6.378907573517443
9.306930693069306,6.311446252411556
9.326732673267326,6.241864007065462
9.346534653465348,6.170369765741148
9.366336633663366,6.097184910295623
9.386138613861386,6.022543523064532
9.405940594059407,5.94669260412546
9.425742574257425,5.869892244422142
9.445544554455445,5.792415737033142
9.465346534653467,5.714549605278362
9.485148514851485,5.636593522422968
9.504950495049505,5.5588600935607495
9.524752475247526,5.4816744660048355
9.544554455445544,5.405373730433842
9.564356435643564,5.330306071489734
9.584158415841586,5.256829623970243
9.603960396039604,5.1853109897944565
9.623762376237623,5.116123372249317
9.643564356435645,5.049644288432142
9.663366336633663,4.986252829093679
9.683168316831683,4.9263264479824
9.702970297029704,4.8702372808036065
9.722772277227723,4.818348017161365
9.742574257425742,4.771007376904499
9.762376237623764,4.728545273974913
9.782178217821782,4.691267784144739
9.801980198019802,4.6594520650918545
9.821782178217823,4.633341404614727
9.841584158415841,4.613140591648319
9.861386138613861,4.599011811574332
9.881188118811881,4.591071259449311
9.900990099009901,4.589386641009108
9.92079207920792,4.593975692371988
9.94059405940594,4.604805798035894
9.96039603960396,4.621794727635613
9.98019801980198,4.644812450770513
10.0,4.673683932124225
10.01980198019802,4.708192761533826
10.03960396039604,4.748085439650508
10.05940594059406,4.793076121452553
10.07920792079208,4.842851617163708
10.099009900990099,4.897076461338234
10.118811881188119,4.955397882964842
10.138613861386139,5.017450538730676
10.158415841584159,5.082860904350664
10.178217821782178,5.1512512518146725
10.198019801980198,5.222243170973261
10.217821782178218,5.295460620353387
10.237623762376238,5.370532513557392
10.257425742574258,5.447094863823151
10.277227722772277,5.524792520583503
10.297029702970297,5.603280538757207
10.316831683168317,5.682225224793692
10.336633663366337,5.761304903983578
10.356435643564357,5.840210451995984
10.376237623762377,5.918645630678537
10.396039603960396,5.996327264405009
10.415841584158416,6.072985289106772
10.435643564356436,6.148362701894822
10.455445544554454,6.22221543508867
10.475247524752476,6.294312174659118
10.495049504950495,6.364434139644996
10.514851485148514,6.432374836055678
10.534653465346535,6.497939796126227
10.554455445544555,6.560946311534706
10.574257425742573,6.621223167291586
10.594059405940595,6.678610381434725
10.613861386138614,6.732958954371318
10.633663366336632,6.784130630662135
10.653465346534654,6.831997675208468
10.673267326732674,6.876442665144731
10.693069306930692,6.917358298230604
10.712871287128714,6.95464721815106
10.732673267326733,6.98822185684748
10.752475247524751,7.0180042938004075
10.772277227722773,7.043926132048745
10.792079207920793,7.065928390647076
10.81188118811881,7.083961413223155
10.831683168316832,7.097984792290682
10.851485148514852,7.107967308992446
10.87128712871287,7.113886887988585
10.891089108910892,7.1157305672594795
10.910891089108912,7.11349448265887
