Frequency (Hz),Amplitude
0.0,5.935148314374876
0.020066889632107024,5.939487952301008
0.04013377926421405,5.952470856758131
0.060200668896321065,5.973989847994261
0.0802675585284281,6.0038690713162906
0.10033444816053512,6.041867997597344
0.12040133779264213,6.087686708112107
0.14046822742474915,6.140972186422944
0.1605351170568562,6.201325309135557
0.1806020066889632,6.268308222383333
0.20066889632107024,6.3414518089831935
0.22073578595317725,6.420262987182806
0.24080267558528426,6.504231629520093
0.2608695652173913,6.5928369432365175
0.2809364548494983,6.68555320642128
0.3010033444816054,6.781854802415824
0.3210702341137124,6.881220536254914
0.34113712374581934,6.983137249729222
0.3612040133779264,7.087102775828207
0.3812709030100334,7.192628289479113
0.4013377926421405,7.299240120750878
0.42140468227424743,7.4064811003773725
0.4414715719063545,7.51391150693162
0.4615384615384615,7.621109681498238
0.4816053511705685,7.727672370308969
0.5016722408026756,7.833214849378217
0.5217391304347826,7.937370878347285
0.5418060200668896,8.039792523978498
0.5618729096989966,8.140149887339705
0.5819397993311036,8.23813076287063
0.6020066889632107,8.333440252318542
0.6220735785953176,8.425800351999797
0.6421404682274248,8.514949527970362
0.6622073578595318,8.600642290429574
0.6822742474916387,8.682648775978208
0.7023411371237458,8.760754344140533
0.7224080267558528,8.83475919277398
0.7424749163879598,8.904477995567236
0.7625418060200668,8.969739563710636
0.7826086956521738,9.03038653295996
0.802675585284281,9.08627507666189
0.8227424749163879,9.137274644827574
0.8428093645484949,9.18326772899791
0.862876254180602,9.224149652412374
0.882943143812709,9.259828384851007
0.903010033444816,9.290224381446599
0.923076923076923,9.315270444747592
0.9431438127090299,9.334911609338162
0.963210702341137,9.349105048381482
0.983277591973244,9.357820001536497
1.0033444816053512,9.361037723801903
1.0234113712374582,9.358751454957686
1.0434782608695652,9.350966409399946
1.0635451505016722,9.337699786296083
1.0836120401337792,9.31898080011944
1.1036789297658862,9.294850731754005
1.1237458193979932,9.265363000485562
1.1438127090301002,9.23058325731298
1.1638795986622072,9.190589500117557
1.1839464882943145,9.145472211314095
1.2040133779264215,9.095334518668492
1.2240802675585283,9.040292379995325
1.2441471571906353,8.980474792435176
1.2642140468227423,8.91602402694348
1.2842809364548495,8.847095888485626
1.3043478260869565,8.773860002208686
1.3244147157190636,8.696500125526079
1.3444816053511706,8.615214485581397
1.3645484949832773,8.53021614091931
1.3846153846153846,8.441733365346543
1.4046822742474916,8.35001005087171
1.4247491638795986,8.255306125216883
1.4448160535117056,8.157897977641113
1.4648829431438126,8.058078884643722
1.4849498327759196,7.956159424458562
1.5050167224080266,7.852467866044592
1.5250836120401337,7.747350514464865
1.5451505016722407,7.6411719900809185
1.5652173913043477,7.534315413854492
1.5852842809364547,7.427182465268508
1.605351170568562,7.32019327304094
1.625418060200669,7.213786092085228
1.6454849498327757,7.108416713363587
1.6655518394648827,7.004557546830621
1.6856187290969897,6.902696312200505
1.705685618729097,6.803334268623144
1.725752508361204,6.706983913563569
1.745819397993311,6.614166084471902
1.765886287625418,6.5254064055522125
1.7859531772575248,6.441231037424622
1.806020066889632,6.362161710856672
1.826086956521739,6.288710057682535
1.846153846153846,6.221371292414306
1.866220735785953,6.160617345658038
1.8862876254180598,6.106889602697037
1.9063545150501673,6.060591453446047
1.926421404682274,6.022080908044509
1.9464882943143813,5.991663569422872
1.966555183946488,5.969586273977214
1.9866220735785953,5.956031708766117
2.0066889632107023,5.951114285280447
2.026755852842809,5.9548774957823225
2.0468227424749164,5.967292901954183
2.0668896321070234,5.9882608139759474
2.0869565217391304,6.017612620433925
2.1070234113712374,6.055114635930441
2.1270903010033444,6.100473253492614
2.1471571906354514,6.1533411302527785
2.1672240802675584,6.21332410154494
2.1872909698996654,6.279988511131234
2.2073578595317724,6.352868661136535
2.2274247491638794,6.431474119493484
2.2474916387959865,6.515296669124159
2.267558528428094,6.603816735413664
2.2876254180602005,6.696509181193376
2.3076923076923075,6.792848407133378
2.3277591973244145,6.892312737289665
2.3478260869565215,6.994388103103575
2.367892976588629,7.098571064105253
2.3879598662207355,7.204371220471899
2.408026755852843,7.311313082497292
2.4280936454849495,7.418937466255172
2.4481605351170566,7.5268024846370025
2.468227424749164,7.634484199769328
2.4882943143812706,7.741576997643866
2.508361204013378,7.847693739495439
2.5284280936454846,7.952465737701024
2.548494983277592,8.055542597225617
2.568561872909699,8.156591957226626
2.5886287625418056,8.255299161545349
2.608695652173913,8.351366881562614
2.6287625418060196,8.444514710311934
2.648829431438127,8.534478742815226
2.668896321070234,8.621011154294175
2.688963210702341,8.703879785157898
2.709030100334448,8.78286773941085
2.7290969899665547,8.857773001299183
2.749163879598662,8.928408073555968
2.769230769230769,8.994599639458727
2.789297658862876,9.056188250024338
2.809364548494983,9.113028036991981
2.82943143812709,9.164986451745014
2.849498327759197,9.21194402996448
2.869565217391304,9.253794181563304
2.8896321070234112,9.29044300529713
2.9096989966555182,9.32180912736745
2.9297658862876252,9.347823563308808
2.9498327759197323,9.368429602472405
2.9698996655518393,9.383582714473222
2.9899665551839463,9.393250477048523
3.0100334448160533,9.39741252487543
3.0301003344481603,9.396060519009538
3.0501672240802673,9.38919813672959
3.0702341137123748,9.376841081702333
3.0903010033444813,9.359017114512282
3.1103678929765888,9.33576610373076
3.1304347826086953,9.30714009782289
3.1505016722408024,9.273203418307332
3.1705685618729094,9.234032774686304
3.1906354515050164,9.189717401748142
3.210702341137124,9.140359219904816
3.2307692307692304,9.086073019254782
3.250836120401338,9.026986668047437
3.270903010033445,8.963241346157801
3.2909698996655514,8.89499180404375
3.311036789297659,8.822406647435871
3.3311036789297654,8.74566864767916
3.351170568561873,8.664975077181046
3.3712374581939795,8.580538068789231
3.391304347826087,8.492584997089168
3.411371237458194,8.401358878530946
3.4314381270903005,8.307118785919819
3.451505016722408,8.21014027107739
3.471571906354515,8.110715787342201
3.491638795986622,8.009155100963516
3.511705685618729,7.905785677289745
3.531772575250836,7.800953023903272
3.551839464882943,7.695020968465215
3.5719063545150496,7.588371843987387
3.591973244147157,7.481406548568653
3.612040133779264,7.374544440402429
3.632107023411371,7.268223022252377
3.652173913043478,7.16289736288861
3.672240802675585,7.05903919660961
3.692307692307692,6.957135636552242
3.712374581939799,6.857687433820911
3.732441471571906,6.761206713557845
3.752508361204013,6.668214122124067
3.7725752508361197,6.579235327877829
3.7926421404682276,6.494796832934313
3.8127090301003346,6.4154210758902765
3.832775919732441,6.34162083647915
3.852842809364548,6.273892992421298
3.872909698996655,6.212711725225483
3.8929765886287626,6.158521322940151
3.9130434782608696,6.111728779975653
3.933110367892976,6.072696441943387
3.953177257525083,6.041734980937185
3.9732441471571907,6.0190970076564305
3.9933110367892977,6.004971625985666
4.013377926421405,5.999480209849158
4.033444816053511,6.002673631035131
4.053511705685618,6.014531093351305
4.073578595317726,6.034960639352852
4.093645484949833,6.0638012998833375
4.113712374581939,6.1008267638076905
4.133779264214047,6.145750365101811
4.153846153846153,6.198231124380293
4.173913043478261,6.257880546404446
4.193979933110368,6.324269865066567
4.214046822742475,6.3969374405562185
4.234113712374581,6.475396045260262
4.254180602006689,6.559139819491954
4.274247491638796,6.647650729198971
4.294314381270903,6.740404409800698
4.314381270903009,6.836875328863903
4.334448160535117,6.936541242470815
4.354515050167224,7.038886954268639
4.374581939799331,7.143407411885359
4.394648829431437,7.249610193085984
4.414715719063545,7.3570174447108965
4.434782608695651,7.465167342344595
4.454849498327759,7.573615139133856
4.474916387959866,7.68193386945493
4.494983277591973,7.789714768301621
4.5150501672240795,7.896567461211453
4.535117056856188,8.002119972945662
4.555183946488294,8.106018596483388
4.575250836120401,8.207927657518274
4.595317725752508,8.307529203766142
4.615384615384615,8.404522643119895
4.635451505016722,8.49862435006592
4.655518394648829,8.589567255800862
4.6755852842809364,8.677100434124517
4.695652173913043,8.760988692380094
4.71571906354515,8.841012174406888
4.735785953177258,8.916965980597968
4.7558528428093645,8.988659808655402
4.775919732441471,9.055917617451241
4.795986622073578,9.118577315480586
4.816053511705686,9.17649047469012
4.8361204013377925,9.229522069940824
4.856187290969899,9.277550243984495
4.8762541806020065,9.320466097571751
4.896321070234113,9.358173504141396
4.916387959866221,9.390588948447602
4.936454849498328,9.417641388447022
4.956521739130435,9.439272139779407
4.976588628762541,9.455434782222529
4.996655518394649,9.466095087576335
5.016722408026756,9.471230968525903
5.036789297658863,9.470832448141781
5.056856187290969,9.46490164979547
5.076923076923077,9.453452807392761
5.096989966555184,9.436512295954788
5.117056856187291,9.414118682702728
5.137123745819398,9.386322798923155
5.157190635451505,9.353187833003615
5.177257525083611,9.314789445127357
5.197324414715719,9.271215904197318
5.217391304347826,9.222568247615937
5.237458193979933,9.168960464571537
5.257525083612039,9.110519703464115
5.277591973244148,9.047386504032056
5.297658862876254,8.979715054601394
5.317725752508361,8.907673474653901
5.337792642140468,8.83144412257746
5.357859531772575,8.751223927996179
5.377926421404682,8.667224747447904
5.397993311036789,8.579673741346731
5.418060200668896,8.488813769095646
5.438127090301003,8.394903797851187
5.458193979933109,8.298219318734565
5.478260869565218,8.199052762172565
5.498327759197324,8.097713901476142
5.518394648829431,7.994530230663506
5.538461538461538,7.889847298853578
5.558528428093646,7.7840289792533435
5.578595317725752,7.677457645824142
5.598662207357859,7.570534225160388
5.618729096989966,7.463678085034649
5.638795986622073,7.357326714621373
5.65886287625418,7.2519351448867475
5.678929765886288,7.147975051442718
5.698996655518394,7.045933476897815
5.719063545150501,6.9463111061747815
5.739130434782608,6.849620027380731
5.759197324414716,6.756380913760294
5.7792642140468224,6.667119570300117
5.799331103678929,6.582362802948629
5.8193979933110365,6.502633590253217
5.839464882943144,6.42844556716599
5.8595317725752505,6.360296868787482
5.879598662207358,6.298663426859218
5.8996655518394645,6.243991861576945
5.919732441471571,6.196692162104754
5.9397993311036785,6.157130396089481
5.959866220735786,6.125621725706215
5.9799331103678925,6.102424029357181
5.999999999999999,6.087732428950036
6.020066889632107,6.081674999403103
6.040133779264214,6.0843098891320535
6.060200668896321,6.095624010506036
6.080267558528428,6.1155333735662225
6.100334448160535,6.143885043089572
6.120401337792642,6.180460607972499
6.1404682274247495,6.224980972176301
6.160535117056856,6.2771122155861505
6.180602006688963,6.336472235689648
6.200668896321069,6.4026378682713645
6.2207357859531776,6.47515219552635
6.240802675585284,6.553531778902497
6.260869565217391,6.637273595976061
6.280936454849498,6.725861509769084
6.301003344481605,6.8187721496503135
6.321070234113712,6.915480130914762
6.341137123745819,7.015462582239852
6.361204013377926,7.118202984736895
6.381270903010033,7.223194352678007
6.40133779264214,7.329941804480016
6.421404682274248,7.437964584044077
6.441471571906354,7.546797598265133
6.461538461538461,7.655992537714497
6.481605351170568,7.7651186453818
6.501672240802676,7.873763194014606
6.521739130434782,7.981531726902392
6.54180602006689,8.088048110608744
6.561872909698996,8.192954441672093
6.581939799331103,8.295910843024554
6.60200668896321,8.396595180046953
6.622073578595318,8.494702720914042
6.642140468227424,8.589945761243113
6.662207357859531,8.682053229047122
6.682274247491639,8.770770282582882
6.702341137123746,8.855857910828208
6.722408026755852,8.937092543961798
6.742474916387959,9.014265679295084
6.762541806020066,9.087183526556348
6.782608695652174,9.155666675197498
6.80267558528428,9.219549785431727
6.822742474916388,9.278681303971384
6.842809364548494,9.33292320487874
6.862876254180601,9.38215075553618
6.882943143812709,9.426252307456606
6.903010033444816,9.465129111466625
6.9230769230769225,9.498695156684562
6.94314381270903,9.526877032666086
6.963210702341137,9.549613814089088
6.983277591973244,9.566856967385968
7.0033444816053505,9.578570278796276
7.023411371237458,9.584729803399172
7.0434782608695645,9.58532383478726
7.063545150501672,9.580352895155837
7.083612040133779,9.569829745700952
7.103678929765886,9.55377941734107
7.123745819397993,9.532239261897901
7.143812709030099,9.505259023987696
7.1638795986622075,9.472900933981292
7.183946488294314,9.43523982248488
7.204013377926421,9.392363256868771
7.224080267558528,9.34437170042122
7.2441471571906355,9.291378694722018
7.264214046822742,9.233511065805233
7.2842809364548495,9.170909154601615
7.304347826086956,9.103727072003496
7.324414715719063,9.032132978661814
7.34448160535117,8.9563093892843
7.364548494983278,8.876453500731436
7.384615384615384,8.792777542571432
7.404682274247491,8.705509147922577
7.424749163879598,8.614891741339534
7.444816053511706,8.521184939143092
7.464882943143812,8.424664955898372
7.48494983277592,8.325625008658506
7.505016722408026,8.224375708051367
7.525083612040134,8.121245422237733
7.545150501672239,8.01658059616084
7.565217391304348,7.910746004302019
7.585284280936455,7.804124910343691
7.605351170568561,7.697119101747296
7.625418060200669,7.590148761364625
7.645484949832775,7.483652131983887
7.665551839464882,7.378084923438235
7.685618729096991,7.273919405982874
7.705685618729096,7.17164312864599
7.725752508361204,7.0717571979268525
7.74581939799331,6.974774051486064
7.765886287625418,6.881214664444974
7.785953177257525,6.791605133785145
7.806020066889631,6.706472600312589
7.826086956521739,6.626340488750298
7.846153846153847,6.551723075375822
7.866220735785952,6.483119429187785
7.88628762541806,6.421006815879972
7.906354515050166,6.365833701755914
7.926421404682274,6.318012543671461
7.946488294314381,6.2779125964950575
7.966555183946488,6.24585300594119
7.986622073578595,6.222096476303227
8.006688963210701,6.20684380464216
8.02675585284281,6.200229552125834
8.046822742474916,6.202319078764417
8.066889632107022,6.213107102127515
8.08695652173913,6.232517859171651
8.107023411371236,6.260406860876247
8.127090301003344,6.2965641410581155
8.147157190635452,6.340718822404653
8.167224080267557,6.392544761759402
8.187290969899665,6.451666997722536
8.207357859531772,6.517668708304103
8.227424749163879,6.590098393317826
8.247491638795987,6.66847702169023
8.267558528428093,6.752304922690874
8.2876254180602,6.841068246592719
8.307692307692307,6.934244869130712
8.327759197324415,7.0313096609688825
8.347826086956522,7.131739085072521
8.367892976588628,7.235015119550445
8.387959866220736,7.340628530445638
8.408026755852843,7.448081538254493
8.42809364548495,7.556889934384595
8.448160535117056,7.666584710396312
8.468227424749163,7.776713264916479
8.488294314381271,7.88684025174119
8.508361204013378,7.996548128912946
8.528428093645484,8.105437463351967
8.548494983277592,8.213127039642112
8.568561872909697,8.319253815345686
8.588628762541806,8.42347275911853
8.608695652173914,8.525456602163775
8.628762541806019,8.624895528341739
8.648829431438127,8.721496823617798
8.668896321070234,8.814984501494987
8.68896321070234,8.905098917627086
8.709030100334449,8.991596383900504
8.729096989966555,9.074248789857156
8.749163879598662,9.152843237349403
8.769230769230768,9.22718169271336
8.789297658862875,9.297080659465102
8.809364548494983,9.362370873514244
8.82943143812709,9.422897022106609
8.849498327759196,9.478517487113223
8.869565217391303,9.529104112842006
8.889632107023411,9.574541998233604
8.909698996655518,9.614729313088533
8.929765886287624,9.649577137840252
8.949832775919733,9.679009326320173
8.96989966555184,9.702962390943197
8.989966555183946,9.721385409764236
9.010033444816054,9.734239954909192
9.030100334448159,9.741500041958817
9.050167224080267,9.743152099956928
9.070234113712376,9.73919496181783
9.09030100334448,9.729639875019208
9.110367892976589,9.714510532580498
9.130434782608695,9.693843124439994
9.150501672240802,9.667686409452124
9.17056856187291,9.636101808325787
9.190635451505017,9.599163517910167
9.210702341137123,9.556958647301148
9.23076923076923,9.50958737628224
9.250836120401337,9.457163136621434
9.270903010033445,9.399812816709707
9.290969899665551,9.337676989936389
9.311036789297658,9.270910167037046
9.331103678929765,9.199681072403758
9.351170568561873,9.124172943994509
9.37123745819398,9.044583855993709
9.391304347826086,8.961127062729418
9.411371237458194,8.874031361511205
9.4314381270903,8.783541470975598
9.451505016722408,8.689918420169278
9.471571906354516,8.593439941914278
9.49163879598662,8.494400861931016
9.511705685618729,8.393113472689855
9.531772575250837,8.289907877966993
9.551839464882942,8.18513229055029
9.57190635451505,8.079153261444416
9.591973244147155,7.972355814256208
9.612040133779264,7.865143453233329
9.632107023411372,7.7579380077719655
9.652173913043477,7.6511792702689165
9.672240802675585,7.545324378239591
9.692307692307692,7.4408468860528165
9.712374581939798,7.3382354669938765
9.732441471571907,7.237992183375625
9.752508361204013,7.14063026195997
9.77257525083612,7.046671315063019
9.792642140468226,6.956641955523766
9.812709030100335,6.871069767331248
9.832775919732441,6.790478614075662
9.852842809364548,6.715383295082416
9.872909698996656,6.646283594046519
9.89297658862876,6.5836578062666
9.91304347826087,6.527955876147025
9.933110367892976,6.479592323261848
9.953177257525082,6.438939178618013
9.97324414715719,6.406319187704142
9.993311036789297,6.381999558173317
10.013377926421404,6.3661865329207235
10.033444816053512,6.359021050747143
10.053511705685617,6.360575715945775
10.073578595317725,6.370853237034748
10.093645484949834,6.389786418338462
10.113712374581938,6.417239703348768
10.133779264214047,6.453012184193023
10.153846153846153,6.496841915490827
10.17391304347826,6.5484113104591515
10.193979933110368,6.607353357063215
10.214046822742475,6.673258374202338
10.234113712374581,6.745681031454946
10.254180602006688,6.824147377580284
10.274247491638796,6.9081616580954
10.294314381270903,6.997212745536343
10.31438127090301,7.090780052402472
10.334448160535118,7.188338841995046
10.354515050167223,7.289364893227537
10.37458193979933,7.393338510024274
10.394648829431437,7.499747893237069
10.414715719063544,7.60809191306409
10.434782608695652,7.717882333331895
10.454849498327757,7.8286455466469205
10.474916387959865,7.93992388244353
10.494983277591974,8.051276549466499
10.515050167224079,8.16228027124784
10.535117056856187,8.272529668544431
10.555183946488295,8.381637437198423
10.5752508361204,8.489234364005672
10.595317725752508,8.594969217317656
10.615384615384615,8.698508543523236
10.635451505016722,8.7995363954224
10.65551839464883,8.897754013901167
10.675585284280936,8.992879480278063
10.695652173913043,9.084647353211269
10.71571906354515,9.172808301101556
10.735785953177256,9.257128738453902
10.755852842809364,9.337390472619049
10.775919732441471,9.413390365671056
10.795986622073578,9.484940014836056
10.816053511705684,9.551865453822094
10.836120401337793,9.614006876566892
10.856187290969899,9.671218384279399
10.876254180602006,9.72336775616997
10.896321070234114,9.770336243912428
10.916387959866219,9.812018389635632
10.936454849498327,9.84832186708207
10.956521739130435,9.879167345478123
10.97658862876254,9.904488375622828
10.996655518394649,9.924231297705308
11.016722408026755,9.938355170398397
11.036789297658862,9.946831720837062
