Frequency (Hz),Amplitude
0.0,0.009722254097270344
0.020066889632107024,0.09928033028182887
0.04013377926421405,0.19774754947305875
0.060200668896321065,0.29617760827014133
0.0802675585284281,0.3943541765328751
0.10033444816053512,0.49215609790934844
0.12040133779264213,0.5894784945656127
0.14046822742474915,0.6862215179547065
0.1605351170568562,0.782287603552658
0.1806020066889632,0.8775806181523996
0.20066889632107024,0.9720055748895532
0.22073578595317725,1.0654685542941145
0.24080267558528426,1.1578767106763408
0.2608695652173913,1.2491383173557407
0.2809364548494983,1.3391628307526007
0.3010033444816054,1.4278609639690223
0.3210702341137124,1.5151447651286327
0.34113712374581934,1.6009276979298088
0.3612040133779264,1.6851247229607853
0.3812709030100334,1.7676523789013319
0.4013377926421405,1.8484288630533934
0.42140468227424743,1.9273741108253324
0.4414715719063545,2.0044098739028096
0.4615384615384615,2.079459796906037
0.4816053511705685,2.1524494923756023
0.5016722408026756,2.2233066139567472
0.5217391304347826,2.2919609276711572
0.5418060200668896,2.358344381178387
0.5618729096989966,2.422391170938998
0.5819397993311036,2.4840378071987983
0.6020066889632107,2.5432231767195614
0.6220735785953176,2.5998886031864203
0.6421404682274248,2.6539779052264474
0.6622073578595318,2.7054374519765574
0.6822742474916387,2.7542162161424772
0.7023411371237458,2.800265824493606
0.7224080267558528,2.8435406057418455
0.7424749163879598,2.8839976357553936
0.7625418060200668,2.9215967800615
0.7826086956521738,2.956300733595142
0.802675585284281,2.9880750576534476
0.8227424749163879,3.016888214018652
0.8428093645484949,3.042711596215275
0.862876254180602,3.0655195578701218
0.882943143812709,3.085289438146695
0.903010033444816,3.1020015842285216
0.923076923076923,3.11563937082885
0.9431438127090299,3.126189216707237
0.963210702341137,3.1336405981764073
0.983277591973244,3.137986059585898
1.0033444816053512,3.139221220771949
1.0234113712374582,3.1373447814661044
1.0434782608695652,3.1323585226580533
1.0635451505016722,3.124267304911276
1.0836120401337792,3.113079063633044
1.1036789297658862,3.0988048013033804
1.1237458193979932,3.081458576670573
1.1438127090301002,3.0610574909239667
1.1638795986622072,3.037621670857566
1.1839464882943145,3.011174249041189
1.2040133779264215,2.9817413410187297
1.2240802675585283,2.949352019556171
1.2441471571906353,2.9140382859648732
1.2642140468227423,2.8758350385286517
1.2842809364548495,2.8347800380659933
1.3043478260869565,2.7909138706617926
1.3244147157190636,2.7442799076057107
1.3444816053511706,2.694924262577293
1.3645484949832773,2.642895746120733
1.3846153846153846,2.588245817455025
1.4046822742474916,2.5310285336682505
1.4247491638795986,2.4713004963474092
1.4448160535117056,2.4091207956983944
1.4648829431438126,2.3445509522135253
1.4849498327759196,2.2776548559473015
1.5050167224080266,2.208498703464412
1.5250836120401337,2.137150932527601
1.5451505016722407,2.0636821545972115
1.5652173913043477,1.9881650852189996
1.5852842809364547,1.91067447238279
1.605351170568562,1.831287022942008
1.625418060200669,1.7500813271943936
1.6454849498327757,1.6671377817382833
1.6655518394648827,1.5825385107396124
1.6856187290969897,1.4963672857761794
1.705685618729097,1.4087094444749695
1.725752508361204,1.3196518082390503
1.745819397993311,1.229282599496108
1.765886287625418,1.1376913591395685
1.7859531772575248,1.0449688652698443
1.806020066889632,0.9512070551807628
1.826086956521739,0.8564989542320683
1.846153846153846,0.7609386189070579
1.866220735785953,0.664621109873948
1.8862876254180598,0.5676425326742824
1.9063545150501673,0.4701002465964184
1.926421404682274,0.37209355541434624
1.9464882943143813,0.27372609880112614
1.966555183946488,0.17511666410476304
1.9866220735785953,0.0764945652328621
2.0066889632107023,0.024163242843474802
2.026755852842809,0.12201191213885568
2.0468227424749164,0.22069603717683883
2.0668896321070234,0.31923693248062684
2.0869565217391304,0.4174869732265284
2.1070234113712374,0.5153370029280584
2.1270903010033444,0.6126858209283856
2.1471571906354514,0.709435055211177
2.1672240802675584,0.8054878410644289
2.1872909698996654,0.9007484199142644
2.2073578595317724,0.9951220283881332
2.2274247491638794,1.088514896229055
2.2474916387959865,1.1808342902396969
2.267558528428094,1.2719885793598487
2.2876254180602005,1.3618873099244335
2.3076923076923075,1.4504412858551283
2.3277591973244145,1.537562651081453
2.3478260869565215,1.623164972702709
2.367892976588629,1.707163324018302
2.3879598662207355,1.7894743668823363
2.408026755852843,1.8700164330217126
2.4280936454849495,1.948709604062812
2.4481605351170566,2.025475790075951
2.468227424749164,2.1002388064865283
2.4882943143812706,2.1729244492276134
2.508361204013378,2.243460568025932
2.5284280936454846,2.311777137725285
2.548494983277592,2.377806327560293
2.568561872909699,2.441482568299881
2.5886287625418056,2.5027426171854708
2.608695652173913,2.5615256205930668
2.6287625418060196,2.617773174352473
2.648829431438127,2.6714293816602654
2.668896321070234,2.722440908526376
2.688963210702341,2.770757036697222
2.709030100334448,2.8163297140013004
2.7290969899665547,2.859113602065961
2.749163879598662,2.8990661213571407
2.769230769230769,2.936147493496374
2.789297658862876,2.970320780812612
2.809364548494983,3.001551923088868
2.82943143812709,3.029809771466939
2.849498327759197,3.0550661194759456
2.869565217391304,3.0772957311536824
2.8896321070234112,3.0964763662324883
2.9096989966555182,3.1125888023643253
2.9297658862876252,3.125616854362733
2.9498327759197323,3.1355473904422997
2.9698996655518393,3.1423703454392293
2.9899665551839463,3.146078730999633
3.0100334448160533,3.1466686427251855
3.0301003344481603,3.1441392642687838
3.0501672240802673,3.1384928683757685
3.0702341137123748,3.129734814869619
3.0903010033444813,3.1178735455835986
3.1103678929765888,3.1029205762432306
3.1304347826086953,3.084890485307357
3.1505016722408024,3.0638008997784842
3.1705685618729094,3.0396724779962514
3.1906354515050164,3.0125288894307594
3.210702341137124,2.9823967914954985
3.2307692307692304,2.949305803402512
3.250836120401338,2.913288477085486
3.270903010033445,2.8743802652192065
3.2909698996655514,2.8326194863668115
3.311036789297659,2.7880472872891113
3.3311036789297654,2.7407076024529315
3.351170568561873,2.690647110778459
3.3712374581939795,2.637915189668061
3.391304347826087,2.582563866361894
3.411371237458194,2.5246477666683362
3.4314381270903005,2.464224061119672
3.451505016722408,2.401352408606383
3.471571906354515,2.3360948975455726
3.491638795986622,2.268515984641864
3.511705685618729,2.198682431301431
3.531772575250836,2.1266632377622146
3.551839464882943,2.0525295750060497
3.5719063545150496,1.9763547145204592
3.591973244147157,1.8982139559808273
3.612040133779264,1.8181845529257683
3.632107023411371,1.7363456365015306
3.652173913043478,1.6527781373541732
3.672240802675585,1.5675647057517996
3.692307692307692,1.480789630023624
3.712374581939799,1.3925387534086129
3.732441471571906,1.3028993894153877
3.752508361204013,1.211960235808796
3.7725752508361197,1.1198112873623847
3.7926421404682276,1.0265437475579184
3.8127090301003346,0.9322499394942505
3.832775919732441,0.837023216432169
3.852842809364548,0.7409578727616669
3.872909698996655,0.6441490570314522
3.8929765886287626,0.5466926909198206
3.9130434782608696,0.4486854047080369
3.933110367892976,0.3502245235099739
3.953177257525083,0.2514082463246775
3.9732441471571907,0.15233689996866862
3.9933110367892977,0.05312933611056862
4.013377926421405,0.04627338529130773
4.033444816053511,0.1455008773137928
4.053511705685618,0.2446240583591892
4.073578595317726,0.3435185848113059
4.093645484949833,0.4420837119887869
4.113712374581939,0.5402210055683747
4.133779264214047,0.637832897240223
4.153846153846153,0.7348224785052468
4.173913043478261,0.8310935084120986
4.193979933110368,0.9265504765608547
4.214046822742475,1.0210986839191218
4.234113712374581,1.1146443300643536
4.254180602006689,1.207094602714276
4.274247491638796,1.2983577678113913
4.294314381270903,1.3883432593366754
4.314381270903009,1.4769617684080925
4.334448160535117,1.5641253313929564
4.354515050167224,1.6497474168477162
4.374581939799331,1.733743011142762
4.394648829431437,1.8160287026543502
4.414715719063545,1.896522764419995
4.434782608695651,1.9751452351627274
4.454849498327759,2.0518179985957135
4.474916387959866,2.126464860923245
4.494983277591973,2.199011626457621
4.5150501672240795,2.269386171274426
4.535117056856188,2.3375185148313506
4.555183946488294,2.403340889478361
4.575250836120401,2.4667878077892285
4.595317725752508,2.527796127646998
4.615384615384615,2.586305115018293
4.635451505016722,2.642256504353672
4.655518394648829,2.6955945565538575
4.6755852842809364,2.7462661144439355
4.695652173913043,2.794220655700252
4.71571906354515,2.839410343177215
4.735785953177258,2.8817900725838412
4.7558528428093645,2.921317517462489
4.775919732441471,2.9579531714249185
4.795986622073578,2.991660387603521
4.816053511705686,3.0224054152783273
4.8361204013377925,3.0501574336432054
4.856187290969899,3.074888582677456
4.8762541806020065,3.096573991091939
4.896321070234113,3.115191801321659
4.916387959866221,3.130723191539793
4.936454849498328,3.1431523946709294
4.956521739130435,3.152466714384404
4.976588628762541,3.158656538051491
4.996655518394649,3.1617153466533043
5.016722408026756,3.1616397216291636
5.036789297658863,3.158429348658375
5.056856187290969,3.152087018371201
5.076923076923077,3.1426186239880525
5.096989966555184,3.1300331558888037
5.117056856187291,3.1143426931172846
5.137123745819398,3.095562391828973
5.157190635451505,3.0737104706930314
5.177257525083611,3.0488081932627304
5.197324414715719,3.02087984733147
5.217391304347826,2.9899527212944674
5.237458193979933,2.9560570775392905
5.257525083612039,2.919226122891334
5.277591973244148,2.879495976143236
5.297658862876254,2.836905632700307
5.317725752508361,2.7914969263768747
5.337792642140468,2.7433144883813165
5.357859531772575,2.692405703530538
5.377926421404682,2.638820663737508
5.397993311036789,2.582612118818284
5.418060200668896,2.523835424667915
5.438127090301003,2.462548488857524
5.458193979933109,2.39881171370776
5.478260869565218,2.332687936897001
5.498327759197324,2.2642423696656926
5.518394648829431,2.193542532681785
5.538461538461538,2.120658189635838
5.558528428093646,2.0456612786386326
5.578595317725752,1.9686258414991125
5.598662207357859,1.889627950966648
5.618729096989966,1.8087456360294691
5.638795986622073,1.7260588053720523
5.65886287625418,1.6416491691092803
5.678929765886288,1.5556001589379178
5.698996655518394,1.4679968468804188
5.719063545150501,1.3789258628514152
5.739130434782608,1.2884753113685106
5.759197324414716,1.1967346878859997
5.7792642140468224,1.1037947955110334
5.799331103678929,1.0097476633864704
5.8193979933110365,0.9146864690566971
5.839464882943144,0.8187054692827219
5.8595317725752505,0.7218999485746355
5.879598662207358,0.6243662063760944
5.8996655518394645,0.5262016353341331
5.919732441471571,0.4275050406022724
5.9397993311036785,0.32837771403536004
5.959866220735786,0.228927568188596
5.9799331103678925,0.12929286511693833
5.999999999999999,0.030142580637896182
6.020066889632107,0.07109899183082471
6.040133779264214,0.17072928920898517
6.060200668896321,0.2703740915362456
6.080267558528428,0.3697980533262568
6.100334448160535,0.4688819502714376
6.120401337792642,0.5675213344326565
6.1404682274247495,0.6656158694982737
6.160535117056856,0.7630670404695402
6.180602006688963,0.8597775073996375
6.200668896321069,0.9556509174921582
6.2207357859531776,1.0505918754728658
6.240802675585284,1.1445059771044197
6.260869565217391,1.237299870536245
6.280936454849498,1.328881330731948
6.301003344481605,1.4191593401940217
6.321070234113712,1.5080441726126212
6.341137123745819,1.5954474776382754
6.361204013377926,1.6812823657522773
6.381270903010033,1.7654634926109527
6.40133779264214,1.8479071424594005
6.421404682274248,1.928531310334809
6.441471571906354,2.007255782853331
6.461538461538461,2.0840022174195476
6.481605351170568,2.1586942197264336
6.501672240802676,2.2312574194325157
6.521739130434782,2.3016195439161713
6.54180602006689,2.369710490016192
6.561872909698996,2.435462393674899
6.581939799331103,2.4988096974055147
6.60200668896321,2.559689215510131
6.622073578595318,2.6180401969784675
6.642140468227424,2.6738043860012453
6.662207357859531,2.7269260800350903
6.682274247491639,2.777352185359029
6.702341137123746,2.8250322700655968
6.722408026755852,2.8699186144324753
6.742474916387959,2.911966258623372
6.762541806020066,2.951133047669781
6.782608695652174,2.9873796736880354
6.80267558528428,3.0206697152890034
6.822742474916388,3.0509696741405286
6.842809364548494,3.0782490086457583
6.862876254180601,3.1024801647032505
6.882943143812709,3.12363860351784
6.903010033444816,3.1417028264341282
6.9230769230769225,3.1566543967673897
6.94314381270903,3.168477958609826
6.963210702341137,3.177161252593012
6.983277591973244,3.1826951285904923
7.0033444816053505,3.185073555347452
7.023411371237458,3.1842936270276248
7.0434782608695645,3.180355566670478
7.063545150501672,3.173262726555051
7.083612040133779,3.1630215854697328
7.103678929765886,3.1496417428904757
7.123745819397993,3.133135910073194
7.143812709030099,3.1135198980689363
7.1638795986622075,3.090812602673901
7.183946488294314,3.0650359863293897
7.204013377926421,3.036215056989836
7.224080267558528,3.004377843980567
7.2441471571906355,2.9695553708698
7.264214046822742,2.9317816253830395
7.2842809364548495,2.8910935263908746
7.304347826086956,2.8475308880050565
7.324414715719063,2.8011363808207217
7.34448160535117,2.7519554903465773
7.364548494983278,2.7000364726683617
7.384615384615384,2.6454303073950003
7.404682274247491,2.588190647941215
7.424749163879598,2.528373769204909
7.444816053511706,2.466038512703254
7.464882943143812,2.4012462292374424
7.48494983277592,2.334060719163561
7.505016722408026,2.264548170356198
7.525083612040134,2.192777093962852
7.545150501672239,2.118818258062422
7.565217391304348,2.0427446193611036
7.585284280936455,1.9646312530869636
7.605351170568561,1.884555281283478
7.625418060200669,1.8025957997590885
7.645484949832775,1.7188338040335736
7.665551839464882,1.633352114748825
7.685618729096991,1.5462353032084897
7.705685618729096,1.4575696180244107
7.725752508361204,1.3674429143607365
7.74581939799331,1.2759445881324045
7.765886287625418,1.1831655190259098
7.785953177257525,1.089198028951825
7.806020066889631,0.9941358677344547
7.826086956521739,0.8980742482079349
7.846153846153847,0.801109974840996
7.866220735785952,0.7033417599956356
7.88628762541806,0.6048709462663144
7.906354515050166,0.5058031992364967
7.926421404682274,0.40625284892482294
7.946488294314381,0.3063559525905966
7.966555183946488,0.20632173674680945
7.986622073578595,0.106773846368504
8.006688963210701,0.022033678780604467
8.02675585284281,0.09939025310805509
8.046822742474916,0.19888249731508037
8.066889632107022,0.2990105346604998
8.08695652173913,0.39906374377734455
8.107023411371236,0.4988215229555877
8.127090301003344,0.5981446677534284
8.147157190635452,0.6969174227911871
8.167224080267557,0.7950331628604462
8.187290969899665,0.892389708227715
8.207357859531772,0.9888875156371717
8.227424749163879,1.0844289105767504
8.247491638795987,1.1789177515887879
8.267558528428093,1.2722592929689613
8.2876254180602,1.3643601459132437
8.307692307692307,1.4551282915230461
8.327759197324415,1.5444731223697077
8.347826086956522,1.6323055002607314
8.367892976588628,1.7185378233124555
8.387959866220736,1.803084098305673
8.408026755852843,1.8858600158788446
8.42809364548495,1.9667830270151085
8.448160535117056,2.0457724198121388
8.468227424749163,2.1227493958487753
8.488294314381271,2.1976371456658503
8.508361204013378,2.270360923009517
8.528428093645484,2.3408481175716314
8.548494983277592,2.409028326019953
8.568561872909697,2.4748334211509335
8.588628762541806,2.5381976190264917
8.608695652173914,2.599057543976506
8.628762541806019,2.657352291364244
8.648829431438127,2.713023488023516
8.668896321070234,2.766015350285656
8.68896321070234,2.8162747395217407
8.709030100334449,2.863751215131907
8.729096989966555,2.9083970849187666
8.749163879598662,2.9501674527867796
8.769230769230768,2.989020263713742
8.789297658862875,3.0249163459444293
8.809364548494983,3.057819450360255
8.82943143812709,3.087696286982324
8.849498327759196,3.114516558568749
8.869565217391303,3.1382529912704364
8.889632107023411,3.1588813623129264
8.909698996655518,3.1763805246750567
8.929765886287624,3.1907324287385737
8.949832775919733,3.201922140886008
8.96989966555184,3.2099378590273897
8.989966555183946,3.214770925039602
9.010033444816054,3.216415834105471
9.030100334448159,3.214870240942907
9.050167224080267,3.210134962917708
9.070234113712376,3.2022139800369462
9.09030100334448,3.191114431823202
9.110367892976589,3.1768466110731817
9.130434782608695,3.159423954507766
9.150501672240802,3.1388630303238925
9.17056856187291,3.115183522662153
9.190635451505017,3.0884082130076607
9.210702341137123,3.0585629585452896
9.23076923076923,3.0256766674941464
9.250836120401337,2.9897812714502074
9.270903010033445,2.950911694769969
9.290969899665551,2.909105821032473
9.311036789297658,2.8644044566216404
9.331103678929765,2.8168512914761115
9.351170568561873,2.7664928570592324
9.37123745819398,2.7133784816086726
9.391304347826086,2.657560242732112
9.411371237458194,2.5990929174246693
9.4314381270903,2.5380339295942385
9.451505016722408,2.4744432951940736
9.471571906354516,2.4083835650787035
9.49163879598662,2.339919765720766
9.511705685618729,2.2691193379547845
9.531772575250837,2.196052073951932
9.551839464882942,2.120790052682039
9.57190635451505,2.0434075741917486
9.591973244147155,1.9639810931307207
9.612040133779264,1.8825891521066085
9.632107023411372,1.7993123156685888
9.652173913043477,1.7142331060478964
9.672240802675585,1.6274359422876132
9.692307692307692,1.5390070851838555
9.712374581939798,1.4490345917299492
9.732441471571907,1.3576082848518012
9.752508361204013,1.2648197477940166
9.77257525083612,1.17076235881177
9.792642140468226,1.075531393368159
9.812709030100335,0.9792242431880147
9.832775919732441,0.8819408463323742
9.852842809364548,0.7837845189777926
9.872909698996656,0.684863603785921
9.89297658862876,0.5852949213663377
9.91304347826087,0.4852116516324948
9.933110367892976,0.38478377469523883
9.953177257525082,0.2842821798189715
9.97324414715719,0.18435206052703543
9.993311036789297,0.08813409279796117
10.013377926421404,0.04776598194872591
10.033444816053512,0.13253238705537937
10.053511705685617,0.23145673059507585
10.073578595317725,0.3319282642271171
10.093645484949834,0.43262934970779054
10.113712374581938,0.5331579834756071
10.133779264214047,0.6333042023092135
10.153846153846153,0.7329188454624836
10.17391304347826,0.831877236718822
10.193979933110368,0.9300663913379152
10.214046822742475,1.027379747201171
10.234113712374581,1.1237147515686055
10.254180602006688,1.2189716746701331
10.274247491638796,1.3130530025179254
10.294314381270903,1.4058631242202582
10.31438127090301,1.497308178187528
10.334448160535118,1.5872959882659967
10.354515050167223,1.6757360527490428
10.37458193979933,1.7625395654069487
10.394648829431437,1.8476194563038828
10.414715719063544,1.9308904449672573
10.434782608695652,2.0122691012411904
10.454849498327757,2.091673910804682
10.474916387959865,2.16902534334646
10.494983277591974,2.244245922025491
10.515050167224079,2.317260293256732
10.535117056856187,2.3879952961322433
10.555183946488295,2.456380030969938
10.5752508361204,2.522345926606681
10.595317725752508,2.5858268061398024
10.615384615384615,2.6467589508827505
10.635451505016722,2.705081162345488
10.65551839464883,2.760734822083223
10.675585284280936,2.8136639492817745
10.695652173913043,2.8638152559669283
10.71571906354515,2.9111381997399
10.735785953177256,2.9555850339528877
10.755852842809364,2.9971108552483785
10.775919732441471,3.0356736483939604
10.795986622073578,3.071234328351305
