Time (s),Filtered Signal
0.0,-0.003571339065404917
0.0334075723830735,-0.2545507414566083
0.066815144766147,-0.4743935545738945
0.1002227171492205,-0.6307495890957928
0.133630289532294,-0.6921504239522202
0.1670378619153675,-0.6357766822647345
0.200445434298441,-0.45790361808903307
0.23385300668151449,-0.18163560918179758
0.267260579064588,0.1433163598858186
0.3006681514476615,0.4509085720607398
0.334075723830735,0.6765609333039334
0.3674832962138085,0.7761949847713359
0.400890868596882,0.7392386080888979
0.4342984409799555,0.5905685065352908
0.46770601336302897,0.38077601930142785
0.5011135857461025,0.1687210955908269
0.534521158129176,0.003125287590915865
0.5679287305122495,-0.0901246827686758
0.601336302895323,-0.11104554719406876
0.6347438752783965,-0.07922523245543629
0.66815144766147,-0.022050125017406944
0.7015590200445435,0.03679418957258636
0.734966592427617,0.08374587859751433
0.7683741648106905,0.11496327963379195
0.801781737193764,0.1309914164780503
0.8351893095768375,0.1307687414288353
0.868596881959911,0.10911533919320103
0.9020044543429845,0.059338332786620755
0.9354120267260579,-0.020809705549079516
0.9688195991091315,-0.12385680867238505
1.002227171492205,-0.2318506201427311
1.0356347438752784,-0.32139079491284755
1.069042316258352,-0.3723880155721322
1.1024498886414256,-0.37629975214616374
1.135857461024499,-0.339770421738438
1.1692650334075725,-0.2819251891945773
1.202672605790646,-0.2266491319138739
1.2360801781737194,-0.19337406888926653
1.269487750556793,-0.1902122860176932
1.3028953229398665,-0.21184190480083498
1.33630289532294,-0.24233943496257426
1.3697104677060135,-0.2613194511514772
1.403118040089087,-0.25095157357958864
1.4365256124721606,-0.20164966484728966
1.469933184855234,-0.11499245334430933
1.5033407572383075,-0.0032879036156295573
1.536748329621381,0.11401553726199043
1.5701559020044544,0.2160919763993468
1.603563474387528,0.2869870665143157
1.6369710467706016,0.3203097124075767
1.670378619153675,0.32066276312296016
1.7037861915367485,0.3012016594034711
1.737193763919822,0.27817889469956186
1.7706013363028954,0.26453517243208763
1.804008908685969,0.2649862897716727
1.8374164810690425,0.2744602521530666
1.8708240534521159,0.28043197501281764
1.9042316258351895,0.26822629713658597
1.937639198218263,0.2272708806461148
1.9710467706013366,0.1559406113012732
2.00445434298441,0.06312967956458675
2.0378619153674835,-0.034148368539669544
2.071269487750557,-0.11635601993600048
2.1046770601336307,-0.16815522788537418
2.138084632516704,-0.18362640811946288
2.1714922048997773,-0.1678765101794745
2.204899777282851,-0.13445576975629062
2.2383073496659245,-0.09986856114059314
2.271714922048998,-0.07770836837298511
2.3051224944320716,-0.07487720001490974
2.338530066815145,-0.09101766748164654
2.3719376391982183,-0.12049770088972894
2.405345211581292,-0.1551141118041412
2.4387527839643655,-0.18579337527054676
2.472160356347439,-0.20282148121562188
2.5055679287305126,-0.19564602922173155
2.538975501113586,-0.15397816723797697
2.5723830734966593,-0.07119727704426301
2.605790645879733,0.05071732004444744
2.6391982182628064,0.19720659684290331
2.67260579064588,0.3410169244777626
2.7060133630289536,0.44755610435761756
2.739420935412027,0.4848406712913051
2.7728285077951007,0.43473193474863947
2.806236080178174,0.3010078395904297
2.8396436525612474,0.1105430425011862
2.873051224944321,-0.09371573115462502
2.9064587973273945,-0.2660487783020221
2.939866369710468,-0.372818026498087
2.9732739420935417,-0.40312077083691134
3.006681514476615,-0.37090458281254274
3.0400890868596884,-0.30765982946895587
3.073496659242762,-0.24878121893449942
3.1069042316258355,-0.2193269159467475
3.140311804008909,-0.22501171132469436
3.1737193763919826,-0.2518985451066659
3.207126948775056,-0.2745298065368159
3.2405345211581293,-0.268738539311051
3.273942093541203,-0.22345199623510745
3.3073496659242765,-0.1461601598173064
3.34075723830735,-0.05929079895704142
3.3741648106904236,0.011341209052948227
3.407572383073497,0.051014560672667776
3.4409799554565703,0.06646685068410964
3.474387527839644,0.08610034856923901
3.5077951002227175,0.14816283889263154
3.541202672605791,0.2809355915067512
3.5746102449888646,0.4838455821650946
3.608017817371938,0.7194790031002953
3.6414253897550113,0.922413632942097
3.674832962138085,1.0229345023509384
3.7082405345211584,0.9757670882104219
3.7416481069042318,0.7803289104847075
3.7750556792873056,0.4822149189679159
3.808463251670379,0.15461082420216837
3.8418708240534527,-0.13149605370815137
3.875278396436526,-0.33373840834090557
3.9086859688195994,-0.4490018440250216
3.942093541202673,-0.5046669571496281
3.9755011135857465,-0.5371920157552766
4.00890868596882,-0.5706848820279392
4.042316258351893,-0.606586931562365
4.075723830734967,-0.6281587826767335
4.109131403118041,-0.6149055747428244
4.142538975501114,-0.5573039001683062
4.1759465478841875,-0.46337421365092657
4.209354120267261,-0.3543592482176171
4.242761692650334,-0.2532545094890701
4.276169265033408,-0.17347815597228214
4.309576837416482,-0.11397166950739218
4.342984409799555,-0.06265141630076099
4.3763919821826285,-0.0052949521365465695
4.409799554565702,0.06559436372592668
4.443207126948775,0.14660179389291442
4.476614699331849,0.22541506224642835
4.510022271714923,0.2871899342534279
4.543429844097996,0.3216128799906533
4.5768374164810695,0.3273062283382786
4.610244988864143,0.31195834843903164
4.643652561247216,0.28858354044823425
4.67706013363029,0.2697555171457785
4.710467706013364,0.26221532261678454
4.743875278396437,0.26400201442384924
4.77728285077951,0.2653445887128799
4.810690423162584,0.2531601731659806
4.844097995545657,0.21747309991912422
4.877505567928731,0.15699616551630666
4.910913140311805,0.08112745295267029
4.944320712694878,0.006962883585253969
4.977728285077951,-0.047823207106929784
5.011135857461025,-0.07323992740770971
5.044543429844098,-0.07249249523945671
5.077951002227172,-0.0617833085278638
5.111358574610246,-0.06389510852249158
5.144766146993319,-0.09793788119347122
5.178173719376392,-0.1696090185052466
5.211581291759466,-0.2664081984998703
5.244988864142539,-0.3603463485462974
5.278396436525613,-0.4175616822814434
5.311804008908687,-0.41123060601275335
5.34521158129176,-0.33255865577908983
5.378619153674833,-0.19521469383504847
5.412026726057907,-0.031180186241212937
5.445434298440981,0.1204297877125131
5.478841870824054,0.22702124154589087
5.512249443207128,0.27307922068196994
5.545657015590201,0.26352051974570584
5.579064587973274,0.21899383381335727
5.612472160356348,0.16576919019591652
5.645879732739422,0.12492947831337477
5.679287305122495,0.10535161294243417
5.712694877505569,0.10275152008749859
5.746102449888642,0.10413582705617921
5.779510022271715,0.09485254358573451
5.812917594654789,0.06496181901321704
5.846325167037863,0.012723655076736127
5.879732739420936,-0.055306379326968726
5.91314031180401,-0.12678039349126446
5.946547884187083,-0.18740147612870936
5.979955456570156,-0.22498355843082268
6.01336302895323,-0.232848164922135
6.046770601336304,-0.21178843939533645
6.080178173719377,-0.16996003377541644
6.1135857461024505,-0.12047963606131745
6.146993318485524,-0.07725758917684523
6.180400890868597,-0.05035963771253962
6.213808463251671,-0.04256288041744876
6.247216035634745,-0.04848912883399226
6.280623608017818,-0.05681725238675202
6.3140311804008915,-0.05490709818340601
6.347438752783965,-0.03414986595274743
6.380846325167038,0.006088725797116618
6.414253897550112,0.05769309981994311
6.447661469933186,0.1067959708878119
6.481069042316259,0.1395978353970648
6.5144766146993325,0.14871369384987404
6.547884187082406,0.1372460951489997
6.581291759465479,0.11845427989567109
6.614699331848553,0.11061226810717908
6.648106904231627,0.1288096378066191
6.6815144766147,0.1771211027638637
6.7149220489977735,0.24487674538995624
6.748329621380847,0.309315582695969
6.78173719376392,0.3441215756131545
6.815144766146994,0.33042054331144943
6.848552338530068,0.26525229620321494
6.881959910913141,0.16334234759228622
6.915367483296214,0.05105019315583287
6.948775055679288,-0.04474686265000001
6.982182628062361,-0.10743013234559295
7.015590200445435,-0.13582671382938252
7.048997772828509,-0.14156086570211104
7.082405345211582,-0.14055472526185736
7.115812917594655,-0.1437385076243521
7.149220489977729,-0.152210405928566
7.182628062360802,-0.15930031207325912
7.216035634743876,-0.15785407445620872
7.24944320712695,-0.147931703104953
7.282850779510023,-0.13979674414327617
7.316258351893096,-0.14979008825557655
7.34966592427617,-0.1909378491756559
7.383073496659243,-0.2635237279853074
7.416481069042317,-0.3513558719476966
7.449888641425391,-0.42663177137541086
7.4832962138084635,-0.46158317977724644
7.516703786191537,-0.44105794570681855
7.550111358574611,-0.3692314551392557
7.583518930957685,-0.26652094206523347
7.616926503340758,-0.1581190181213296
7.650334075723832,-0.06042896795505893
7.683741648106905,0.02681043365003084
7.717149220489978,0.11786306599900913
7.750556792873052,0.2288536670165666
7.783964365256126,0.3628064118352637
7.817371937639199,0.5006526720094617
7.850779510022273,0.6043694158927027
7.884187082405346,0.6322984787163025
7.917594654788419,0.5601765214888449
7.951002227171493,0.39774693085590357
7.984409799554567,0.19192735525982293
8.01781737193764,0.013063524606828972
8.051224944320714,-0.0715431250427704
8.084632516703786,-0.026287663407366255
8.118040089086861,0.1345099979437843
8.151447661469934,0.347879737944762
8.184855233853007,0.5240928726539799
8.218262806236082,0.5811648253841052
8.251670378619155,0.47783025271660484
8.285077951002227,0.23081849820837924
8.318485523385302,-0.09125746884809154
8.351893095768375,-0.39484797228762397
8.385300668151448,-0.5975011972310376
8.418708240534523,-0.6575114566572648
8.452115812917596,-0.5851870963617368
8.485523385300668,-0.43254444615789467
8.518930957683743,-0.2678991526236653
8.552338530066816,-0.14772083176761966
8.585746102449889,-0.0977947479935803
8.619153674832964,-0.1100039965835318
8.652561247216036,-0.15326456407362776
8.68596881959911,-0.19126286623956051
8.719376391982184,-0.19814657678713016
8.752783964365257,-0.1661604324228822
8.78619153674833,-0.1042009275291324
8.819599109131405,-0.030497329862861564
8.853006681514477,0.03582813829455324
8.88641425389755,0.08080212541488585
8.919821826280625,0.09825703387519763
8.953229398663698,0.09005316387230629
8.98663697104677,0.06511390685932873
9.020044543429846,0.03754583386835733
9.053452115812918,0.023195944016217534
9.086859688195991,0.03431654095982859
9.120267260579066,0.07361040748400792
9.153674832962139,0.1305957075307636
9.187082405345212,0.18334877502896385
9.220489977728286,0.20652359643696508
9.25389755011136,0.18299612140340563
9.287305122494432,0.11364935013596007
9.320712694877507,0.019720624367728607
9.35412026726058,-0.06467864943616289
9.387527839643653,-0.1072457219202566
9.420935412026727,-0.09263775376399218
9.4543429844098,-0.030571008978988623
9.487750556792873,0.047493372324916606
9.521158129175948,0.10192186732567583
9.55456570155902,0.10260214860840958
9.587973273942094,0.04270902231877699
9.621380846325168,-0.05753690681326453
9.654788418708241,-0.1585487996947519
9.688195991091314,-0.2169627304941116
9.721603563474389,-0.20255219772877578
9.755011135857462,-0.1097997254762185
9.788418708240535,0.039983694229535835
9.82182628062361,0.20622220452713141
9.855233853006682,0.34298211835249454
9.888641425389755,0.41389961275732473
9.92204899777283,0.402934786752735
9.955456570155903,0.31769406390626137
9.988864142538976,0.18491324993830133
10.02227171492205,0.04037856774906849
10.055679287305123,-0.08280200380718492
10.089086859688196,-0.16352791810385814
10.12249443207127,-0.19686684749853314
10.155902004454344,-0.1924087144776905
10.189309576837417,-0.16829853346707638
10.222717149220491,-0.14373674685306756
10.256124721603564,-0.13279433183148273
10.289532293986637,-0.1413422435129889
10.322939866369712,-0.1673322339659129
10.356347438752785,-0.20332231369014583
10.389755011135858,-0.23955963520749338
10.423162583518932,-0.26626195790238794
10.456570155902005,-0.2746839663467584
10.489977728285078,-0.25752502029247515
10.523385300668153,-0.20963319178590867
10.556792873051226,-0.12953122104431872
10.590200445434299,-0.021322070269654908
10.623608017817373,0.10427057087793044
10.657015590200446,0.23094318385542056
10.69042316258352,0.3401720630858008
10.723830734966594,0.41578486359652383
10.757238307349667,0.4478450086331899
10.790645879732741,0.4342872506040739
10.824053452115814,0.38000104407274365
10.857461024498887,0.29438740120496526
10.890868596881962,0.1889451680975276
10.924276169265035,0.07590124811265495
10.957683741648108,-0.032233299301427605
10.991091314031182,-0.12317072556759148
11.024498886414255,-0.18640067853618103
11.057906458797328,-0.2159034101290713
11.091314031180403,-0.2129876775125005
11.124721603563476,-0.18755507544168146
11.158129175946549,-0.15639251316872632
11.191536748329623,-0.138308381231865
11.224944320712696,-0.14750266292758105
11.25835189309577,-0.1877030865171747
11.291759465478844,-0.24965768894848148
11.325167037861917,-0.31338543292665305
11.35857461024499,-0.35460941021967624
11.391982182628064,-0.35294127414342225
11.425389755011137,-0.29857981303146836
11.45879732739421,-0.19497997605939718
11.492204899777285,-0.05681649916673239
11.525612472160358,0.09536388264697136
11.55902004454343,0.24122025994932386
11.592427616926505,0.3650843166575538
11.625835189309578,0.45781145943910867
11.659242761692651,0.5164760723197093
11.692650334075726,0.5430396391935686
11.726057906458799,0.5427609892669291
11.759465478841872,0.5223146755686838
11.792873051224946,0.48724497776218434
11.82628062360802,0.43898737820473294
11.859688195991092,0.3728328433522461
11.893095768374167,0.2788219264991942
11.92650334075724,0.1466904607293756
11.959910913140313,-0.026317420694205135
11.993318485523387,-0.22842422865133646
12.02672605790646,-0.4315512732126892
12.060133630289533,-0.5973764227110737
12.093541202672608,-0.6898520927381003
12.12694877505568,-0.689045094502157
12.160356347438753,-0.5998624477506957
12.193763919821828,-0.45130254197215985
12.227171492204901,-0.2862406449055922
12.260579064587974,-0.14609973932370862
12.293986636971049,-0.056905827989003135
12.327394209354122,-0.022300700840079447
12.360801781737194,-0.02576954388182456
12.39420935412027,-0.04033780138526584
12.427616926503342,-0.04109678050609589
12.461024498886415,-0.015232111628154497
12.49443207126949,0.03419698830874071
12.527839643652563,0.09153983806772473
12.561247216035635,0.13676994014798696
12.59465478841871,0.15477050903234638
12.628062360801783,0.1418296571215054
12.661469933184856,0.10697107350897951
12.69487750556793,0.06794476658748787
12.728285077951004,0.04375101692023379
12.761692650334076,0.04680342955976002
12.795100222717151,0.07789340616596795
12.828507795100224,0.1259839919905372
12.861915367483297,0.17290643606558598
12.895322939866372,0.20097988372207656
12.928730512249444,0.2002882237290101
12.962138084632517,0.1724643076985988
12.995545657015592,0.129392681432504
13.028953229398665,0.08757405973940653
13.062360801781738,0.06087286613665
13.095768374164813,0.054988874009574536
13.129175946547885,0.06595166738690693
13.162583518930958,0.08284152304738894
13.195991091314033,0.09296725654782542
13.229398663697106,0.08690247979086822
13.262806236080179,0.06136022621761506
13.296213808463254,0.019302857065968917
13.329621380846326,-0.03199109980387649
13.3630289532294,-0.0836081605461422
13.396436525612474,-0.1273614102505934
13.429844097995547,-0.15736635493971332
13.46325167037862,-0.17085212625670618
13.496659242761694,-0.1683795938986359
13.530066815144767,-0.15353704022591677
13.56347438752784,-0.13205249679502837
13.596881959910915,-0.1102841722519956
13.630289532293988,-0.09329225478024564
13.66369710467706,-0.08306249762388328
13.697104677060135,-0.07768886712997929
13.730512249443208,-0.07214150776647618
13.763919821826281,-0.06058087656607834
13.797327394209356,-0.03934286920142622
13.830734966592429,-0.009245841369215385
13.864142538975502,0.023897420488131423
13.897550111358576,0.0508719921975032
13.93095768374165,0.062170637021656115
13.964365256124722,0.051501247057443744
13.997772828507797,0.018531978638162527
14.03118040089087,-0.029985465464957846
14.064587973273943,-0.0811418114628661
14.097995545657017,-0.11880926719947998
14.13140311804009,-0.12806447268143945
14.164810690423163,-0.10006079288900728
14.198218262806238,-0.03591648679502055
14.23162583518931,0.0518966961195246
14.265033407572384,0.141736823037932
14.298440979955458,0.20858081222403504
14.331848552338531,0.23202282569446359
14.365256124721604,0.20379523432552651
14.398663697104679,0.13168568675034265
14.432071269487752,0.03765416938035283
14.465478841870825,-0.04982525880416243
14.4988864142539,-0.10649115989474556
14.532293986636972,-0.1215400126833536
14.565701559020045,-0.10098186534975556
14.59910913140312,-0.06312962639964266
14.632516703786193,-0.028068360253555604
14.665924276169266,-0.006310757463125766
14.69933184855234,0.007196667410731793
14.732739420935413,0.029891465569933214
14.766146993318486,0.08017814075677063
14.79955456570156,0.1635029055733146
14.832962138084634,0.2637293675974528
14.866369710467707,0.34553645118037124
14.899777282850781,0.36807702916364393
14.933184855233854,0.3040178595420827
14.966592427616927,0.15465085807949577
15.0,-0.046924331316445404
