Time (s),Filtered Signal
0.0,0.040495558673328394
0.03337028824833703,-0.09411447861750243
0.06674057649667406,-0.22141852930710043
0.10011086474501109,-0.31440956921609353
0.13348115299334812,-0.32449275864225224
0.16685144124168516,-0.19906345468864842
0.20022172949002218,0.08795209710655211
0.2335920177383592,0.5098796599072041
0.26696230598669624,0.9823144075662537
0.3003325942350333,1.385914182505245
0.3337028824833703,1.6087798001286218
0.3670731707317073,1.5893896308609736
0.40044345898004435,1.3401571825385161
0.4338137472283814,0.9410699525001478
0.4671840354767184,0.5071552179676654
0.5005543237250555,0.145041360579605
0.5339246119733925,-0.08276851926158933
0.5672949002217295,-0.17265325706331214
0.6006651884700666,-0.17069549092859573
0.6340354767184035,-0.14650995930300778
0.6674057649667406,-0.1625256922073175
0.7007760532150776,-0.2509646459443644
0.7341463414634146,-0.40598966599905045
0.7675166297117517,-0.5916614224106536
0.8008869179600887,-0.7601888296550356
0.8342572062084257,-0.8716541718873776
0.8676274944567628,-0.9069665390421298
0.9009977827050998,-0.8697605250457852
0.9343680709534368,-0.7784202212226718
0.9677383592017739,-0.6538183353599057
1.001108647450111,-0.5096793548477154
1.0344789356984478,-0.35021166038846485
1.067849223946785,-0.17514221245161382
1.101219512195122,0.011990703735892146
1.134589800443459,0.19816926939526905
1.167960088691796,0.3620357307812182
1.2013303769401331,0.48187359066325147
1.23470066518847,0.5461960233569065
1.268070953436807,0.5607302732374755
1.3014412416851442,0.5470779188888443
1.3348115299334813,0.5325966558652486
1.3681818181818182,0.5359017832909043
1.4015521064301553,0.555272083116902
1.4349223946784924,0.5665100928446826
1.4682926829268292,0.5325321154230407
1.5016629711751663,0.4210615149289693
1.5350332594235034,0.22224088230003358
1.5684035476718403,-0.04266870330808718
1.6017738359201774,-0.32639394980386394
1.6351441241685145,-0.5727314194823314
1.6685144124168514,-0.7377252814822078
1.7018847006651885,-0.8049279390649254
1.7352549889135256,-0.7877369699409688
1.7686252771618625,-0.7184288694311808
1.8019955654101996,-0.6302672325978934
1.8353658536585367,-0.5423205854155659
1.8687361419068735,-0.45459405366089745
1.9021064301552106,-0.35490446842063267
1.9354767184035477,-0.232177240319883
1.9688470066518848,-0.08747678202693239
2.002217294900222,0.06396587656752997
2.035587583148559,0.20052666770307204
2.0689578713968957,0.3063995753593657
2.102328159645233,0.3802956169367329
2.13569844789357,0.43512900969500207
2.1690687361419068,0.4889470494705311
2.202439024390244,0.5527105278466219
2.235809312638581,0.6221994907913314
2.269179600886918,0.6785289681047554
2.302549889135255,0.6965758647758978
2.335920177383592,0.6564009206662053
2.369290465631929,0.5518652862638054
2.4026607538802662,0.3930581632657609
2.436031042128603,0.20280552370173402
2.46940133037694,0.010006844059079848
2.5027716186252773,-0.15725374805795408
2.536141906873614,-0.27726330980391234
2.569512195121951,-0.3387092294895568
2.6028824833702884,-0.3432003508305244
2.6362527716186253,-0.30554056656563494
2.6696230598669626,-0.2504849058325144
2.7029933481152995,-0.205511773000548
2.7363636363636363,-0.19126057555925025
2.7697339246119737,-0.2133995698489945
2.8031042128603105,-0.2600837022924342
2.8364745011086474,-0.30702392692674246
2.8698447893569847,-0.3283885710878769
2.9032150776053216,-0.3084522729537343
2.9365853658536585,-0.24819580410470124
2.969955654101996,-0.16358247015152175
3.0033259423503327,-0.07668146156737975
3.0366962305986696,-0.004647429085712614
3.070066518847007,0.047420785338589316
3.1034368070953438,0.08609108295022533
3.1368070953436806,0.1223699642518538
3.170177383592018,0.16214823039904608
3.203547671840355,0.20005321283852864
3.2369179600886917,0.2205093211880236
3.270288248337029,0.20586205207193115
3.303658536585366,0.14753199144689225
3.337028824833703,0.05426461084299735
3.37039911308204,-0.04743123043156423
3.403769401330377,-0.12199770547128673
3.437139689578714,-0.1394947941114819
3.470509977827051,-0.08965469058914617
3.503880266075388,0.011596959673839278
3.537250554323725,0.12690571939330234
3.5706208425720622,0.21191870610014726
3.603991130820399,0.2328884916828281
3.637361419068736,0.1792878521494895
3.6707317073170733,0.06588085085704985
3.70410199556541,-0.07578033531036732
3.737472283813747,-0.21117788371510382
3.7708425720620844,-0.314720945414006
3.8042128603104213,-0.3747249831770701
3.8375831485587586,-0.391247245581094
3.8709534368070955,-0.3705347474793051
3.9043237250554323,-0.3206339652476637
3.9376940133037697,-0.25031687923146473
3.9710643015521065,-0.17009183879927287
4.004434589800444,-0.09230393682932149
4.037804878048781,-0.02833441806561841
4.071175166297118,0.016310322574993794
4.1045454545454545,0.04590694328286498
4.137915742793791,0.0742211430859203
4.171286031042128,0.1190614344666196
4.204656319290466,0.19381182835269609
4.238026607538803,0.3000310037592674
4.27139689578714,0.4248989351492582
4.304767184035477,0.5449630272361822
4.3381374722838135,0.634593583171921
4.371507760532151,0.6753717562166204
4.404878048780488,0.6623215601827138
4.438248337028825,0.6044875665164386
4.471618625277162,0.5199669648272838
4.504988913525499,0.42785621945012847
4.538359201773836,0.3406655431684328
4.571729490022173,0.26028070126908254
4.60509977827051,0.17890191379071485
4.638470066518847,0.08433217717225923
4.671840354767184,-0.03270718905040303
4.705210643015521,-0.17233664608995075
4.738580931263858,-0.32306420178503537
4.771951219512196,-0.4643452124983227
4.8053215077605325,-0.5733169767281571
4.838691796008869,-0.6330743299042295
4.872062084257206,-0.6391898545407678
4.905432372505543,-0.6019852526071345
4.93880266075388,-0.5438569433706191
4.972172949002218,-0.49275742264023786
5.005543237250555,-0.4739189674501517
5.0389135254988915,-0.5019741043432128
5.072283813747228,-0.5752886375304886
5.105654101995565,-0.6740707523149619
5.139024390243902,-0.7635641117255622
5.17239467849224,-0.8027673864358408
5.205764966740577,-0.7572224540770233
5.239135254988914,-0.611972354121151
5.2725055432372505,-0.3792686442335982
5.305875831485587,-0.09655614641051773
5.339246119733925,0.18594442952689166
5.372616407982262,0.42358339081543733
5.405986696230599,0.5933642790675121
5.439356984478936,0.6997803700299822
5.472727272727273,0.7671163941056822
5.5060975609756095,0.8220154444818835
5.539467849223947,0.8757792499651164
5.572838137472284,0.9166464108427919
5.606208425720621,0.9171949112260931
5.639578713968958,0.8534342801682169
5.672949002217295,0.7247978919721091
5.706319290465632,0.562580625268941
5.7396895787139695,0.4199421898635168
5.773059866962306,0.34684252264411514
5.806430155210643,0.36259785384891036
5.83980044345898,0.4415260084314636
5.873170731707317,0.5211099313290972
5.906541019955654,0.5300506835032117
5.939911308203992,0.42219673510253347
5.9732815964523285,0.19845392269150225
6.006651884700665,-0.09487157546623783
6.040022172949002,-0.38966948103028476
6.073392461197339,-0.6277042080738878
6.106762749445676,-0.7826269715843532
6.140133037694014,-0.861277150766431
6.173503325942351,-0.886203801266389
6.2068736141906875,-0.8725276907703902
6.240243902439024,-0.8150149658664994
6.273614190687361,-0.694219971218342
6.306984478935698,-0.49821928354538864
6.340354767184036,-0.24612633441145398
6.373725055432373,0.0027809233006969142
6.40709534368071,0.16344859956867075
6.4404656319290465,0.15937455101340967
6.473835920177383,-0.03833699542853892
6.507206208425721,-0.38678310833192814
6.540576496674058,-0.7761015009409321
6.573946784922395,-1.064590973011327
6.607317073170732,-1.1309823800385232
6.640687361419069,-0.9218757037808714
6.674057649667406,-0.47361866164465366
6.707427937915743,0.10096883116511825
6.74079822616408,0.6548788858585161
6.774168514412417,1.059450785257308
6.807538802660754,1.2450281883586007
6.840909090909091,1.2146457857870525
6.874279379157428,1.0288911848771265
6.9076496674057655,0.7726078904531762
6.941019955654102,0.5201482593381479
6.974390243902439,0.31356740843307274
7.007760532150776,0.15978827618257907
7.041130820399113,0.04316554966468091
7.07450110864745,-0.05627415991084714
7.107871396895788,-0.1489736241960909
7.1412416851441245,-0.23181188697511335
7.174611973392461,-0.29304925903057083
7.207982261640798,-0.3210428806862198
7.241352549889135,-0.31099408836023607
7.274722838137472,-0.2666791599456526
7.30809312638581,-0.19773075373116875
7.341463414634147,-0.11528167160581018
7.3748337028824835,-0.028723159352460153
7.40820399113082,0.05534742720225435
7.441574279379157,0.1326983023151667
7.474944567627494,0.20094236068099217
7.508314855875832,0.25968087370642046
7.541685144124169,0.31086920088477077
7.575055432372506,0.35824206841759837
7.6084257206208425,0.40500525774775487
7.641796008869179,0.450253068653349
7.675166297117517,0.48587186775661323
7.708536585365854,0.49613112170956103
7.741906873614191,0.46130557282243184
7.775277161862528,0.3648004855110454
7.808647450110865,0.2012623186767133
7.842017738359202,-0.017874716273505002
7.875388026607539,-0.26435428825366464
7.908758314855876,-0.4994259928578798
7.942128603104213,-0.6847065084931852
7.97549889135255,-0.7937023483439101
8.008869179600888,-0.8196373204677777
8.042239467849225,-0.7765244555755222
8.075609756097561,-0.6929859099392228
8.108980044345898,-0.6011420219881543
8.142350332594235,-0.5248406070226072
8.175720620842572,-0.4717648488800871
8.209090909090909,-0.43237398940361654
8.242461197339246,-0.3858089081249518
8.275831485587583,-0.3100369997171024
8.30920177383592,-0.19188817049042306
8.342572062084257,-0.032958454508244445
8.375942350332595,0.15059834869190528
8.409312638580932,0.3336591549775037
8.442682926829269,0.49029096208971473
8.476053215077606,0.6010883445616568
8.509423503325943,0.6572321218654416
8.54279379157428,0.6605709679214513
8.576164079822616,0.6206733571350922
8.609534368070953,0.5506645840392654
8.64290465631929,0.4636030765943411
8.676274944567627,0.3704345446029173
8.709645232815964,0.2796150492719726
8.743015521064303,0.1976847952315032
8.77638580931264,0.12968724874952006
8.809756097560976,0.07856745885437123
8.843126385809313,0.04354826273237984
8.87649667405765,0.018582696633795356
8.909866962305987,-0.007415278876601665
8.943237250554324,-0.04738892354739674
8.97660753880266,-0.11048055501011513
9.009977827050998,-0.19627832038096243
9.043348115299334,-0.2922485400538879
9.076718403547671,-0.3766817089309071
9.110088691796008,-0.4268848943501406
9.143458980044347,-0.42936869815045753
9.176829268292684,-0.3870616989760264
9.21019955654102,-0.3193148684234461
9.243569844789358,-0.25362876135205314
9.276940133037694,-0.21229001983385457
9.310310421286031,-0.20025802580563126
9.343680709534368,-0.20079802778312056
9.377050997782705,-0.18204581042823162
9.410421286031042,-0.11232909579708528
9.443791574279379,0.02265884956608489
9.477161862527716,0.209302987317557
9.510532150776053,0.4079862895606901
9.543902439024391,0.5676445216984621
9.577272727272728,0.6469970034513338
9.610643015521065,0.6329100983856095
9.644013303769402,0.5471158394360185
9.677383592017739,0.43743926572559433
9.710753880266076,0.3566601441393051
9.744124168514412,0.33801158840903567
9.77749445676275,0.37834128983737153
9.810864745011086,0.4370250308493003
9.844235033259423,0.4519683965228679
9.87760532150776,0.3664173114881451
9.910975609756099,0.15525706297122757
9.944345898004435,-0.16067030385699055
9.977716186252772,-0.5188196903728884
10.01108647450111,-0.8365266649307735
10.044456762749446,-1.0412788172225629
10.077827050997783,-1.0972795003295734
10.11119733924612,-1.0174479207196578
10.144567627494457,-0.8561389987121251
10.177937915742794,-0.6858943520324862
10.21130820399113,-0.5679970249122579
10.244678492239467,-0.5288547674737001
10.278048780487804,-0.5515056673095017
10.311419068736143,-0.5850997338750007
10.34478935698448,-0.5677765191416807
10.378159645232817,-0.45300610822760234
10.411529933481154,-0.2284119243137651
10.44490022172949,0.08022903700679772
10.478270509977827,0.4203730312000794
10.511640798226164,0.7333484953087703
10.545011086474501,0.9745648738630336
10.578381374722838,1.1247747040863523
10.611751662971175,1.1889393462613385
10.645121951219512,1.1854702052381658
10.67849223946785,1.1328029961198467
10.711862527716187,1.040492000371551
10.745232815964524,0.9085814467261406
10.778603104212861,0.7340971521697617
10.811973392461198,0.5198118646359136
10.845343680709535,0.2797357219208194
10.878713968957872,0.038102217151421675
10.912084257206208,-0.17754546314740421
10.945454545454545,-0.34535836614195725
10.978824833702882,-0.45556635694353104
11.012195121951219,-0.5112953081615695
11.045565410199556,-0.5241457412675933
11.078935698447895,-0.5076547501308314
11.112305986696231,-0.4724371012241845
11.145676274944568,-0.4251259987657525
11.179046563192905,-0.3704988355795607
11.212416851441242,-0.31425927441803075
11.245787139689579,-0.26401928665647045
11.279157427937916,-0.2277859119464269
11.312527716186253,-0.2112617142474298
11.34589800443459,-0.2160295289726174
11.379268292682926,-0.23976764005429954
11.412638580931263,-0.27789061590283864
11.4460088691796,-0.32486892131415174
11.479379157427939,-0.37384458467586373
11.512749445676276,-0.41475084770795506
11.546119733924613,-0.4327577336283866
11.57949002217295,-0.4092650754897618
11.612860310421286,-0.32645418148183797
11.646230598669623,-0.17430729448875165
11.67960088691796,0.04267446704230313
11.712971175166297,0.30208884723321233
11.746341463414634,0.5654274415688048
11.77971175166297,0.7850179837355996
11.813082039911308,0.9144632934082312
11.846452328159646,0.920032052427065
11.879822616407983,0.7902253323378439
11.91319290465632,0.5409489694778189
11.946563192904657,0.2143665979336671
11.979933481152994,-0.12919349785194803
12.01330376940133,-0.4249315262460536
12.046674057649668,-0.6194164591074166
12.080044345898004,-0.6838602423504159
12.113414634146341,-0.6205159162538518
12.146784922394678,-0.46002470386329763
12.180155210643015,-0.25062953006144917
12.213525498891352,-0.04300935003599247
12.24689578713969,0.12402899958995323
12.280266075388028,0.23221762748514443
12.313636363636364,0.2843303549833361
12.347006651884701,0.29724977640109146
12.380376940133038,0.2912988164809109
12.413747228381375,0.28094826653201765
12.447117516629712,0.2710972104136522
12.480487804878049,0.26008944080253876
12.513858093126386,0.24681289323481456
12.547228381374723,0.23668229254687637
12.58059866962306,0.24173455123069024
12.613968957871396,0.27361868650260707
12.647339246119735,0.3330697649977763
12.680709534368072,0.40254759469547424
12.714079822616409,0.44788525082025227
12.747450110864746,0.4301479732467372
12.780820399113082,0.3230019482788254
12.81419068736142,0.1272093663091884
12.847560975609756,-0.12535600994522722
12.880931263858093,-0.3808957103023467
12.91430155210643,-0.5824767328779177
12.947671840354767,-0.6903778388122706
12.981042128603104,-0.6954620024717011
13.014412416851442,-0.6204519968954045
13.04778270509978,-0.5093732679926288
13.081152993348116,-0.41022038317134185
13.114523281596453,-0.3581162875161214
13.14789356984479,-0.3652387028450237
13.181263858093127,-0.42036831744557485
13.214634146341464,-0.49674264402639645
13.2480044345898,-0.5637678743977589
13.281374722838137,-0.5972531403756963
13.314745011086474,-0.584381757262953
13.348115299334811,-0.5227537251709694
13.381485587583148,-0.41593905710411283
13.414855875831487,-0.26946984477249813
13.448226164079824,-0.09026356414321092
13.48159645232816,0.11038574115504995
13.514966740576497,0.31322936261242307
13.548337028824834,0.49127981977576873
13.581707317073171,0.6166929098430889
13.615077605321508,0.6731701906643186
13.648447893569845,0.668235629051444
13.681818181818182,0.6375353123828729
13.715188470066519,0.6354227095556739
13.748558758314855,0.7123727523907538
13.781929046563192,0.8874764916915662
13.815299334811531,1.1291945899812217
13.848669623059868,1.356266599460821
13.882039911308205,1.4626902679283287
13.915410199556542,1.3591712469225183
13.948780487804878,1.0139971871621984
13.982150776053215,0.4742159411567793
14.015521064301552,-0.1446477834006096
14.048891352549889,-0.6981228000238435
14.082261640798226,-1.0654678844299816
14.115631929046563,-1.1927987167249288
14.1490022172949,-1.1082357640554445
14.182372505543238,-0.9035890002222885
14.215742793791575,-0.6921204085194079
14.249113082039912,-0.5618028115412778
14.282483370288249,-0.5440704751085479
14.315853658536586,-0.6098401460531532
14.349223946784923,-0.6918924499204961
14.38259423503326,-0.7213663074967971
14.415964523281596,-0.6609100946199532
14.449334811529933,-0.5198268911498342
14.48270509977827,-0.34570138925354027
14.516075388026607,-0.19813795138849466
14.549445676274944,-0.11823973351965589
14.582815964523283,-0.10874620981621312
14.61618625277162,-0.13395990372480363
14.649556541019956,-0.1387134206088711
14.682926829268293,-0.0764926030925958
14.71629711751663,0.06722146445911616
14.749667405764967,0.26751757894205375
14.783037694013304,0.47153844921475113
14.81640798226164,0.6225843724749326
14.849778270509978,0.6846786086616669
14.883148558758315,0.6559055445198887
14.916518847006651,0.565196184538062
14.949889135254988,0.45590242853389296
14.983259423503327,0.3656970277904685
15.016629711751664,0.3128801842268612
15.05,0.29432052445488044
15.083370288248338,0.29334755438804233
15.116740576496674,0.29110786266176947
15.150110864745011,0.2746043111496463
15.183481152993348,0.2382845889273952
15.216851441241685,0.18081308419709138
15.250221729490022,0.10144981397594217
15.283592017738359,-0.00022671337851822983
15.316962305986696,-0.12085240073670432
15.350332594235034,-0.24919022752048078
15.383702882483371,-0.36575541605048717
15.417073170731708,-0.44840541101349485
15.450443458980045,-0.4819964751196523
15.483813747228382,-0.466718323573637
15.517184035476719,-0.41941680161203765
15.550554323725056,-0.36571399270657157
15.583924611973393,-0.3261734543067857
15.61729490022173,-0.30386024820759466
15.650665188470066,-0.2807491195150516
15.684035476718403,-0.2261619851147856
15.71740576496674,-0.11394588747444633
15.750776053215079,0.06005105770101341
15.784146341463416,0.26956995060704936
15.817516629711752,0.4639315619621103
15.85088691796009,0.58670673029321
15.884257206208426,0.5988895468718898
15.917627494456763,0.49592607542901057
15.9509977827051,0.31077093600586486
15.984368070953437,0.10175694398801889
16.017738359201775,-0.06897933815204932
16.05110864745011,-0.15696498390755884
16.08447893569845,-0.14820468296055017
16.117849223946784,-0.05964743134884895
16.151219512195123,0.07057640337258407
16.184589800443458,0.19730691846823065
16.217960088691797,0.2808941168462508
16.251330376940132,0.29478832555206685
16.28470066518847,0.22816676316723697
16.31807095343681,0.0855212133847974
16.351441241685144,-0.11499015048864565
16.384811529933483,-0.34398445794508636
16.418181818181818,-0.5647816935138699
16.451552106430157,-0.739435219490287
16.48492239467849,-0.8362959813549874
16.51829268292683,-0.8371968147554324
16.551662971175165,-0.7418652941224221
16.585033259423504,-0.5679256033448735
16.61840354767184,-0.34637226771429647
16.651773835920178,-0.11386056550036183
16.685144124168513,0.09602433520270513
16.71851441241685,0.2602626882579822
16.75188470066519,0.3708063546269598
16.785254988913525,0.4347526445369313
16.818625277161864,0.4701130788420713
16.8519955654102,0.49818799330185937
16.885365853658538,0.5347337173493008
16.918736141906873,0.5828619647293195
16.95210643015521,0.6304843341457452
16.985476718403547,0.6538605648276432
17.018847006651885,0.6266281497581725
17.05221729490022,0.5313117937229926
17.08558758314856,0.36878355824691095
17.118957871396898,0.16136987359622212
17.152328159645233,-0.05248404765131069
17.18569844789357,-0.23058670137543696
17.219068736141907,-0.34171840094561373
17.252439024390245,-0.37657837188371424
17.28580931263858,-0.3502199050279082
17.31917960088692,-0.294966651674508
