Time (s),Filtered Signal
0.0,0.003412969345764762
0.03337028824833703,0.2932217198224554
0.06674057649667406,0.5670774610934634
0.10011086474501109,0.815117080855297
0.13348115299334812,1.0356392354820863
0.16685144124168516,1.2325381074834858
0.20022172949002218,1.4089843708174254
0.2335920177383592,1.5608622010599937
0.26696230598669624,1.6739310732466282
0.3003325942350333,1.7269025024061837
0.3337028824833703,1.699451889058473
0.3670731707317073,1.5813775263814598
0.40044345898004435,1.3783232140316246
0.4338137472283814,1.1112029486905082
0.4671840354767184,0.8097306344069517
0.5005543237250555,0.5034143660917504
0.5339246119733925,0.21440336106517907
0.5672949002217295,-0.04481246027764102
0.6006651884700666,-0.2687852833595203
0.6340354767184035,-0.4542701497305921
0.6674057649667406,-0.5968380141971666
0.7007760532150776,-0.6912648582676678
0.7341463414634146,-0.7352282055632262
0.7675166297117517,-0.7334212479331003
0.8008869179600887,-0.6987317427326827
0.8342572062084257,-0.6489464189820056
0.8676274944567628,-0.6003692634848948
0.9009977827050998,-0.5618929324052522
0.9343680709534368,-0.5330183640977367
0.9677383592017739,-0.5070172523409974
1.001108647450111,-0.47723400523097936
1.0344789356984478,-0.44243751794308506
1.067849223946785,-0.40761928305666156
1.101219512195122,-0.3796022626717758
1.134589800443459,-0.36047782705005404
1.167960088691796,-0.34372814161923115
1.2013303769401331,-0.3164212543284844
1.23470066518847,-0.26681584820025367
1.268070953436807,-0.19274780336316263
1.3014412416851442,-0.10511644548935205
1.3348115299334813,-0.023593732086826347
1.3681818181818182,0.0333673345420365
1.4015521064301553,0.05832454323130662
1.4349223946784924,0.05845110569450484
1.4682926829268292,0.05076570708406476
1.5016629711751663,0.05206560971643104
1.5350332594235034,0.06996880729087933
1.5684035476718403,0.10068076407735627
1.6017738359201774,0.1346333298539296
1.6351441241685145,0.16582846827715433
1.6685144124168514,0.19804002479139515
1.7018847006651885,0.24289672627720366
1.7352549889135256,0.31029779951741393
1.7686252771618625,0.39717849263350535
1.8019955654101996,0.4826146381894864
1.8353658536585367,0.5340506475149559
1.8687361419068735,0.5227688912023114
1.9021064301552106,0.44060135891717367
1.9354767184035477,0.30812782185241766
1.9688470066518848,0.16849985497380127
2.002217294900222,0.06862288906377453
2.035587583148559,0.03663901364655124
2.0689578713968957,0.06745981313587446
2.102328159645233,0.12466294043121527
2.13569844789357,0.15882360944150092
2.1690687361419068,0.13347437560708447
2.202439024390244,0.045210207229969115
2.235809312638581,-0.07316223408912066
2.269179600886918,-0.16896887273230363
2.302549889135255,-0.19766270758770285
2.335920177383592,-0.1480205754024685
2.369290465631929,-0.05101075059241009
2.4026607538802662,0.03303079119066139
2.436031042128603,0.04309178138461717
2.46940133037694,-0.05206522661846543
2.5027716186252773,-0.23682099008306093
2.536141906873614,-0.4534176873723652
2.569512195121951,-0.6261024573384817
2.6028824833702884,-0.6930365134543424
2.6362527716186253,-0.631136023126751
2.6696230598669626,-0.46317355917329117
2.7029933481152995,-0.24541258035579724
2.7363636363636363,-0.04300109063576538
2.7697339246119737,0.09506802227749846
2.8031042128603105,0.15114814422103057
2.8364745011086474,0.1400045650328036
2.8698447893569847,0.09820258536835276
2.9032150776053216,0.06822800291829002
2.9365853658536585,0.0837363290598321
2.969955654101996,0.15968946759961183
3.0033259423503327,0.28835988162050086
3.0366962305986696,0.4409165777652392
3.070066518847007,0.5743409401504805
3.1034368070953438,0.6432321203549576
3.1368070953436806,0.6144616209862743
3.170177383592018,0.48013512841726047
3.203547671840355,0.26301790964365246
3.2369179600886917,0.01050871510516785
3.270288248337029,-0.221613336540148
3.303658536585366,-0.3887849054657718
3.337028824833703,-0.4713574638219635
3.37039911308204,-0.47623063754921247
3.403769401330377,-0.42719696223902087
3.437139689578714,-0.35106893146884505
3.470509977827051,-0.2680044521781889
3.503880266075388,-0.1900818760268306
3.537250554323725,-0.12555452351902804
3.5706208425720622,-0.08238225774816307
3.603991130820399,-0.06634788870696223
3.637361419068736,-0.07471913127073601
3.6707317073170733,-0.0913948497304055
3.70410199556541,-0.0897414992622806
3.737472283813747,-0.044454285799373945
3.7708425720620844,0.05284879612088866
3.8042128603104213,0.18335267443617104
3.8375831485587586,0.3034083927872501
3.8709534368070955,0.36053066363764447
3.9043237250554323,0.316697950298917
3.9376940133037697,0.1682615248571779
3.9710643015521065,-0.047362097966101545
4.004434589800444,-0.2623596041930769
4.037804878048781,-0.40292336241319654
4.071175166297118,-0.4175412018051373
4.1045454545454545,-0.2974734157914716
4.137915742793791,-0.08095134364382345
4.171286031042128,0.1606192671425204
4.204656319290466,0.34889655967437266
4.238026607538803,0.42694504358131147
4.27139689578714,0.3788392764857994
4.304767184035477,0.23344426988132047
4.3381374722838135,0.051643388751106856
4.371507760532151,-0.0973494983068596
4.404878048780488,-0.16106846954819637
4.438248337028825,-0.12076629019487586
4.471618625277162,0.0054456754125690185
4.504988913525499,0.17317874072097258
4.538359201773836,0.3305644228828626
4.571729490022173,0.4370339228367548
4.60509977827051,0.4747855103671115
4.638470066518847,0.4496039966677921
4.671840354767184,0.3826691143283844
4.705210643015521,0.29857928747738005
4.738580931263858,0.2154448862683523
4.771951219512196,0.14064335371667286
4.8053215077605325,0.07231313528357042
4.838691796008869,0.004035281022391784
4.872062084257206,-0.07033961861469433
4.905432372505543,-0.15350062511739826
4.93880266075388,-0.24337823736984157
4.972172949002218,-0.3334059666606499
5.005543237250555,-0.4142682814632572
5.0389135254988915,-0.4771327305127646
5.072283813747228,-0.5175525316340703
5.105654101995565,-0.5380628506923228
5.139024390243902,-0.5472939396274723
5.17239467849224,-0.5549730017467139
5.205764966740577,-0.5648459879272276
5.239135254988914,-0.569587811995965
5.2725055432372505,-0.5515784618329075
5.305875831485587,-0.4906678296335865
5.339246119733925,-0.3760140732270202
5.372616407982262,-0.21605004127374325
5.405986696230599,-0.04062900351925554
5.439356984478936,0.10716037352050642
5.472727272727273,0.18681992970301733
5.5060975609756095,0.17713362041136793
5.539467849223947,0.08624831277137257
5.572838137472284,-0.0493765525205634
5.606208425720621,-0.17677323124545657
5.639578713968958,-0.24429251545087607
5.672949002217295,-0.21872922978731552
5.706319290465632,-0.09578534150569719
5.7396895787139695,0.09942846212172844
5.773059866962306,0.3218977147222023
5.806430155210643,0.5233516252351197
5.83980044345898,0.6709485470539697
5.873170731707317,0.7615009103266878
5.906541019955654,0.8248323711040308
5.939911308203992,0.9124343575309027
5.9732815964523285,1.0729822351207126
6.006651884700665,1.3230289154501316
6.040022172949002,1.6260367290599973
6.073392461197339,1.8922937726204136
6.106762749445676,2.0047837266268482
6.140133037694014,1.8640843811946133
6.173503325942351,1.4344127744078425
6.2068736141906875,0.7690785795740531
6.240243902439024,8.294474178553073e-05
6.273614190687361,-0.7082770066107321
6.306984478935698,-1.2244944624455225
6.340354767184036,-1.5049791119672178
6.373725055432373,-1.61191679512887
6.40709534368071,-1.681686652112649
6.4404656319290465,-1.8546870774617705
6.473835920177383,-2.197546096587141
6.507206208425721,-2.655331041626309
6.540576496674058,-3.0598360262519155
6.573946784922395,-3.194592096844491
6.607317073170732,-2.8897290165268528
6.640687361419069,-2.104002378874203
6.674057649667406,-0.9557855815705122
6.707427937915743,0.3119709446102426
6.74079822616408,1.4173694967235533
6.774168514412417,2.138010831384876
6.807538802660754,2.3809842336687397
6.840909090909091,2.1988180534109665
6.874279379157428,1.7512719225934255
6.9076496674057655,1.2350286990771375
6.941019955654102,0.8127648323578439
6.974390243902439,0.5678757760571496
7.007760532150776,0.49632925947829215
7.041130820399113,0.5308007105622375
7.07450110864745,0.5813443647152416
7.107871396895788,0.5744792228556215
7.1412416851441245,0.4775630031197836
7.174611973392461,0.30375320872149025
7.207982261640798,0.10044644972767584
7.241352549889135,-0.071681926584657
7.274722838137472,-0.1611958634864344
7.30809312638581,-0.14355535487241
7.341463414634147,-0.02962257628917311
7.3748337028824835,0.1370181498747698
7.40820399113082,0.2934152383661991
7.441574279379157,0.3777993121236443
7.474944567627494,0.3510572395325719
7.508314855875832,0.21155453137049637
7.541685144124169,-0.0028621960714343983
7.575055432372506,-0.22755742935204554
7.6084257206208425,-0.39455313303631445
7.641796008869179,-0.4579264013516493
7.675166297117517,-0.4108796106881225
7.708536585365854,-0.28722083805847365
7.741906873614191,-0.14651556854127318
7.775277161862528,-0.049335620095010586
7.808647450110865,-0.03336271864545962
7.842017738359202,-0.10037326280869578
7.875388026607539,-0.218753954802032
7.908758314855876,-0.339103882136597
7.942128603104213,-0.4153080682622736
7.97549889135255,-0.42233572550803195
8.008869179600888,-0.3645324122694328
8.042239467849225,-0.2723315652461275
8.075609756097561,-0.1892126407805288
8.108980044345898,-0.15356862024381243
8.142350332594235,-0.18181007741558444
8.175720620842572,-0.2592415565119649
8.209090909090909,-0.34333305205787673
8.242461197339246,-0.37970493024889873
8.275831485587583,-0.3255301593625881
8.30920177383592,-0.17064866703354226
8.342572062084257,0.05375706489019506
8.375942350332595,0.284411427927046
8.409312638580932,0.4504977881123006
8.442682926829269,0.5032796021373436
8.476053215077606,0.4374988750482451
8.509423503325943,0.2945437028930846
8.54279379157428,0.14549986168021029
8.576164079822616,0.06125605843117941
8.609534368070953,0.08258298736285179
8.64290465631929,0.20302775079626417
8.676274944567627,0.37177042856124076
8.709645232815964,0.5149294686948549
8.743015521064303,0.5659694765863347
8.77638580931264,0.4921796682982905
8.809756097560976,0.30619189821299453
8.843126385809313,0.058319948412010186
8.87649667405765,-0.1858836043948063
8.909866962305987,-0.3719728744549922
8.943237250554324,-0.47470208396331637
8.97660753880266,-0.500318565150287
9.009977827050998,-0.4737554758378865
9.043348115299334,-0.41913182595981213
9.076718403547671,-0.34510474692973847
9.110088691796008,-0.24347560196447376
9.143458980044347,-0.10162462072047186
9.176829268292684,0.0790133912078968
9.21019955654102,0.2705034887674094
9.243569844789358,0.4215899982306718
9.276940133037694,0.4776966580272468
9.310310421286031,0.4088776692317931
9.343680709534368,0.23078199400111138
9.377050997782705,0.005590672861473259
9.410421286031042,-0.18050538016925166
9.443791574279379,-0.2541905042630512
9.477161862527716,-0.18864161466815837
9.510532150776053,-0.01680620473447436
9.543902439024391,0.18294478117885216
9.577272727272728,0.3221914993447388
9.610643015521065,0.3417933268394826
9.644013303769402,0.23656056303926845
9.677383592017739,0.05451033867796447
9.710753880266076,-0.12743273735258698
9.744124168514412,-0.23874702289979552
9.77749445676275,-0.24528219108324423
9.810864745011086,-0.16145624030481784
9.844235033259423,-0.0410113050908078
9.87760532150776,0.048196561891559055
9.910975609756099,0.05402348391546113
9.944345898004435,-0.03780910116761677
9.977716186252772,-0.197808585734419
10.01108647450111,-0.36492438912513164
10.044456762749446,-0.4715508262060723
10.077827050997783,-0.47098786055500513
10.11119733924612,-0.3562227264184884
10.144567627494457,-0.1626360088884203
10.177937915742794,0.0460920447801634
10.21130820399113,0.20285628738716038
10.244678492239467,0.26270135481005996
10.278048780487804,0.21909736562348767
10.311419068736143,0.10487420798257464
10.34478935698448,-0.02210256214671704
10.378159645232817,-0.10252594501026287
10.411529933481154,-0.09904338189741596
10.44490022172949,-0.010213760597487354
10.478270509977827,0.1303571880878286
10.511640798226164,0.2690537302527327
10.545011086474501,0.35496825685769257
10.578381374722838,0.3605731348938169
10.611751662971175,0.29147481645532486
10.645121951219512,0.1811689306850133
10.67849223946785,0.07351773273832271
10.711862527716187,0.0014629941594144864
10.745232815964524,-0.027568928247516552
10.778603104212861,-0.03226363956743857
10.811973392461198,-0.043767832794950716
10.845343680709535,-0.08513806270371488
10.878713968957872,-0.15529368533535692
10.912084257206208,-0.22681275912957305
10.945454545454545,-0.25942885390869974
10.978824833702882,-0.22223401265978643
11.012195121951219,-0.11252935567107258
11.045565410199556,0.03899902349254985
11.078935698447895,0.1796904159670036
11.112305986696231,0.25717386714051144
11.145676274944568,0.24167472575233967
11.179046563192905,0.13831353274214572
11.212416851441242,-0.015215318945940318
11.245787139689579,-0.16345145421133878
11.279157427937916,-0.2536152809236654
11.312527716186253,-0.25376318349759946
11.34589800443459,-0.16277724857700962
11.379268292682926,-0.009831486192206593
11.412638580931263,0.15564352966686204
11.4460088691796,0.2800298303061204
11.479379157427939,0.3227732017930439
11.512749445676276,0.2696241547005208
11.546119733924613,0.1375398672940204
11.57949002217295,-0.030819758536846365
11.612860310421286,-0.18164140269208418
11.646230598669623,-0.26862432152803967
11.67960088691796,-0.2687536375281104
11.712971175166297,-0.18896561612938698
11.746341463414634,-0.06126611698929825
11.77971175166297,0.07099806599513826
11.813082039911308,0.1691869865017047
11.846452328159646,0.2108278528133331
11.879822616407983,0.19277589916757495
11.91319290465632,0.12703327441550435
11.946563192904657,0.03340500637909189
11.979933481152994,-0.0667755984777803
12.01330376940133,-0.15414395233789094
12.046674057649668,-0.21313058131115362
12.080044345898004,-0.2341370941985736
12.113414634146341,-0.21659136249800226
12.146784922394678,-0.1709973080551769
12.180155210643015,-0.11704811531978877
12.213525498891352,-0.07650484529512097
12.24689578713969,-0.0630684806547577
12.280266075388028,-0.0744346887795329
12.313636363636364,-0.09172649829710774
12.347006651884701,-0.08801228016419357
12.380376940133038,-0.042460179675974374
12.413747228381375,0.04706125415791946
12.447117516629712,0.16003066802609617
12.480487804878049,0.26086961057839414
12.513858093126386,0.31483519171935725
12.547228381374723,0.3042736923140575
12.58059866962306,0.23685336018574832
12.613968957871396,0.14160314556524708
12.647339246119735,0.055102776787757934
12.680709534368072,0.005232405208806344
12.714079822616409,0.000644417921668514
12.747450110864746,0.030391467051660525
12.780820399113082,0.07240811149899994
12.81419068736142,0.10520590205748459
12.847560975609756,0.11642609482643701
12.880931263858093,0.10470409016864335
12.91430155210643,0.07558291046593059
12.947671840354767,0.03536463444842467
12.981042128603104,-0.012825171850382374
13.014412416851442,-0.06870896805266823
13.04778270509978,-0.13137252166158087
13.081152993348116,-0.1957679290176542
13.114523281596453,-0.25210551597486924
13.14789356984479,-0.288888860881894
13.181263858093127,-0.29782793179449424
13.214634146341464,-0.2776067985122513
13.2480044345898,-0.23420546206713402
13.281374722838137,-0.17762638461405886
13.314745011086474,-0.11705965677924558
13.348115299334811,-0.057394185608076666
13.381485587583148,0.0009438726755041075
13.414855875831487,0.05895993205656152
13.448226164079824,0.11500900538883226
13.48159645232816,0.1625080144091405
13.514966740576497,0.19127718841146457
13.548337028824834,0.19220277175685185
13.581707317073171,0.16285916601360667
13.615077605321508,0.11093833912017977
13.648447893569845,0.05328243462270015
13.681818181818182,0.01050677249315108
13.715188470066519,-0.0005484172933839714
13.748558758314855,0.026806858791892808
13.781929046563192,0.08664111381208733
13.815299334811531,0.16258689736599488
13.848669623059868,0.23320808327031123
13.882039911308205,0.27787949856637156
13.915410199556542,0.28101107958895677
13.948780487804878,0.2341647218905264
13.982150776053215,0.1371568571247231
14.015521064301552,-0.000668553460772544
14.048891352549889,-0.1592893790645851
14.082261640798226,-0.30903886807093595
14.115631929046563,-0.41615354859241926
14.1490022172949,-0.4530268390511304
14.182372505543238,-0.4097379329690249
14.215742793791575,-0.30080233637070186
14.249113082039912,-0.16193126800845054
14.282483370288249,-0.03634557774027621
14.315853658536586,0.0435711361980317
14.349223946784923,0.06983822047310298
14.38259423503326,0.060047544966771095
14.415964523281596,0.04529219601700652
14.449334811529933,0.05175702599780476
14.48270509977827,0.08666909901771239
14.516075388026607,0.13654099886273402
14.549445676274944,0.17790807260826394
14.582815964523283,0.19297879308026492
14.61618625277162,0.1798513557228295
14.649556541019956,0.15101184847914179
14.682926829268293,0.12198113614941214
14.71629711751663,0.09870382815013376
14.749667405764967,0.07298978596954682
14.783037694013304,0.029512953321218244
14.81640798226164,-0.0404825701640889
14.849778270509978,-0.12870461165103284
14.883148558758315,-0.21063588192747612
14.916518847006651,-0.2580248369088326
14.949889135254988,-0.2551443453485416
14.983259423503327,-0.2079386177468304
15.016629711751664,-0.1397338679283993
15.05,-0.07622669517282173
15.083370288248338,-0.029755981975666163
15.116740576496674,0.006587641769918937
15.150110864745011,0.0509760154544293
15.183481152993348,0.11612335268325213
15.216851441241685,0.19485316570411795
15.250221729490022,0.2579257207631007
15.283592017738359,0.2668968321246385
15.316962305986696,0.19578122751011315
15.350332594235034,0.04967901540928462
15.383702882483371,-0.13059317689509725
15.417073170731708,-0.28188250942384196
15.450443458980045,-0.3447167607317472
15.483813747228382,-0.28966602272384484
15.517184035476719,-0.13106340616757636
15.550554323725056,0.07882303033505177
15.583924611973393,0.2723308869844937
15.61729490022173,0.39457050255545484
15.650665188470066,0.42369852107300743
15.684035476718403,0.37424652427408595
15.71740576496674,0.2832640149453828
15.750776053215079,0.187581684330302
15.784146341463416,0.10454135779467992
15.817516629711752,0.026160902061706483
15.85088691796009,-0.07081367733832357
15.884257206208426,-0.2052282046732697
15.917627494456763,-0.37368956991991564
15.9509977827051,-0.5449038853854972
15.984368070953437,-0.6696342947576515
16.017738359201775,-0.7010797281017961
16.05110864745011,-0.6149795092442027
16.08447893569845,-0.41942644224288295
16.117849223946784,-0.15054764366546142
16.151219512195123,0.1420145585793027
16.184589800443458,0.41118292183834393
16.217960088691797,0.6223081428499284
16.251330376940132,0.7543193122159082
16.28470066518847,0.7955357579742263
16.31807095343681,0.7401233017040963
16.351441241685144,0.5892072226570098
16.384811529933483,0.35596037959406024
16.418181818181818,0.07008047935415312
16.451552106430157,-0.223360761771974
16.48492239467849,-0.47253173910911467
16.51829268292683,-0.6322405976563509
16.551662971175165,-0.676564698968364
16.585033259423504,-0.6055186773172989
16.61840354767184,-0.4435609234074382
16.651773835920178,-0.2313128585607601
16.685144124168513,-0.014130131728854627
16.71851441241685,0.16857872008838917
16.75188470066519,0.29065762424355057
16.785254988913525,0.3422547991792326
16.818625277161864,0.3290378407828921
16.8519955654102,0.26844072924619033
16.885365853658538,0.18375326854731094
16.918736141906873,0.09702255076827193
16.95210643015521,0.02248707352608529
16.985476718403547,-0.036933156168965794
17.018847006651885,-0.08787777140502118
17.05221729490022,-0.13943881906322098
17.08558758314856,-0.19386162639545024
17.118957871396898,-0.24050370962172307
17.152328159645233,-0.2578075969726551
17.18569844789357,-0.22397573147349223
17.219068736141907,-0.13156666886072496
17.252439024390245,0.002265347657751877
