Frequency (Hz),Amplitude
0.0,17.3903110037069
0.019867549668874173,17.391443396899543
0.039735099337748346,17.394835635679524
0.059602649006622516,17.400472925172505
0.07947019867549669,17.408330698718146
0.09933774834437085,17.418374754130063
0.11920529801324503,17.430561442607473
0.13907284768211922,17.444837908488555
0.15894039735099338,17.46114237757551
0.17880794701986755,17.479404491345324
0.1986754966887417,17.499545683988973
0.2185430463576159,17.521479598906406
0.23841059602649006,17.545112541024103
0.2582781456953642,17.570343961101326
0.27814569536423844,17.597066968050335
0.2980132450331126,17.625168865212686
0.31788079470198677,17.654531706509655
0.33774834437086093,17.68503286841096
0.3576158940397351,17.71654563374564
0.3774834437086093,17.748939783498063
0.3973509933774834,17.78208219289458
0.4172185430463576,17.815837428277312
0.4370860927152318,17.85006834148197
0.45695364238410596,17.884636658675884
0.4768211920529801,17.91940356086598
0.49668874172185434,17.954230253549103
0.5165562913907285,17.98897852324289
0.5364238410596026,18.023511278899733
0.5562913907284769,18.057693076464794
0.5761589403973509,18.091390625089073
0.5960264900662252,18.124473273745018
0.6158940397350993,18.156813477215604
0.6357615894039735,18.188287240633393
0.6556291390728477,18.2187745419345
0.6754966887417219,18.24815973176248
0.695364238410596,18.27633191050756
0.7152317880794702,18.303185282298468
0.7350993377483444,18.328619485877574
0.7549668874172186,18.352539902384475
0.7748344370860927,18.374857940151237
0.7947019867549668,18.395491296673942
0.8145695364238411,18.414364197970468
0.8344370860927152,18.431407615567416
0.8543046357615894,18.446559461377397
0.8741721854304636,18.459764760735307
0.8940397350993378,18.470975803859815
0.9139072847682119,18.48015227599289
0.9337748344370861,18.487261366451683
0.9536423841059603,18.492277856798307
0.9735099337748344,18.495184188302034
0.9933774834437087,18.495970508830407
1.0132450331125828,18.49463469926543
1.033112582781457,18.49118237949869
1.0529801324503312,18.48562689401413
1.0728476821192052,18.47798927702353
1.0927152317880795,18.468298197075804
1.1125827814569538,18.456589881018928
1.1324503311258278,18.442908017154952
1.1523178807947019,18.427303637392612
1.1721854304635762,18.409834978172736
1.1920529801324504,18.39056731991671
1.2119205298013245,18.36957280473254
1.2317880794701985,18.34693023210447
1.2516556291390728,18.322724832293478
1.271523178807947,18.297048017189542
1.2913907284768211,18.26999710838013
1.3112582781456954,18.241675042239176
1.3311258278145695,18.21219005189285
1.3509933774834437,18.181655325987776
1.370860927152318,18.150188644273108
1.390728476821192,18.11791199011176
1.410596026490066,18.084951140157294
1.4304635761589404,18.051435231574658
1.4503311258278146,18.01749630734318
1.4701986754966887,17.983268840358082
1.4900662251655628,17.94888923724587
1.5099337748344372,17.914495323022145
1.5298013245033113,17.88022580795148
1.5496688741721854,17.846219738213495
1.5695364238410596,17.812615932233737
1.5894039735099337,17.779552404800924
1.609271523178808,17.747165781359705
1.6291390728476822,17.715590705132367
1.6490066225165563,17.684959239984945
1.6688741721854303,17.655400272201298
1.6887417218543048,17.627038914560863
1.7086092715231789,17.599995916325422
1.728476821192053,17.574387082918907
1.7483443708609272,17.550322709228986
1.7682119205298013,17.5279070305613
1.7880794701986755,17.507237695333902
1.8079470198675496,17.488405263602555
1.8278145695364238,17.471492735457847
1.847682119205298,17.45657511322488
1.8675496688741722,17.443719001228274
1.8874172185430464,17.432982246656117
1.9072847682119205,17.42441362477019
1.9271523178807946,17.4180525713667
1.9470198675496688,17.41392896499965
1.9668874172185429,17.412062961038597
1.9867549668874174,17.41246487915787
2.0066225165562916,17.415135145346774
2.0264900662251657,17.420064289004067
2.0463576158940397,17.427232995143005
2.066225165562914,17.436612211195037
2.086092715231788,17.44816330737245
2.1059602649006623,17.461838289042483
2.1258278145695364,17.477580059085202
2.1456953642384105,17.495322727766226
2.165562913907285,17.51499196725754
2.185430463576159,17.536505407593104
2.205298013245033,17.559773070554073
2.2251655629139075,17.584697837744883
2.2450331125827816,17.611175948948095
2.2649006622516556,17.639097526730307
2.2847682119205297,17.668347123217163
2.3046357615894038,17.698804284953447
2.324503311258278,17.73034413181623
2.3443708609271523,17.762837946047796
2.364238410596027,17.796153767614598
2.384105960264901,17.83015699227552
2.403973509933775,17.86471096894819
2.423841059602649,17.899677593192216
2.443708609271523,17.93491789387508
2.463576158940397,17.970292610345822
2.4834437086092715,18.00566275770585
2.5033112582781456,18.04089017803292
2.52317880794702,18.07583807567668
2.543046357615894,18.110371534999093
2.562913907284768,18.1443580191782
2.5827814569536423,18.17766784892397
2.6026490066225163,18.210174660171006
2.622516556291391,18.241755840010928
2.642384105960265,18.27229294030708
2.662251655629139,18.30167206859619
2.6821192052980134,18.329784256022215
2.7019867549668874,18.35652580217264
2.7218543046357615,18.381798596790315
2.741721854304636,18.40551041842256
2.76158940397351,18.427575210137594
2.781456953642384,18.44791333249371
2.801324503311258,18.466451793985303
2.821192052980132,18.483124459215322
2.8410596026490067,18.497872235057947
2.8609271523178808,18.510643235076362
2.8807947019867552,18.521392922453796
2.9006622516556293,18.53008423167958
2.9205298013245033,18.53668766920767
2.9403973509933774,18.541181393276094
2.9602649006622515,18.54355127303982
2.9801324503311255,18.54379092713101
3.0,18.541901741718373
3.0198675496688745,18.53789286809342
3.0397350993377485,18.53178119976657
3.0596026490066226,18.52359132901156
3.0794701986754967,18.51335548275313
3.0993377483443707,18.50111343765233
3.119205298013245,18.486912414204948
3.1390728476821192,18.47080694963688
3.1589403973509933,18.452858749350668
3.1788079470198674,18.43313651665832
3.198675496688742,18.411715760520625
3.218543046357616,18.388678581010762
3.23841059602649,18.364113432225462
3.2582781456953644,18.33811486238527
3.2781456953642385,18.310783230896963
3.2980132450331126,18.282224402195844
3.3178807947019866,18.252549416246154
3.3377483443708607,18.22187413565541
3.3576158940397347,18.19031886945235
3.3774834437086096,18.158007973691053
3.3973509933774837,18.12506942917566
3.4172185430463577,18.09163439675069
3.437086092715232,18.057836750772147
3.456953642384106,18.023812591564045
3.47682119205298,17.98969973787128
3.4966887417218544,17.9556372005453
3.5165562913907285,17.921764638936605
3.5364238410596025,17.888221801721215
3.556291390728477,17.855147954149103
3.576158940397351,17.82268129397055
3.596026490066225,17.79095835856618
3.615894039735099,17.760113426072454
3.6357615894039736,17.73027791355404
3.6556291390728477,17.70157977551827
3.6754966887417218,17.674142906292214
3.695364238410596,17.64808654998146
3.7152317880794703,17.62352472189536
3.7350993377483444,17.600565645451958
3.754966887417219,17.579311208657888
3.774834437086093,17.559856444293867
3.794701986754967,17.542289037914525
3.814569536423841,17.52668886769536
3.834437086092715,17.51312758002177
3.854304635761589,17.50166820451834
3.8741721854304636,17.49236481195868
3.8940397350993377,17.48526221818183
3.9139072847682117,17.480395736771488
3.9337748344370858,17.477790982836435
3.9536423841059607,17.477463729770246
3.9735099337748347,17.479419820372062
3.993377483443709,17.483655133190737
4.013245033112583,17.490155604415865
4.033112582781457,17.49889730509731
4.052980132450331,17.509846572935032
4.072847682119205,17.52296019735724
4.0927152317880795,17.538185656104403
4.112582781456953,17.555461401069657
4.132450331125828,17.574717190720843
4.152317880794702,17.595874466051107
4.172185430463576,17.618846766680726
4.19205298013245,17.643540183466033
4.211920529801325,17.669853843762578
4.231788079470199,17.69768042534318
4.251655629139073,17.726906694883482
4.271523178807947,17.757414066897027
4.291390728476821,17.789079179026928
4.311258278145695,17.821774479674694
4.33112582781457,17.8553688240673
4.3509933774834435,17.889728075021363
4.370860927152318,17.924715704856823
4.390728476821192,17.960193395130855
4.410596026490066,17.996021631104075
4.43046357615894,18.03206028810568
4.450331125827815,18.06816920722875
4.470198675496689,18.1042087580546
4.490066225165563,18.14004038637225
4.509933774834438,18.175527145120324
4.529801324503311,18.21053420703067
4.549668874172186,18.244929357693675
4.569536423841059,18.278583467990185
4.589403973509934,18.311370945044178
4.6092715231788075,18.34317016104123
4.629139072847682,18.373863859430063
4.649006622516556,18.40333953817771
4.66887417218543,18.43148980988275
4.688741721854305,18.45821273866579
4.708609271523179,18.483412153853642
4.728476821192054,18.50699794055231
4.748344370860927,18.52888630726651
4.768211920529802,18.549000030771015
4.788079470198675,18.567268678471105
4.80794701986755,18.583628808509705
4.827814569536423,18.598024147885937
4.847682119205298,18.610405748847793
4.867549668874172,18.620732123808466
4.887417218543046,18.628969359016338
4.9072847682119205,18.635091207181063
4.927152317880794,18.639079159224853
4.947019867549669,18.640922495291154
4.966887417218543,18.640618315100614
4.986754966887418,18.63817154770162
5.006622516556291,18.633594940616362
5.026490066225166,18.626909028339085
5.04635761589404,18.61814208009716
5.066225165562914,18.607330026743337
5.086092715231788,18.594516366606502
5.105960264900662,18.579752050092438
5.125827814569536,18.56309534279377
5.14569536423841,18.54461166684378
5.1655629139072845,18.52437342022981
5.185430463576159,18.50245977377345
5.205298013245033,18.47895644548432
5.225165562913908,18.453955452005967
5.245033112582782,18.427554836896526
5.264900662251656,18.399858375523383
5.28476821192053,18.37097525640481
5.304635761589404,18.341019738898545
5.324503311258278,18.310110787224232
5.344370860927152,18.278371680909288
5.364238410596027,18.245929601871524
5.3841059602649,18.212915198492468
5.403973509933775,18.1794621271985
5.4238410596026485,18.14570657224691
5.443708609271523,18.11178674461431
5.463576158940397,18.077842361103624
5.483443708609272,18.04401410501894
5.503311258278146,18.01044307000833
5.52317880794702,17.977270188933055
5.543046357615895,17.944635649892604
5.562913907284768,17.912678301806856
5.582781456953643,17.881535052231158
5.602649006622516,17.851340260346966
5.622516556291391,17.822225128329546
5.642384105960264,17.794317094533678
5.662251655629139,17.76773923215657
5.682119205298013,17.742609657225177
5.701986754966887,17.71904094990767
5.7218543046357615,17.69713959325932
5.741721854304636,17.677005433576852
5.7615894039735105,17.65873116654505
5.781456953642384,17.642401853315125
5.801324503311259,17.6280944705486
5.821192052980132,17.615877498294502
5.841059602649007,17.605810549340614
5.860927152317881,17.597944043392065
5.880794701986755,17.5923189290857
5.900662251655629,17.58896645645142
5.920529801324503,17.587908001987326
5.940397350993377,17.58915494803116
5.960264900662251,17.59270861759585
5.980132450331126,17.598560265298637
6.0,17.606691124466415
6.0198675496688745,17.617072509947164
6.039735099337749,17.62966597561878
6.059602649006623,17.64442352506303
6.079470198675497,17.661287873381035
6.099337748344371,17.680192757669964
6.119205298013245,17.70106329327223
6.139072847682119,17.723816372548665
6.158940397350993,17.74836110262495
6.178807947019867,17.774599278318007
6.198675496688741,17.802425886265922
6.218543046357616,17.831729636164873
6.23841059602649,17.862393514954448
6.258278145695365,17.89429535978891
6.2781456953642385,17.92730844568095
6.298013245033113,17.961302083801407
6.317880794701987,17.996142226560668
6.337748344370861,18.031692075773122
6.357615894039735,18.06781269041683
6.377483443708609,18.104363590732305
6.397350993377484,18.14120335565676
6.417218543046357,18.17819021085281
6.437086092715232,18.215182604862086
6.456953642384105,18.25203977118445
6.47682119205298,18.288622274352402
6.496688741721854,18.3247925383309
6.516556291390729,18.360415355822745
6.5364238410596025,18.39535837729615
6.556291390728477,18.429492578771015
6.5761589403973515,18.462692707604397
6.596026490066225,18.494837705699084
6.6158940397351,18.525811109724426
6.635761589403973,18.55550142808474
6.655629139072848,18.5838024944959
6.675496688741721,18.610613798138598
6.695364238410596,18.635840790445705
6.715231788079469,18.659395168652612
6.735099337748344,18.681195136295372
6.754966887417219,18.701165640880994
6.774834437086093,18.71923858898125
6.794701986754967,18.735353039014498
6.814569536423841,18.74945537198267
6.8344370860927155,18.761499440421943
6.854304635761589,18.771446695809885
6.874172185430464,18.779266294646114
6.894039735099337,18.784935183393788
6.913907284768212,18.788438162431788
6.933774834437086,18.789767929128075
6.95364238410596,18.788925100100062
6.973509933774834,18.78591821268326
6.993377483443709,18.780763705582046
7.013245033112583,18.77348587863036
7.033112582781457,18.76411683154474
7.052980132450331,18.752696381508933
7.072847682119205,18.739271959389498
7.0927152317880795,18.72389848434642
7.112582781456954,18.706638216573033
7.132450331125828,18.687560587876504
7.152317880794702,18.666742009794845
7.172185430463576,18.644265658941205
7.19205298013245,18.62022123927005
7.211920529801324,18.594704720977887
7.231788079470198,18.567818055779096
7.251655629139073,18.53966886834398
7.271523178807947,18.51037012374433
7.291390728476822,18.48003977082977
7.311258278145695,18.44880036155284
7.33112582781457,18.41677864637479
7.3509933774834435,18.384105146016875
7.370860927152318,18.350913699976168
7.390728476821192,18.317340992397686
7.410596026490066,18.283526056087947
7.430463576158941,18.249609755667965
7.450331125827814,18.21573425109259
7.470198675496689,18.18204244301114
7.490066225165562,18.148677401701782
7.509933774834438,18.115781781584857
7.52980132450331,18.083497223596034
7.549668874172186,18.051963747981652
7.569536423841059,18.02131914035547
7.589403973509934,17.991698334127737
7.6092715231788075,17.963232792672912
7.629139072847682,17.936049894840586
7.649006622516557,17.91027232762411
7.66887417218543,17.886017489979345
7.6887417218543055,17.863396911925317
7.708609271523178,17.84251569315031
7.728476821192054,17.82347196539095
7.748344370860927,17.80635638283777
7.768211920529802,17.79125164474877
7.788079470198675,17.778232054318572
7.80794701986755,17.76736311765443
7.827814569536423,17.758701186450455
7.847682119205298,17.752293147633203
7.8675496688741715,17.748176162874262
7.887417218543046,17.746377460439387
7.907284768211921,17.746914181369615
7.927152317880795,17.74979328148158
7.9470198675496695,17.75501149013652
7.966887417218543,17.762555326173004
7.986754966887418,17.77240117083571
8.006622516556291,17.784515396974985
8.026490066225167,17.798854553246713
8.046357615894038,17.815365601522206
8.066225165562914,17.83398620523153
8.086092715231787,17.85464506591969
8.105960264900663,17.87726230489997
8.125827814569536,17.901749886548608
8.14569536423841,17.928012079505027
8.165562913907285,17.95594595182153
8.185430463576159,17.98544189595062
8.205298013245034,18.016384179363016
8.225165562913906,18.048651516554795
8.245033112582782,18.082117658223737
8.264900662251655,18.11665199346943
8.28476821192053,18.152120160992425
8.304635761589404,18.188384665430398
8.324503311258278,18.2253054951662
8.344370860927151,18.262740738168535
8.364238410596027,18.30054719267373
8.3841059602649,18.338580969779443
8.403973509933774,18.376698085295136
8.42384105960265,18.414755038469934
8.443708609271523,18.452609375494486
8.463576158940398,18.49012023594384
8.483443708609272,18.527148880589156
8.503311258278146,18.56355919925438
8.52317880794702,18.59921819762696
8.543046357615895,18.63399646214816
8.562913907284768,18.66776860230625
8.582781456953642,18.700413669832997
8.602649006622515,18.731815554463733
8.62251655629139,18.76186335605852
8.642384105960264,18.790451733000864
8.66225165562914,18.817481226891385
8.682119205298013,18.84285856363399
8.701986754966887,18.86649693107763
8.721854304635762,18.888316233424973
8.741721854304636,18.90824332265231
8.76158940397351,18.926212207205666
8.781456953642383,18.942164238245244
8.801324503311259,18.95604827370728
8.821192052980132,18.967820820438863
8.841059602649008,18.97744615464019
8.86092715231788,18.984896420819677
8.880794701986755,18.990151709431995
8.90066225165563,18.993200113330936
8.920529801324504,18.994037763123135
8.940397350993377,18.99266884146461
8.960264900662251,18.989105576293525
8.980132450331126,18.983368212943763
9.0,18.97548496503738
9.019867549668875,18.965491944006768
9.039735099337747,18.953433067055375
9.059602649006623,18.93935994332465
9.079470198675496,18.923331738002137
9.099337748344372,18.90541501407629
9.119205298013245,18.885683551423437
9.139072847682119,18.864218142899688
9.158940397350994,18.841106367108967
9.178807947019868,18.81644233752778
9.198675496688743,18.790326427688747
9.218543046357615,18.762864972161967
9.23841059602649,18.734169943124154
9.258278145695364,18.704358602374278
9.27814569536424,18.67355312873983
9.298013245033111,18.641880220924083
9.317880794701987,18.60947067596808
9.33774834437086,18.576458943647268
9.357615894039736,18.54298265728819
9.37748344370861,18.509182141676945
9.397350993377483,18.475199898938488
9.417218543046358,18.44118007349068
9.437086092715232,18.407267897421942
9.456953642384107,18.373609117899647
9.47682119205298,18.34034940848954
9.496688741721854,18.307633766547724
9.516556291390728,18.275605899134813
9.536423841059603,18.24440760019003
9.556291390728477,18.214178121986752
9.57615894039735,18.18505354416505
9.596026490066224,18.157166143894308
9.6158940397351,18.130643770951945
9.635761589403973,18.105609231710147
9.655629139072847,18.08217968618849
9.675496688741722,18.060466062456182
9.695364238410596,18.040572492742367
9.715231788079471,18.022595775633697
9.735099337748345,18.006624868700904
9.754966887417218,17.992740415795513
9.774834437086092,17.98101431309286
9.794701986754967,17.971509317729403
9.814569536423841,17.964278702588366
9.834437086092716,17.959365960434837
9.854304635761588,17.95680456019123
9.874172185430464,17.956617757683755
9.894039735099337,17.95881846268691
9.913907284768213,17.9634091635572
9.933774834437086,17.97038191018432
9.95364238410596,17.97971835541452
9.973509933774835,17.99138985452368
9.993377483443709,18.005357621747258
10.013245033112582,18.021572942326863
10.033112582781456,18.039977438012052
10.052980132450331,18.060503383475144
10.072847682119205,18.083074070662885
10.09271523178808,18.107604217728568
10.112582781456952,18.134000418865146
10.132450331125828,18.162161631102645
10.152317880794701,18.191979693935533
10.172185430463577,18.223339877515823
10.192052980132452,18.256121455079658
10.211920529801324,18.29019829526661
10.2317880794702,18.325439470039658
10.251655629139073,18.361709874013748
10.271523178807948,18.39887085114587
10.29139072847682,18.43678082492436
10.311258278145695,18.475295928412862
10.331125827814569,18.51427063074712
10.350993377483444,18.553558356946642
10.370860927152318,18.593012098177773
10.390728476821192,18.63248500988868
10.410596026490065,18.671830995520224
10.43046357615894,18.71090527377843
10.450331125827816,18.749564927725718
10.470198675496688,18.787669434212674
10.490066225165563,18.825081172416652
10.509933774834437,18.861665910486273
10.529801324503312,18.897293269502963
10.549668874172186,18.931837164162925
10.56953642384106,18.965176219756152
10.589403973509933,18.997194165171116
10.609271523178808,19.02778020178519
10.629139072847682,19.056829348213252
10.649006622516556,19.084242760979286
10.66887417218543,19.109928031250327
10.688741721854305,19.133799457830072
10.70860927152318,19.155778296650062
10.728476821192054,19.17579298702435
10.748344370860927,19.193779354945864
