Time (s),Filtered Signal
0.0,-0.013966482722031551
0.033370165745856356,-1.5840992479872065
0.06674033149171271,-2.814651224610803
0.10011049723756907,-3.4844358945251455
0.13348066298342542,-3.557697862346351
0.16685082872928178,-3.1733366908472607
0.20022099447513814,-2.5677323998904837
0.2335911602209945,-1.9715128584288777
0.26696132596685085,-1.5275679381345162
0.30033149171270723,-1.2616174159095637
0.33370165745856356,-1.1084135252505116
0.3670718232044199,-0.9713143173113973
0.4004419889502763,-0.7818345577583884
0.43381215469613266,-0.5316917064438583
0.467182320441989,-0.2673061506183196
0.5005524861878453,-0.055820273919114836
0.5339226519337017,0.05646745019475424
0.5672928176795581,0.07186231112020022
0.6006629834254145,0.042939962473833984
0.6340331491712707,0.048991955480304196
0.6674033149171271,0.15924084804912736
0.7007734806629835,0.3997976077186568
0.7341436464088398,0.7390251895432183
0.7675138121546962,1.0978290000266921
0.8008839779005525,1.3806742430542374
0.8342541436464089,1.513982637121951
0.8676243093922653,1.4748879267188237
0.9009944751381216,1.2972614323674507
0.934364640883978,1.0523728819374711
0.9677348066298344,0.8139385950807424
1.0011049723756906,0.625277241699836
1.0344751381215471,0.48514603027669767
1.0678453038674034,0.35868261021348125
1.1012154696132597,0.2061735853700534
1.1345856353591162,0.012881325327824692
1.1679558011049724,-0.19678881459468528
1.201325966850829,-0.36829367378804323
1.2346961325966852,-0.44386970250664676
1.2680662983425415,-0.3928626799030602
1.301436464088398,-0.2297682296357015
1.3348066298342542,-0.011031084090255421
1.3681767955801105,0.18759831884626216
1.401546961325967,0.30202421837879956
1.4349171270718233,0.30436754276733824
1.4682872928176796,0.20998939923830398
1.501657458563536,0.064640915884883
1.5350276243093923,-0.0809204056341183
1.5683977900552488,-0.19570900163859484
1.601767955801105,-0.2804512434896803
1.6351381215469614,-0.36151493005473095
1.6685082872928179,-0.4711567378900996
1.7018784530386741,-0.6253549052200496
1.7352486187845306,-0.8112333345348197
1.768618784530387,-0.9903819626675303
1.8019889502762432,-1.1155845227487122
1.8353591160220997,-1.1515629112026236
1.868729281767956,-1.0889699965801733
1.9020994475138122,-0.9452431379199331
1.9354696132596687,-0.7531379833077501
1.968839779005525,-0.5438046229691751
2.0022099447513813,-0.3333676364894977
2.0355801104972375,-0.11960789605197289
2.0689502762430942,0.11003446974523627
2.1023204419889505,0.3637748163744224
2.135690607734807,0.6324055962002272
2.169060773480663,0.8856846863357738
2.2024309392265193,1.081430359658749
2.235801104972376,1.1837901193350697
2.2691712707182323,1.1816652443447504
2.3025414364640886,1.0971727537827802
2.335911602209945,0.9782904974553676
2.369281767955801,0.8776167824304321
2.402651933701658,0.8266490454165626
2.436022099447514,0.8182402463020819
2.4693922651933704,0.8069527942971189
2.5027624309392267,0.728944346371913
2.536132596685083,0.5334864878905875
2.5695027624309392,0.21188319151697516
2.602872928176796,-0.1902663983959228
2.636243093922652,-0.5845839840541637
2.6696132596685085,-0.8717051718519967
2.7029834254143648,-0.9804464011997763
2.736353591160221,-0.8976502169779645
2.7697237569060777,-0.6756128509425248
2.803093922651934,-0.4134048558864136
2.8364640883977903,-0.21945537608208115
2.8698342541436466,-0.1706519381596612
2.903204419889503,-0.28452880178765105
2.936574585635359,-0.515401678906018
2.969944751381216,-0.7751334983227999
3.003314917127072,-0.969017771404754
3.0366850828729284,-1.0313868781172546
3.0700552486187846,-0.9464323479344247
3.103425414364641,-0.7468762344875118
3.1367955801104976,-0.4932609286181402
3.170165745856354,-0.24499268778189717
3.20353591160221,-0.03697224268787018
3.2369060773480665,0.12833329979260485
3.2702762430939227,0.27175546809543094
3.3036464088397794,0.4177197980232446
3.3370165745856357,0.5746567742976688
3.370386740331492,0.7251138042725404
3.4037569060773483,0.830053937354374
3.4371270718232045,0.8454683133758865
3.4704972375690613,0.7444022070674992
3.5038674033149175,0.535268125291764
3.537237569060774,0.2682326401355712
3.57060773480663,0.02520411823559626
3.6039779005524863,-0.10524099772025734
3.6373480662983426,-0.06027811033707664
3.6707182320441993,0.16961447198000051
3.7040883977900556,0.5301650297393218
3.737458563535912,0.9163606821066109
3.770828729281768,1.2058875940467546
3.8041988950276244,1.3006331136266622
3.837569060773481,1.1599329170327422
3.8709392265193374,0.8126046381778952
3.9043093922651937,0.3438286709536019
3.93767955801105,-0.136806999121942
3.9710497237569062,-0.5328835749866073
4.0044198895027625,-0.7901270968445416
4.037790055248619,-0.907124023280638
4.071160220994475,-0.9257841590226793
4.104530386740332,-0.9071448609075223
4.1379005524861885,-0.9030090843421313
4.171270718232044,-0.9347218526302988
4.204640883977901,-0.9870379590747488
4.238011049723757,-1.0187163871191052
4.271381215469614,-0.9844911838776682
4.30475138121547,-0.8582191878210651
4.338121546961326,-0.6465361837054038
4.371491712707183,-0.38680662185526643
4.404861878453039,-0.13076503396499242
4.438232044198895,0.07760187434345749
4.471602209944752,0.21853592889997417
4.504972375690608,0.2992458506616831
4.538342541436465,0.34262948640841984
4.5717127071823205,0.36965474098810963
4.605082872928177,0.38644398081666753
4.638453038674034,0.38383219711103933
4.67182320441989,0.3491668989456406
4.7051933701657465,0.28221161434121483
4.738563535911602,0.20407524538761798
4.771933701657459,0.15207592766699304
4.805303867403316,0.16212220265086608
4.8386740331491715,0.2483417332678204
4.872044198895028,0.39221090211102194
4.905414364640884,0.5484948630090505
4.938784530386741,0.665569829105759
4.972154696132597,0.7089277234460812
5.005524861878453,0.674354269686926
5.03889502762431,0.5832544740452825
5.072265193370166,0.4635981892252255
5.105635359116023,0.3292343444600563
5.1390055248618784,0.17175473915554224
5.172375690607735,-0.02872881775708685
5.205745856353592,-0.2800113958688228
5.239116022099448,-0.5568097810735991
5.272486187845304,-0.7976681558298643
5.30585635359116,-0.9252451324717421
5.339226519337017,-0.8815981912231537
5.372596685082874,-0.6603675953734974
5.4059668508287295,-0.3180133370062131
5.439337016574586,0.043511684963780196
5.472707182320442,0.31571046656853713
5.506077348066299,0.4262091065554875
5.5394475138121555,0.36556373048751617
5.572817679558011,0.1867100588212956
5.606187845303868,-0.021236958707517052
5.639558011049724,-0.1716693927881486
5.672928176795581,-0.2141321891113691
5.706298342541437,-0.14942587796430926
5.739668508287293,-0.022186671948975823
5.77303867403315,0.10306890017320286
5.806408839779006,0.17050007398644618
5.839779005524862,0.15412209485466352
5.873149171270718,0.06445216704463855
5.906519337016575,-0.0597454380678883
5.939889502762432,-0.1692825682705184
5.9732596685082875,-0.22396319921679944
6.006629834254144,-0.20642342407612516
6.04,-0.12651559307439916
6.073370165745857,-0.016368565255604692
6.1067403314917135,0.08078347976510152
6.140110497237569,0.123955358021109
6.173480662983426,0.08662764543068716
6.206850828729282,-0.03430888173685025
6.240220994475139,-0.21446195734583876
6.273591160220995,-0.4043973879311802
6.306961325966851,-0.5400880918442993
6.340331491712708,-0.560957421775807
6.373701657458564,-0.43160473491761836
6.40707182320442,-0.15967437705916793
6.440441988950277,0.1988206292982809
6.473812154696133,0.5521673687751995
6.50718232044199,0.8018365887290699
6.5405524861878455,0.8776993451518077
6.573922651933702,0.7650787757056058
6.607292817679559,0.5111171664080196
6.640662983425415,0.2063353688096716
6.674033149171271,-0.0515816203474838
6.707403314917127,-0.19621236814771148
6.740773480662984,-0.2159892707046689
6.774143646408841,-0.15256798191584134
6.8075138121546965,-0.07547374524454332
6.840883977900553,-0.045843835591369925
6.874254143646409,-0.08708789568699339
6.907624309392266,-0.17632127916390605
6.9409944751381225,-0.25954148099559426
6.974364640883978,-0.2814798353398787
7.007734806629835,-0.21420651805528648
7.041104972375691,-0.07029211008133393
7.074475138121548,0.10472371127907637
7.107845303867403,0.254822929225231
7.14121546961326,0.338189763164302
7.174585635359117,0.3416727176673823
7.207955801104973,0.2795427925638706
7.241325966850829,0.18013663523974002
7.274696132596685,0.06990989450477486
7.308066298342542,-0.03584323944594192
7.341436464088399,-0.13200268425907752
7.3748066298342545,-0.21583645598163112
7.408176795580111,-0.2798719188022775
7.441546961325967,-0.311540204663401
7.474917127071824,-0.3002891393765652
7.5082872928176805,-0.24710627496313994
7.541657458563536,-0.1690965202439384
7.575027624309393,-0.0944158256768033
7.608397790055249,-0.048863174658601086
7.641767955801106,-0.041126747938384695
7.675138121546962,-0.055559131297525655
7.708508287292818,-0.058058567783425344
7.741878453038675,-0.013702296935136169
7.775248618784531,0.09213561835182685
7.808618784530387,0.24048237986611676
7.841988950276244,0.38169798802871924
7.8753591160221,0.4552538480791422
7.908729281767957,0.41799429841508196
7.9420994475138125,0.26712019349217236
7.975469613259669,0.04561044906061467
8.008839779005525,-0.17399952737223953
8.042209944751383,-0.3205486787205131
8.075580110497238,-0.3550100773121983
8.108950276243094,-0.28592171991125864
8.14232044198895,-0.1621649982730936
8.175690607734808,-0.047468037611116794
8.209060773480664,0.009926129351502002
8.24243093922652,-0.002596312269562326
8.275801104972377,-0.06081242047107837
8.309171270718233,-0.12000584416277053
8.342541436464089,-0.13914472671376873
8.375911602209946,-0.10062497750493296
8.409281767955802,-0.016931917607725857
8.442651933701658,0.07735217020347174
8.476022099447514,0.14304576876836536
8.509392265193371,0.15468869818934516
8.542762430939227,0.11156351581963585
8.576132596685083,0.037119964636992964
8.60950276243094,-0.03225725590979895
8.642872928176796,-0.06368988312450448
8.676243093922652,-0.04201641664826234
8.709613259668508,0.02436174562706267
8.742983425414366,0.10814962741659981
8.776353591160222,0.17569368479854916
8.809723756906077,0.20135193007559257
8.843093922651935,0.17723579075324833
8.87646408839779,0.11445899119512776
8.909834254143647,0.036288613020943314
8.943204419889504,-0.03263646561377271
8.97657458563536,-0.07545578122194639
9.009944751381216,-0.08663957839066655
9.043314917127072,-0.06953346369997233
9.07668508287293,-0.030849282391060988
9.110055248618785,0.0237293539521469
9.143425414364641,0.09011188305520577
9.176795580110499,0.16277963598039896
9.210165745856354,0.23094870744129145
9.24353591160221,0.2773441556102468
9.276906077348068,0.28157561979840307
9.310276243093924,0.22745147169014324
9.34364640883978,0.11112731438147487
9.377016574585635,-0.05392676486973494
9.410386740331493,-0.2379721908947381
9.443756906077349,-0.4022033104401633
9.477127071823205,-0.5095419125521645
9.510497237569062,-0.535185872844303
9.543867403314918,-0.47363547206273177
9.577237569060774,-0.34055102124657555
9.610607734806631,-0.1693451242376335
9.643977900552487,-0.003336537267388657
9.677348066298343,0.11511384256246414
9.710718232044199,0.1562978058367219
9.744088397790057,0.11262868874762255
9.777458563535912,0.002591414112428794
9.810828729281768,-0.13300519126057322
9.844198895027626,-0.2422595555249295
9.877569060773482,-0.2779590507523228
9.910939226519337,-0.21314528132078983
9.944309392265193,-0.05147048963297546
9.97767955801105,0.1712967398310376
10.011049723756907,0.39585255473397846
10.044419889502763,0.5563972377205887
10.07779005524862,0.6017077082054803
10.111160220994476,0.5137357356461492
10.144530386740332,0.3167853742840711
10.17790055248619,0.07241630791581753
10.211270718232045,-0.14008846913022138
10.244640883977901,-0.2519244260071805
10.278011049723757,-0.23124305059051323
10.311381215469615,-0.09674110064970731
10.34475138121547,0.08856649146164723
10.378121546961326,0.2422540417274878
10.411491712707184,0.2964071831983714
10.44486187845304,0.22607167792077745
10.478232044198895,0.05945510959039022
10.511602209944753,-0.1349604874417975
10.544972375690609,-0.2787345160518642
10.578342541436465,-0.3176232235306791
10.61171270718232,-0.24445940468327557
10.645082872928178,-0.10103114947283577
10.678453038674034,0.04127502844725669
10.71182320441989,0.11315807098106373
10.745193370165747,0.07759947775918077
10.778563535911603,-0.054136412035514586
10.811933701657459,-0.22710528773915506
10.845303867403315,-0.36560326437279106
10.878674033149172,-0.40461801825863
10.912044198895028,-0.3166811463093697
10.945414364640884,-0.12309385595403864
10.978784530386742,0.11483558591342449
11.012154696132598,0.32045110739654187
11.045524861878453,0.4315945725804428
11.078895027624311,0.42305274050210345
11.112265193370167,0.31270489136345914
11.145635359116023,0.14997202697550702
11.179005524861878,-0.007039967286418342
11.212375690607736,-0.1148472198637006
11.245745856353592,-0.1582861189292631
11.279116022099448,-0.1499198513168341
11.312486187845305,-0.11755444757531924
11.345856353591161,-0.08753920166058383
11.379226519337017,-0.0725895188526047
11.412596685082875,-0.06951989762934338
11.44596685082873,-0.06646732492956843
11.479337016574586,-0.05402769358956473
11.512707182320442,-0.03294998870292885
11.5460773480663,-0.013560027644727224
11.579447513812156,-0.007440537635306717
11.612817679558011,-0.016935974968375418
11.646187845303869,-0.02976589674769303
11.679558011049725,-0.023302198677137568
11.71292817679558,0.02267635121713475
11.746298342541436,0.11147761370405145
11.779668508287294,0.22199394213527668
11.81303867403315,0.3139270757825647
11.846408839779006,0.3446525720367143
11.879779005524863,0.2897667245052415
11.91314917127072,0.15655071199080065
11.946519337016575,-0.0171997268066449
11.979889502762433,-0.17888194967192847
12.013259668508288,-0.28345219949623873
12.046629834254144,-0.31111093353753805
12.08,-0.271781754351247
12.113370165745858,-0.1952571770523274
12.146740331491714,-0.11358552966812853
12.18011049723757,-0.045924613859775726
12.213480662983427,0.006217472029532153
12.246850828729283,0.052119914880246795
12.280220994475139,0.09913278486446951
12.313591160220996,0.14305290130768208
12.346961325966852,0.1681112928911203
12.380331491712708,0.15666668203163997
12.413701657458564,0.10228206754106565
12.447071823204421,0.017426078436544482
12.480441988950277,-0.06986551509521052
12.513812154696133,-0.12923300174544294
12.54718232044199,-0.14365016677301515
12.580552486187846,-0.11811173853949176
12.613922651933702,-0.07590230148431874
12.64729281767956,-0.04446374730566941
12.680662983425416,-0.03923037556596135
12.714033149171271,-0.05503510346163798
12.747403314917127,-0.07007644520288148
12.780773480662985,-0.05992650926624188
12.81414364640884,-0.01325421094391497
12.847513812154697,0.059852907518734316
12.880883977900554,0.13168673566140277
12.91425414364641,0.17073669044226325
12.947624309392266,0.15807982882832083
12.980994475138122,0.09778990575923958
13.01436464088398,0.016187137517843123
13.047734806629835,-0.04956095620735424
13.081104972375691,-0.06803921712382358
13.114475138121549,-0.027924358556101026
13.147845303867404,0.05606683696049109
13.18121546961326,0.14808650974138263
13.214585635359118,0.20497987258296657
13.247955801104974,0.19353161677632646
13.28132596685083,0.10425273608842295
13.314696132596685,-0.04378061005625205
13.348066298342543,-0.20885596613571925
13.381436464088399,-0.3408115396079697
13.414806629834255,-0.3979296883127679
13.448176795580112,-0.36043394152457653
13.481546961325968,-0.2363043522102456
13.514917127071824,-0.05816079175752224
13.548287292817681,0.12715208207688966
13.581657458563537,0.27278874424347765
13.615027624309393,0.34578840345484424
13.648397790055249,0.3367380944282786
13.681767955801106,0.2622569888327894
13.715138121546962,0.15897580799003705
13.748508287292818,0.07013542201982986
13.781878453038676,0.028840508275104114
13.815248618784532,0.04421739402313494
13.848618784530387,0.09670744328253231
13.881988950276245,0.14565404406880517
13.9153591160221,0.14703747943079956
13.948729281767957,0.0740922334568267
13.982099447513813,-0.06861199275698386
14.01546961325967,-0.24471698675970407
14.048839779005526,-0.4002769191762012
14.082209944751382,-0.48659953425822944
14.11558011049724,-0.48118875294653585
14.148950276243095,-0.3967404273714349
14.182320441988951,-0.27375988249235833
14.215690607734807,-0.16049002618089583
14.249060773480664,-0.09025477323497758
14.28243093922652,-0.06751406757483142
14.315801104972376,-0.06917156053694307
14.349171270718234,-0.05958611178266212
14.38254143646409,-0.010772999126692672
14.415911602209945,0.08285620119189974
14.449281767955803,0.20230554501822245
14.482651933701659,0.31446868259779515
14.516022099447515,0.3888972530893593
14.54939226519337,0.4118289125359563
14.582762430939228,0.3906095421870308
14.616132596685084,0.34711378049113795
14.64950276243094,0.3044874921218749
14.682872928176797,0.2746083354586968
14.716243093922653,0.25274458889183604
14.749613259668509,0.22172403596707893
14.782983425414367,0.16282591263289647
14.816353591160222,0.06726815685470944
14.849723756906078,-0.05774884700866614
14.883093922651934,-0.19118818739277138
14.916464088397792,-0.3067554318365534
14.949834254143648,-0.3830383225759195
14.983204419889503,-0.4102362828088629
15.016574585635361,-0.3911209357989992
15.049944751381217,-0.33726389623944675
15.083314917127073,-0.26358695399663284
15.116685082872928,-0.1839988642472024
15.150055248618786,-0.10906013295626583
15.183425414364642,-0.04496713018069169
15.216795580110498,0.007096618887364244
15.250165745856355,0.05117342049397349
15.283535911602211,0.0952126979998948
15.316906077348067,0.14732217652623025
15.350276243093925,0.21026124097382554
15.38364640883978,0.27670579985893906
15.417016574585636,0.32845463605606956
15.450386740331492,0.34137477626844814
15.48375690607735,0.29501444063951227
15.517127071823205,0.18299984424765728
15.550497237569061,0.019245458672718894
15.583867403314919,-0.1635594190810709
15.617237569060775,-0.3233511061963901
15.65060773480663,-0.42249143331220274
15.683977900552488,-0.4403776344437981
15.717348066298344,-0.37972823421492347
15.7507182320442,-0.2641576470122345
15.784088397790056,-0.12837428828423345
15.817458563535913,-0.005340028429440096
15.85082872928177,0.08427894647593083
15.884198895027625,0.1363764580277499
15.917569060773483,0.16031944498476441
15.950939226519338,0.17061141697465407
15.984309392265194,0.17751938351756008
16.01767955801105,0.18116436742109257
16.051049723756908,0.17195453970351815
16.084419889502765,0.13728659859047102
16.11779005524862,0.07129393190949183
16.151160220994477,-0.01749110004604181
16.18453038674033,-0.10522848418145113
16.21790055248619,-0.16030575019657245
16.251270718232046,-0.1567346920591715
16.2846408839779,-0.08739645109433598
16.318011049723758,0.029529586683113323
16.351381215469615,0.15490669660411036
16.38475138121547,0.24282662374187822
16.418121546961327,0.2590223356556876
16.451491712707185,0.19563966241605107
16.48486187845304,0.07575114491581861
16.518232044198896,-0.05479838015245684
16.551602209944754,-0.14528087059334083
16.584972375690608,-0.16056942743617186
16.618342541436466,-0.09580181038527301
16.651712707182323,0.020963206075100157
16.685082872928177,0.13942194980151934
16.718453038674035,0.20685755084785595
16.751823204419892,0.18911757748917443
16.785193370165747,0.08422532452678864
16.818563535911604,-0.07680532591632788
16.851933701657458,-0.24203397910280006
16.885303867403316,-0.35834119495148614
16.918674033149173,-0.39074513292936014
16.952044198895027,-0.3337967068817495
16.985414364640885,-0.21126556667984114
17.018784530386743,-0.06527675595581496
17.052154696132597,0.05999042572990934
17.085524861878454,0.13349072113589128
17.118895027624312,0.14608401441279195
17.152265193370166,0.11055874296911941
17.185635359116024,0.05392602826662873
17.21900552486188,0.0056029678312338365
