Frequency (Hz),Amplitude
0.0,0.37343466841188144
0.019823788546255508,0.37327141827905497
0.039647577092511016,0.3727818714993275
0.059471365638766524,0.37196663916834777
0.07929515418502203,0.37082674058390486
0.09911894273127755,0.36936360447977323
0.11894273127753305,0.3675790708063784
0.13876651982378857,0.3654753931131451
0.15859030837004406,0.36305524160589564
0.17841409691629956,0.36032170697282506
0.1982378854625551,0.35727830509601693
0.2180616740088106,0.3539289827911363
0.2378854625550661,0.3502781247499226
0.25770925110132165,0.3463305618946873
0.27753303964757714,0.34209158139818363
0.29735682819383263,0.33756693867172033
0.31718061674008813,0.33276287168580504
0.3370044052863437,0.3276861180608209
0.3568281938325991,0.3223439354526974
0.37665198237885467,0.31674412586627404
0.3964757709251102,0.3108950646581281
0.41629955947136565,0.3048057351494685
0.4361233480176212,0.2984857699615649
0.4559471365638767,0.2919455004225744
0.4757709251101322,0.28519601568127567
0.49559471365638774,0.27824923351405456
0.5154185022026433,0.2711179852382488
0.5352422907488987,0.2638161176614537
0.5550660792951543,0.2563586156186537
0.5748898678414097,0.24876174938911766
0.5947136563876653,0.24104325215035022
0.6145374449339208,0.23322253361444562
0.6343612334801763,0.22532093706883152
0.6541850220264318,0.21736204813598517
0.6740088105726874,0.20937206451134932
0.6938325991189428,0.20138023643601596
0.7136563876651982,0.19341938717634058
0.7334801762114539,0.18552652041389625
0.7533039647577093,0.17774351573567496
0.7731277533039648,0.17011790211018757
0.7929515418502204,0.16270367909443162
0.8127753303964759,0.15556212230026686
0.8325991189427313,0.1487624587429654
0.8524229074889869,0.1423822261379692
0.8722466960352424,0.13650704123688373
0.8920704845814978,0.1312294132529481
0.9118942731277534,0.1266461908296558
0.931718061674009,0.1228542955760166
0.9515418502202644,0.11994465610396778
0.9713656387665199,0.11799475646425828
0.9911894273127755,0.117060864998858
1.0110132158590308,0.11717154274292474
1.0308370044052866,0.11832407880784568
1.0506607929515421,0.12048486288153691
1.0704845814977975,0.12359358403934124
1.090308370044053,0.1275700795420878
1.1101321585903086,0.13232214587463018
1.1299559471365639,0.1377527868281231
1.1497797356828194,0.14376595560905428
1.1696035242290752,0.15027048612398503
1.1894273127753305,0.1571823650803247
1.209251101321586,0.1644257152665917
1.2290748898678416,0.17193289780002433
1.248898678414097,0.17964408158398418
1.2687224669603525,0.1875065371682812
1.288546255506608,0.19547382591760065
1.3083700440528636,0.20350498784071525
1.3281938325991192,0.21156378420995403
1.3480176211453747,0.21961802070584155
1.36784140969163,0.22763895862914693
1.3876651982378856,0.23560081166849894
1.4074889867841411,0.24348032075386916
1.4273127753303965,0.2512563975876143
1.4471365638766522,0.25890982718595806
1.4669603524229078,0.26642302036680215
1.4867841409691631,0.2737798081005732
1.5066079295154187,0.2809652707324867
1.5264317180616742,0.28796559614324874
1.5462555066079295,0.2947679618772834
1.5660792951541853,0.3013604371058835
1.5859030837004409,0.30773190100763903
1.6057268722466962,0.31387197474737344
1.6255506607929517,0.3197709647323724
1.6453744493392073,0.32541981523455304
1.6651982378854626,0.33081006880449243
1.6850220264317182,0.33593383317896636
1.7048458149779737,0.3407837536102637
1.7246696035242293,0.3453529897305088
1.7444933920704848,0.34963519621650335
1.7643171806167404,0.35362450664532596
1.7841409691629957,0.35731552003398187
1.8039647577092512,0.36070328964122106
1.8237885462555068,0.3637833136802506
1.8436123348017623,0.3665515276496266
1.863436123348018,0.3690042980387932
1.8832599118942732,0.3711384172060079
1.9030837004405288,0.37295109926135295
1.9229074889867843,0.37443997681749563
1.9427312775330399,0.3756030984967754
1.9625550660792954,0.3764389271056373
1.982378854625551,0.3769463384075987
2.002202643171806,0.377124620443957
2.0220264317180616,0.37697347336826764
2.041850220264317,0.37649300977620787
2.061674008810573,0.3756837555277735
2.0814977973568287,0.37454665107409224
2.1013215859030843,0.3730830533162507
2.1211453744493394,0.37129473804017477
2.140969162995595,0.36918390298887643
2.1607929515418505,0.3667531716524023
2.180616740088106,0.36400559787771997
2.2004405286343616,0.3609446714244167
2.220264317180617,0.35757432462088723
2.2400881057268722,0.3538989403077085
2.2599118942731278,0.3499233612936089
2.2797356828193833,0.3456529015945853
2.299559471365639,0.34109335978093164
2.319383259911895,0.3362510348212876
2.3392070484581504,0.33113274489091277
2.3590308370044055,0.32574584970471504
2.378854625550661,0.3200982770495266
2.3986784140969166,0.314198554327228
2.418502202643172,0.3080558460881718
2.4383259911894277,0.3016799987379047
2.4581497797356833,0.2950815938479847
2.4779735682819384,0.28827201180425494
2.497797356828194,0.28126350789217697
2.5176211453744495,0.2740693033635852
2.537444933920705,0.26670369456445847
2.5572687224669606,0.259182183841709
2.577092511013216,0.25152163669997146
2.5969162995594717,0.24374047054691267
2.6167400881057272,0.23585888133495594
2.6365638766519828,0.22789911543172933
2.6563876651982383,0.2198857950291324
2.676211453744494,0.2118463061332536
2.6960352422907494,0.2038112583042885
2.715859030837005,0.19581502421845115
2.73568281938326,0.18789636378445668
2.7555066079295156,0.18009913035946878
2.775330396475771,0.1724730431752862
2.7951541850220267,0.16507448707335884
2.8149779735682823,0.15796726395474295
2.834801762114538,0.1512231660314463
2.854625550660793,0.14492216772958888
2.874449339207049,0.13915194737316008
2.8942731277533045,0.13400637371416965
2.91409691629956,0.12958257233641687
2.9339207048458156,0.12597629401778962
2.953744493392071,0.12327561378397409
2.9735682819383262,0.12155350953936411
2.993392070484582,0.12086047930708149
3.0132158590308373,0.12121877180178653
3.033039647577093,0.12261970438678124
3.0528634361233484,0.12502481621645165
3.072687224669604,0.12837052333793061
3.092511013215859,0.13257502369483865
3.1123348017621146,0.13754584507301976
3.1321585903083706,0.14318667217009523
3.151982378854626,0.14940266096902624
3.1718061674008817,0.15610402678556573
3.1916299559471373,0.16320808661017874
3.2114537444933924,0.17064011502851553
3.231277533039648,0.1783333942726102
3.2511013215859035,0.18622877874150875
3.270925110132159,0.1942740093269308
3.2907488986784146,0.20242293382595716
3.31057268722467,0.21063472815718715
3.3303964757709252,0.2188731700404703
3.350220264317181,0.22710598898793974
3.3700440528634363,0.23530429970955039
3.389867841409692,0.24344211670564486
3.4096916299559474,0.2514959431634242
3.4295154185022034,0.25944442540713586
3.4493392070484585,0.2672680638565058
3.469162995594714,0.274948971966596
3.4889867841409696,0.28247067551034677
3.508810572687225,0.28981794556761387
3.5286343612334807,0.29697665956745306
3.5484581497797363,0.303933685628931
3.5682819383259914,0.31067678623428885
3.588105726872247,0.3171945379434452
3.6079295154185025,0.32347626442743277
3.627753303964758,0.32951198057220654
3.6475770925110136,0.3352923457965563
3.667400881057269,0.34080862505140364
3.6872246696035247,0.34605265623331666
3.7070484581497802,0.3510168229639824
3.726872246696036,0.3556940318663499
3.7466960352422913,0.3600776936164823
3.7665198237885464,0.364161707171207
3.7863436123348024,0.36794044667244125
3.8061674008810575,0.3714087506122146
3.8259911894273135,0.37456191291154134
3.8458149779735686,0.3773956756242641
3.8656387665198246,0.3799062230249702
3.8854625550660797,0.382090176881645
3.905286343612335,0.3839445927478914
3.925110132158591,0.38546695713992984
3.9449339207048464,0.38665518548904404
3.964757709251102,0.38750762078345846
3.9845814977973575,0.3880230328331488
4.004405286343612,0.3882006181106658
4.024229074889869,0.38804000013710915
4.044052863436123,0.3875412303997486
4.06387665198238,0.38670478980290596
4.083700440528634,0.3855315906704039
4.103524229074891,0.38402297933411284
4.123348017621146,0.38218073936037067
4.143171806167401,0.38000709548557565
4.162995594713657,0.37750471835204436
4.182819383259912,0.3746767301596224
4.2026431718061685,0.3715267113745805
4.222466960352423,0.3680587086680397
4.242290748898679,0.36427724429235575
4.262114537444934,0.3601873271455944
4.28193832599119,0.35579446582421986
4.301762114537445,0.3511046840232997
4.321585903083701,0.3461245387143995
4.3414096916299565,0.34086114161625564
4.361233480176212,0.335322184575704
4.381057268722468,0.32951596960006063
4.400881057268723,0.32345144443117746
4.420704845814979,0.31713824473281477
4.440528634361234,0.31058674418206667
4.46035242290749,0.3038081140213544
4.4801762114537445,0.29681439394862735
4.500000000000001,0.2896185766109746
4.5198237885462555,0.2822347084316764
4.539647577092512,0.27467801005306847
4.559471365638767,0.26696502032816916
4.579295154185023,0.25911376854292584
4.599118942731278,0.25114398039125724
4.618942731277533,0.24307732412285074
4.63876651982379,0.2349377041644378
4.658590308370044,0.22675161023587925
4.678414096916301,0.21854853027797036
4.6982378854625555,0.21036143492989423
4.718061674008811,0.20222733909809978
4.737885462555067,0.19418794116995375
4.757709251101322,0.1862903308761943
4.777533039647578,0.1785877401806314
4.797356828193833,0.17114028463105704
4.817180616740089,0.16401560179520233
4.837004405286344,0.15728923628262323
4.856828193832599,0.1510445491209769
4.876651982378855,0.14537185418277201
4.896475770925111,0.14036643392635723
4.9162995594713665,0.13612511065383
4.936123348017622,0.13274121259694685
4.955947136563877,0.13029812486735626
4.975770925110133,0.12886212642438327
4.995594713656388,0.12847572677434263
5.015418502202644,0.12915295819824518
5.035242290748899,0.13087781294886344
5.055066079295155,0.13360624235741822
5.07488986784141,0.13727117082897813
5.094713656387666,0.14178926639965914
5.114537444933921,0.1470680243181269
5.134361233480177,0.15301201754380941
5.154185022026432,0.15952769260654084
5.174008810572688,0.16652658076571517
5.193832599118943,0.1739271155344532
5.213656387665199,0.1816553864821546
5.2334801762114544,0.18964516929240083
5.25330396475771,0.19783751660633603
5.2731277533039655,0.20618011938414155
5.292951541850221,0.2146265793118279
5.312775330396477,0.22313567859347824
5.332599118942731,0.2316706951773128
5.352422907488988,0.2401987863834671
5.372246696035242,0.24869044853481395
5.392070484581499,0.25711905143222274
5.4118942731277535,0.2654604419905754
5.43171806167401,0.27369260940500933
5.451541850220265,0.28179540375694834
5.47136563876652,0.2897503003075232
5.491189427312777,0.29754020244604645
5.511013215859031,0.3051492771221618
5.530837004405288,0.31256281745839487
5.550660792951542,0.31976712804841567
5.570484581497798,0.3267494291664252
5.5903083700440535,0.33349777673584524
5.610132158590309,0.3400009954357162
5.6299559471365646,0.34624862276817925
5.64977973568282,0.3522308622816278
5.669603524229076,0.3579385444523528
5.689427312775331,0.3633630939819549
5.709251101321586,0.3684965024784524
5.729074889867842,0.37333130566286854
5.748898678414098,0.3778605643864204
5.768722466960353,0.3820778488629803
5.788546255506609,0.3859772256191684
5.808370044052864,0.3895532467474014
5.82819383259912,0.39280094111497554
5.848017621145375,0.39571580724026845
5.867841409691631,0.39829380759490046
5.887665198237886,0.4005313641324346
5.907488986784142,0.40242535487872155
5.927312775330397,0.4039731114496589
5.9471365638766525,0.4051724173883187
5.966960352422908,0.40602150723699393
5.986784140969164,0.4065190662807721
6.00660792951542,0.4066642309183637
6.026431718061675,0.4064565896344669
6.04625550660793,0.4058961845649449
6.066079295154186,0.4049835136637193
6.085903083700441,0.40371953349737105
6.105726872246697,0.4021056627119459
6.125550660792952,0.40014378623541924
6.145374449339208,0.39783626030053476
6.1651982378854635,0.3951859183959987
6.185022026431718,0.392196078280295
6.204845814977975,0.3888705502222605
6.224669603524229,0.3852136466677888
6.244493392070486,0.3812301935718377
6.264317180616741,0.3769255436830745
6.284140969162996,0.37230559212445213
6.303964757709252,0.36737679467983336
6.323788546255507,0.36214618927681813
6.3436123348017635,0.3566214212509142
6.363436123348018,0.35081077309106423
6.3832599118942746,0.34472319950418534
6.403083700440529,0.3383683688021513
6.422907488986785,0.3317567118140317
6.44273127753304,0.32489947976728334
6.462555066079296,0.3178088128695474
6.482378854625551,0.310497821668911
6.502202643171807,0.30298068368202963
6.5220264317180625,0.29527275826595345
6.541850220264318,0.2873907232769112
6.561674008810574,0.2793527377093001
6.581497797356829,0.2711786352312197
6.601321585903085,0.26289015430100005
6.62114537444934,0.2545112113006235
6.640969162995596,0.24606822373823964
6.6607929515418505,0.23759049084365078
6.680616740088107,0.22911063845150215
6.700440528634362,0.22066513336059992
6.720264317180618,0.21229486846826975
6.740088105726873,0.20404581255128768
6.759911894273129,0.1959697056760697
6.779735682819384,0.18812476035032089
6.799559471365639,0.18057629680724052
6.819383259911895,0.1733971958573249
6.83920704845815,0.16666799460631873
6.859030837004407,0.1604763850875154
6.8788546255506615,0.15491582079546337
6.898678414096917,0.1500829248055927
6.918502202643173,0.1460734749633655
6.938325991189428,0.14297696646245997
6.958149779735684,0.14087013336794443
6.977973568281939,0.13981027528296394
6.997797356828195,0.1398296018121561
7.01762114537445,0.14093184603584413
7.037444933920705,0.14309197967857332
7.0572687224669615,0.1462590943892357
7.077092511013216,0.15036171844611892
7.096916299559473,0.15531435606009023
7.116740088105728,0.16102401086549664
7.136563876651983,0.16739578485160223
7.156387665198239,0.17433710430105523
7.176211453744494,0.18176052192745748
7.19603524229075,0.18958529135241187
7.215859030837005,0.19773801009536454
7.235682819383261,0.20615262722359062
7.255506607929516,0.21477006195772733
7.275330396475772,0.22353761557361831
7.295154185022027,0.2324083001146372
7.314977973568283,0.24134016106963016
7.334801762114538,0.25029563799427135
7.354625550660794,0.25924098495659614
7.374449339207049,0.2681457588620811
7.394273127753305,0.27698237561596084
7.4140969162995605,0.28572572973155197
7.433920704845816,0.294352870980547
7.453744493392072,0.30284273105256077
7.473568281938327,0.31117589333727597
7.493392070484583,0.3193343994793239
7.513215859030838,0.32730158705964124
7.533039647577093,0.33506195349748563
7.552863436123348,0.3426010419740295
7.572687224669605,0.3499053458201696
7.59251101321586,0.35696222837536334
7.612334801762115,0.36375985580920495
7.6321585903083715,0.3702871408098606
7.651982378854627,0.3765336953907463
7.671806167400882,0.3824897913563677
7.691629955947137,0.38814632721117387
7.711453744493394,0.39349480049591234
7.731277533039649,0.3985272847035213
7.751101321585904,0.40323641006614086
7.7709251101321595,0.407615347619857
7.790748898678416,0.4116577960514715
7.81057268722467,0.41535797091155874
7.830396475770926,0.4187105958466173
7.850220264317182,0.42171089555958574
7.870044052863436,0.4243545902574855
7.889867841409693,0.4266378913853858
7.909691629955948,0.4285574984820356
7.929515418502204,0.4301105970234425
7.9493392070484585,0.43129485714803295
7.969162995594715,0.43210843318084347
7.9889867841409705,0.4325499638971615
8.008810572687224,0.43261857348599847
8.02863436123348,0.4323138731934069
8.048458149779737,0.4316359636448154
8.068281938325994,0.43058543786439074
8.088105726872246,0.4291633850287827
8.107929515418503,0.42737139501325666
8.12775330396476,0.4252115638097482
8.147577092511014,0.42268649992094853
8.167400881057269,0.41979933186062285
8.187224669603525,0.4165537169213505
8.207048458149782,0.412953851405274
8.226872246696036,0.4090044825535261
8.246696035242293,0.4047109224574672
8.266519823788547,0.4000790642892565
8.286343612334802,0.3951154012548208
8.306167400881058,0.38982704874936563
8.325991189427315,0.38422177028702226
8.345814977973568,0.37830800788601904
8.365638766519824,0.3720949177213752
8.38546255506608,0.36559241201351406
8.405286343612337,0.3588112083083314
8.42511013215859,0.351762887527784
8.444933920704846,0.34445996243691107
8.464757709251103,0.3369159584899027
8.484581497797357,0.3291455093917949
8.504405286343614,0.32116447015091515
8.524229074889869,0.31299005090292087
8.544052863436125,0.3046409753599833
8.56387665198238,0.29613766836901845
8.583700440528636,0.28750247772081766
8.60352422907489,0.2787599359823649
8.623348017621145,0.26993706862318245
8.643171806167402,0.2610637548898708
8.662995594713658,0.2521731474538727
8.682819383259913,0.2433021553347057
8.702643171806168,0.23449199124862977
8.722466960352424,0.22578877825888588
8.74229074889868,0.21724419987748012
8.762114537444935,0.20891616058992094
8.78193832599119,0.20086939784045565
8.801762114537446,0.19317594979333944
8.821585903083701,0.1859153352467202
8.841409691629957,0.17917424658911413
8.861233480176212,0.17304550518631856
8.881057268722468,0.1676260045763022
8.900881057268723,0.16301340714635312
8.92070484581498,0.15930150720926564
8.940528634361234,0.15657445323517807
8.960352422907489,0.15490040619055176
8.980176211453745,0.1543255870010809
9.000000000000002,0.15486985328974118
9.019823788546258,0.15652478325504438
9.039647577092511,0.1592547163556066
9.059471365638768,0.16300048912502946
9.079295154185024,0.1676850033053472
9.099118942731279,0.17321949778906795
9.118942731277533,0.17950950054158862
9.13876651982379,0.18645977813824188
9.158590308370046,0.1939779933242231
9.1784140969163,0.20197709156261856
9.198237885462555,0.2103766177949967
9.218061674008812,0.21910322963835802
9.237885462555067,0.22809066342328338
9.257709251101323,0.2372793638505527
9.27753303964758,0.2466159333580718
9.297356828193834,0.25605250772618227
9.317180616740089,0.265546125335879
9.337004405286345,0.27505812925130757
9.356828193832602,0.2845536222210599
9.376651982378855,0.2940009825386976
9.396475770925111,0.3033714414161344
9.416299559471367,0.312638718479941
9.436123348017622,0.3217787100219067
9.455947136563877,0.3307692239128668
9.475770925110133,0.3395897550897672
9.49559471365639,0.34822129591317225
9.515418502202644,0.3566461762587666
9.5352422907489,0.36484792882922285
9.555066079295155,0.3728111757856492
9.57488986784141,0.3805215333636303
9.594713656387666,0.387965531645114
9.614537444933923,0.3951305470977326
9.634361233480178,0.4020047458721981
9.654185022026432,0.4085770361701842
9.674008810572689,0.4148370282670018
9.693832599118945,0.4207750010015669
9.713656387665198,0.4263818737381031
9.733480176211454,0.43164918296387617
9.75330396475771,0.4365690628219389
9.773127753303967,0.4411342289900304
9.792951541850222,0.4453379654115162
9.812775330396477,0.44917411346340674
9.832599118942733,0.45263706321398145
9.852422907488988,0.45572174647928665
9.872246696035244,0.45842363143656006
9.892070484581499,0.4607387185943341
9.911894273127754,0.46266353795536497
9.93171806167401,0.4641951472402777
9.951541850220266,0.46533113106815394
9.971365638766521,0.4660696010157336
9.991189427312776,0.46640919650060403
10.011013215859032,0.4663490864555744
10.030837004405289,0.46588897178295774
10.050660792951543,0.46502908859824515
10.070484581497798,0.46377021229400256
10.090308370044054,0.46211366247675273
10.11013215859031,0.4600613088529194
10.129955947136565,0.4576155781654164
10.14977973568282,0.45477946231004407
10.169603524229077,0.45155652779271477
10.189427312775331,0.4479509267234871
10.209251101321588,0.44396740958509984
10.229074889867842,0.43961134006027164
10.248898678414099,0.43488871225806564
10.268722466960353,0.4298061707440147
10.28854625550661,0.4243710338556457
10.308370044052865,0.4185913208751417
10.32819383259912,0.412475783738719
10.348017621145376,0.4060339440891942
10.367841409691632,0.3992761366304259
10.387665198237887,0.39221355992180584
10.407488986784141,0.38485833596546215
10.427312775330398,0.3772235801914102
10.447136563876654,0.36932348374500024
