Time (s),Filtered Signal
0.0,-0.029723503830658735
0.033370165745856356,-0.21142409894311923
0.06674033149171271,-0.36872534044131694
0.10011049723756907,-0.48551643183175874
0.13348066298342542,-0.5567772262488216
0.16685082872928178,-0.5853414719611821
0.20022099447513814,-0.5747343137860519
0.2335911602209945,-0.5233270595865466
0.26696132596685085,-0.4244124521225845
0.30033149171270723,-0.27301842073511395
0.33370165745856356,-0.07561238695139022
0.3670718232044199,0.14375456729692646
0.4004419889502763,0.3460641904344216
0.43381215469613266,0.4892920005144588
0.467182320441989,0.5448319442786246
0.5005524861878453,0.5103292508627102
0.5339226519337017,0.4119613262824942
0.5672928176795581,0.2942162097980601
0.6006629834254145,0.20153922023737256
0.6340331491712707,0.16039814119855397
0.6674033149171271,0.17003781734784645
0.7007734806629835,0.2056655431377782
0.7341436464088398,0.2316378937538634
0.7675138121546962,0.21779739608127918
0.8008839779005525,0.15155401708061797
0.8342541436464089,0.04135432316307687
0.8676243093922653,-0.08834523738813611
0.9009944751381216,-0.20708154645853322
0.934364640883978,-0.28883447808113677
0.9677348066298344,-0.3194725302046956
1.0011049723756906,-0.2996524742993217
1.0344751381215471,-0.24322183134338615
1.0678453038674034,-0.17206995075468412
1.1012154696132597,-0.10886620032092253
1.1345856353591162,-0.06958505236304979
1.1679558011049724,-0.05811310483196654
1.201325966850829,-0.06509997775413127
1.2346961325966852,-0.0720864255737704
1.2680662983425415,-0.05988151206401809
1.301436464088398,-0.017989945126443543
1.3348066298342542,0.049139400778090196
1.3681767955801105,0.12227641432135977
1.401546961325967,0.17439905724382312
1.4349171270718233,0.18164722095610927
1.4682872928176796,0.1334139811944283
1.501657458563536,0.037183379114429455
1.5350276243093923,-0.0837099596114325
1.5683977900552488,-0.19798506420576023
1.601767955801105,-0.27639150695531545
1.6351381215469614,-0.3000084317747514
1.6685082872928179,-0.2646282412234019
1.7018784530386741,-0.1809091855284157
1.7352486187845306,-0.07114435337320249
1.768618784530387,0.03633401987335788
1.8019889502762432,0.11424806048350394
1.8353591160220997,0.14381613365384394
1.868729281767956,0.12063668450779144
1.9020994475138122,0.05664588736193308
1.9354696132596687,-0.023477502475648223
1.968839779005525,-0.09096681529798485
2.0022099447513813,-0.12361984196071513
2.0355801104972375,-0.11392392537858453
2.0689502762430942,-0.07089936899331822
2.1023204419889505,-0.014759076595452213
2.135690607734807,0.033025317129050095
2.169060773480663,0.05941701512631615
2.2024309392265193,0.06467061498846577
2.235801104972376,0.060358367816847336
2.2691712707182323,0.06214561165928744
2.3025414364640886,0.08150155926741612
2.335911602209945,0.12075313253040708
2.369281767955801,0.17364686068053453
2.402651933701658,0.2302347024528269
2.436022099447514,0.28247328911054637
2.4693922651933704,0.32689789003420705
2.5027624309392267,0.36307940680989803
2.536132596685083,0.3897308235048795
2.5695027624309392,0.4021449372691121
2.602872928176796,0.3937781863324466
2.636243093922652,0.3616787649945191
2.6696132596685085,0.31212163554380046
2.7029834254143648,0.2616227083215636
2.736353591160221,0.23060146625547256
2.7697237569060777,0.2314225367678082
2.803093922651934,0.2567956448190868
2.8364640883977903,0.27577731075109235
2.8698342541436466,0.24162536074589383
2.903204419889503,0.10970063513050114
2.936574585635359,-0.14227011372376216
2.969944751381216,-0.5013872600307244
3.003314917127072,-0.9207093609049275
3.0366850828729284,-1.3335340974428043
3.0700552486187846,-1.6731112343142631
3.103425414364641,-1.8879623753358246
3.1367955801104976,-1.9471831207472858
3.170165745856354,-1.8376309909508617
3.20353591160221,-1.5601658801406924
3.2369060773480665,-1.1310886359308197
3.2702762430939227,-0.5884292266557825
3.3036464088397794,0.004023787759453318
3.3370165745856357,0.563410900389417
3.370386740331492,1.0078396543450998
3.4037569060773483,1.2830272206035584
3.4371270718232045,1.3823886098557963
3.4704972375690613,1.348799535258613
3.5038674033149175,1.2552180566422475
3.537237569060774,1.1726828087534864
3.57060773480663,1.1411606499326203
3.6039779005524863,1.1572088248433507
3.6373480662983426,1.183378124804425
3.6707182320441993,1.1728754553293332
3.7040883977900556,1.0955069671603925
3.737458563535912,0.9512519326042796
3.770828729281768,0.7655023250198477
3.8041988950276244,0.5705594944492856
3.837569060773481,0.3854342578613262
3.8709392265193374,0.20624010020777364
3.9043093922651937,0.01257970272137633
3.93767955801105,-0.21450707019261722
3.9710497237569062,-0.4744160675497781
4.0044198895027625,-0.7400946327670356
4.037790055248619,-0.9670689039145511
4.071160220994475,-1.1136401706121015
4.104530386740332,-1.161042346134868
4.1379005524861885,-1.122500690375527
4.171270718232044,-1.0365161390832038
4.204640883977901,-0.9483627939284647
4.238011049723757,-0.889764918881577
4.271381215469614,-0.866957981474511
4.30475138121547,-0.8621960896974613
4.338121546961326,-0.846464188697996
4.371491712707183,-0.7957247185669152
4.404861878453039,-0.7021025555146717
4.438232044198895,-0.5749989308975029
4.471602209944752,-0.4329181576911497
4.504972375690608,-0.29159703350733696
4.538342541436465,-0.1554534492325146
4.5717127071823205,-0.016949333398729977
4.605082872928177,0.13625355061447456
4.638453038674034,0.31082289820370756
4.67182320441989,0.5001395222737446
4.7051933701657465,0.683980220447766
4.738563535911602,0.8359065098640478
4.771933701657459,0.9346497331206496
4.805303867403316,0.9737096193485094
4.8386740331491715,0.9643037554447312
4.872044198895028,0.9301395696674689
4.905414364640884,0.8965110119801084
4.938784530386741,0.8789658539500476
4.972154696132597,0.8769324107595321
5.005524861878453,0.8751953726786228
5.03889502762431,0.8522176944798339
5.072265193370166,0.7909716147432214
5.105635359116023,0.6868759721363077
5.1390055248618784,0.5492084358390107
5.172375690607735,0.3960109175841092
5.205745856353592,0.24597056666749456
5.239116022099448,0.11201023603476701
5.272486187845304,-0.0003690459922574815
5.30585635359116,-0.0904603932030104
5.339226519337017,-0.15887373900082974
5.372596685082874,-0.2069876222539641
5.4059668508287295,-0.24045081952718403
5.439337016574586,-0.2739085068610454
5.472707182320442,-0.33170694490492364
5.506077348066299,-0.44057492909273943
5.5394475138121555,-0.6151629734884194
5.572817679558011,-0.8433336953235238
5.606187845303868,-1.0813781367733277
5.639558011049724,-1.2667945324326757
5.672928176795581,-1.3477028366337773
5.706298342541437,-1.316949436233849
5.739668508287293,-1.2316655832408132
5.77303867403315,-1.2011957427381865
5.806408839779006,-1.339494483007857
5.839779005524862,-1.6976260831528664
5.873149171270718,-2.2080901482197257
5.906519337016575,-2.6749905077171743
5.939889502762432,-2.827742160852013
5.9732596685082875,-2.426023702310373
6.006629834254144,-1.3741071580892774
6.04,0.20967118750591565
6.073370165745857,2.007790458359312
6.1067403314917135,3.6047447947536178
6.140110497237569,4.6344263477726635
6.173480662983426,4.909483888952619
6.206850828729282,4.476116175829875
6.240220994475139,3.573464850297328
6.273591160220995,2.5215723841650366
6.306961325966851,1.5927116327884534
6.340331491712708,0.9233361274955625
6.373701657458564,0.4990420935409419
6.40707182320442,0.20747243624487224
6.440441988950277,-0.07644191829460394
6.473812154696133,-0.4181370599421534
6.50718232044199,-0.7959565771294168
6.5405524861878455,-1.1240430003377808
6.573922651933702,-1.306042182816401
6.607292817679559,-1.2884443986608702
6.640662983425415,-1.0875705895177643
6.674033149171271,-0.7809339618218059
6.707403314917127,-0.47198699936699057
6.740773480662984,-0.2481158146483727
6.774143646408841,-0.15139381978872316
6.8075138121546965,-0.17238104152593084
6.840883977900553,-0.2652507291762223
6.874254143646409,-0.37383044484072536
6.907624309392266,-0.4558704691032604
6.9409944751381225,-0.4963746322263287
6.974364640883978,-0.5071312552571269
7.007734806629835,-0.5153890940200941
7.041104972375691,-0.5479249731502747
7.074475138121548,-0.6171441345680898
7.107845303867403,-0.7140484413432947
7.14121546961326,-0.8100195482477596
7.174585635359117,-0.8664100945919745
7.207955801104973,-0.8485937597107632
7.241325966850829,-0.7397586041469163
7.274696132596685,-0.5495663256368896
7.308066298342542,-0.3140370587532293
7.341436464088399,-0.08565354705706132
7.3748066298342545,0.08380842699923656
7.408176795580111,0.1619939058440881
7.441546961325967,0.14905344127372885
7.474917127071824,0.07932715594239571
7.5082872928176805,0.010007687663119349
7.541657458563536,0.0005494255075860898
7.575027624309393,0.0908106373685248
7.608397790055249,0.28680635812584754
7.641767955801106,0.5597964181592086
7.675138121546962,0.8585158884561017
7.708508287292818,1.1284645065234837
7.741878453038675,1.3292491532269815
7.775248618784531,1.4425667508293214
7.808618784530387,1.468751210872465
7.841988950276244,1.41603792058429
7.8753591160221,1.2903370648572454
7.908729281767957,1.0922325176127177
7.9420994475138125,0.8227877721303316
7.975469613259669,0.4937299431384083
8.008839779005525,0.1344629014349684
8.042209944751383,-0.2099660360135597
8.075580110497238,-0.4905140911597372
8.108950276243094,-0.6703591656664669
8.14232044198895,-0.737967382634273
8.175690607734808,-0.710825658013723
8.209060773480664,-0.6282241200924911
8.24243093922652,-0.5365144226398554
8.275801104972377,-0.4733140141520487
8.309171270718233,-0.45695677625427306
8.342541436464089,-0.48452569626489705
8.375911602209946,-0.5377216072434959
8.409281767955802,-0.5926586275457426
8.442651933701658,-0.6288042402497612
8.476022099447514,-0.6337754424197667
8.509392265193371,-0.6034311307698021
8.542762430939227,-0.5390671216027775
8.576132596685083,-0.4443790198605229
8.60950276243094,-0.32407413868247464
8.642872928176796,-0.1843792292523823
8.676243093922652,-0.034324431316576316
8.709613259668508,0.11368308731255368
8.742983425414366,0.2448768366242709
8.776353591160222,0.3446471279382768
8.809723756906077,0.40176165115403206
8.843093922651935,0.4113032171366462
8.87646408839779,0.3764660944633793
8.909834254143647,0.30854677949473724
8.943204419889504,0.22472454589102944
8.97657458563536,0.14377103081005216
9.009944751381216,0.08072857882967778
9.043314917127072,0.042467087048506755
9.07668508287293,0.02615458831310165
9.110055248618785,0.021594232655859448
9.143425414364641,0.016441465354123604
9.176795580110499,0.001671163231539253
9.210165745856354,-0.02548357909141376
9.24353591160221,-0.06227322826768635
9.276906077348068,-0.10362050147785638
9.310276243093924,-0.1450375392954181
9.34364640883978,-0.18305533893447823
9.377016574585635,-0.21310828582861902
9.410386740331493,-0.22708715656729278
9.443756906077349,-0.2134799366642075
9.477127071823205,-0.16152061052555086
9.510497237569062,-0.06790166040383994
9.543867403314918,0.05781800121840138
9.577237569060774,0.1932716119614055
9.610607734806631,0.3105669008118237
9.643977900552487,0.3884400094163538
9.677348066298343,0.4233222427512643
9.710718232044199,0.4325977990778872
9.744088397790057,0.44649197616540814
9.777458563535912,0.49099998797684535
9.810828729281768,0.569977773649046
9.844198895027626,0.6564829564164152
9.877569060773482,0.6998696555930567
9.910939226519337,0.6472741010712997
9.944309392265193,0.47000387911994146
9.97767955801105,0.18164391734931845
10.011049723756907,-0.16203189654083222
10.044419889502763,-0.4823585391184408
10.07779005524862,-0.7075366681256499
10.111160220994476,-0.7988977915773289
10.144530386740332,-0.7619170379880871
10.17790055248619,-0.6383144224465205
10.211270718232045,-0.48487237703908004
10.244640883977901,-0.35009437755838047
10.278011049723757,-0.25917331222427825
10.311381215469615,-0.21214477381343214
10.34475138121547,-0.19314744991309266
10.378121546961326,-0.18402483732248703
10.411491712707184,-0.1748738012878632
10.44486187845304,-0.1670560516943527
10.478232044198895,-0.16861700277875943
10.511602209944753,-0.18576347524846168
10.544972375690609,-0.21554766661741254
10.578342541436465,-0.24384017804454022
10.61171270718232,-0.2497794925033346
10.645082872928178,-0.21459498413928776
10.678453038674034,-0.13054270808403973
10.71182320441989,-0.005616103924964758
10.745193370165747,0.1383410538997127
10.778563535911603,0.2734396415169337
10.811933701657459,0.37604859362010074
10.845303867403315,0.4349877229464236
10.878674033149172,0.45393097155009
10.912044198895028,0.4470318368330653
10.945414364640884,0.43003583972486087
10.978784530386742,0.4114012301790005
11.012154696132598,0.38801938567061184
11.045524861878453,0.34783869074252327
11.078895027624311,0.27809174788129976
11.112265193370167,0.17473141082636978
11.145635359116023,0.047799514070460555
11.179005524861878,-0.08058427046096013
11.212375690607736,-0.18501338795855524
11.245745856353592,-0.24796340182217788
11.279116022099448,-0.2673919189418847
11.312486187845305,-0.25653109529045715
11.345856353591161,-0.2357890191476796
11.379226519337017,-0.22103395194915615
11.412596685082875,-0.21466323796249595
11.44596685082873,-0.20452010855912295
11.479337016574586,-0.17156660292132683
11.512707182320442,-0.10241025282239918
11.5460773480663,0.00015528103250501296
11.579447513812156,0.1148614281857942
11.612817679558011,0.21017390086764
11.646187845303869,0.25962175180324415
11.679558011049725,0.2565069648099547
11.71292817679558,0.21967391848277934
11.746298342541436,0.1859573886952209
11.779668508287294,0.19170244014205995
11.81303867403315,0.25192513316666293
11.846408839779006,0.3478527651702134
11.879779005524863,0.4302709635535807
11.91314917127072,0.4386901491696609
11.946519337016575,0.32844813180507026
11.979889502762433,0.09351509797824752
12.013259668508288,-0.22572711409017035
12.046629834254144,-0.5537690040961015
12.08,-0.8058098371572631
12.113370165745858,-0.9174072630063749
12.146740331491714,-0.8660732288153736
12.18011049723757,-0.6769829442911883
12.213480662983427,-0.4118179719182934
12.246850828729283,-0.14622229665189118
12.280220994475139,0.05506675936853461
12.313591160220996,0.15654130648732503
12.346961325966852,0.1581756598826783
12.380331491712708,0.08902844255702293
12.413701657458564,-0.007727509594149695
12.447071823204421,-0.09156130794314507
12.480441988950277,-0.13654689198792738
12.513812154696133,-0.13489335852881898
12.54718232044199,-0.09265166095158044
12.580552486187846,-0.021649894941656
12.613922651933702,0.067345868968759
12.64729281767956,0.16706835380647092
12.680662983425416,0.2718657520496817
12.714033149171271,0.37422483738930906
12.747403314917127,0.4629807774005083
12.780773480662985,0.5249100621516104
12.81414364640884,0.5489375063253074
12.847513812154697,0.5304787848749836
12.880883977900554,0.47344753097838077
12.91425414364641,0.3889443993912816
12.947624309392266,0.2914828206344339
12.980994475138122,0.19462567925550286
13.01436464088398,0.10769126225028713
13.047734806629835,0.034220288780752554
13.081104972375691,-0.027964097164140375
13.114475138121549,-0.08552197450008475
13.147845303867404,-0.1474130652210508
13.18121546961326,-0.22187948952359135
13.214585635359118,-0.31300646994098563
13.247955801104974,-0.4178032781568038
13.28132596685083,-0.5250420978319779
13.314696132596685,-0.6167897907760256
13.348066298342543,-0.6726638649790542
13.381436464088399,-0.6756881297512954
13.414806629834255,-0.6177536088725039
13.448176795580112,-0.5025976866616431
13.481546961325968,-0.3450680438447603
13.514917127071824,-0.16690613824413522
13.548287292817681,0.009339541617919903
13.581657458563537,0.16603917002807914
13.615027624309393,0.2939589452094464
13.648397790055249,0.3926065181739377
13.681767955801106,0.4676871431980045
13.715138121546962,0.5267509599096324
13.748508287292818,0.5745331184813949
13.781878453038676,0.6095452838038545
13.815248618784532,0.6232021873715935
13.848618784530387,0.6021075242477875
13.881988950276245,0.5330826755070968
13.9153591160221,0.40935110966716826
13.948729281767957,0.23550322316151162
13.982099447513813,0.028985295998279155
14.01546961325967,-0.18294440212619206
14.048839779005526,-0.36996898581555654
14.082209944751382,-0.5066603866589535
14.11558011049724,-0.5785149131031371
14.148950276243095,-0.583892935151328
14.182320441988951,-0.5316895484880829
14.215690607734807,-0.43657112242626817
14.249060773480664,-0.3144947536570961
14.28243093922652,-0.18052678797989494
14.315801104972376,-0.04917365068098732
14.349171270718234,0.06435664609307867
14.38254143646409,0.14423910975222456
14.415911602209945,0.17687373081401464
14.449281767955803,0.15592370273893363
14.482651933701659,0.0870733831719168
14.516022099447515,-0.01060017976818197
14.54939226519337,-0.10854061924705814
14.582762430939228,-0.17726274312423473
14.616132596685084,-0.19632208727976727
14.64950276243094,-0.16132561378086074
14.682872928176797,-0.0846320068806003
14.716243093922653,0.010754684937545354
14.749613259668509,0.10130203577822045
14.782983425414367,0.17228525861818159
14.816353591160222,0.22197229673938457
14.849723756906078,0.25897219977515984
14.883093922651934,0.29461587183281945
14.916464088397792,0.3347598665915108
14.949834254143648,0.37550069993357615
14.983204419889503,0.40487955016920263
15.016574585635361,0.4091101812237413
15.049944751381217,0.37928503679315273
15.083314917127073,0.3145090854923942
15.116685082872928,0.22000650409881775
15.150055248618786,0.10226784353851899
15.183425414364642,-0.03460580403614371
15.216795580110498,-0.18804777023181923
15.250165745856355,-0.35169780469356116
15.283535911602211,-0.509335260716555
15.316906077348067,-0.6333029572630544
15.350276243093925,-0.6907013038276408
15.38364640883978,-0.65616659390546
15.417016574585636,-0.5256403132824603
15.450386740331492,-0.32385003989252586
15.48375690607735,-0.10043251880841796
15.517127071823205,0.08524393520400769
15.550497237569061,0.18503667494677045
15.583867403314919,0.1802094146162723
15.617237569060775,0.08916061452842927
15.65060773480663,-0.0386853089000348
15.683977900552488,-0.14060538816944892
15.717348066298344,-0.16327790675595721
15.7507182320442,-0.08220287546925531
15.784088397790056,0.08894657737334041
15.817458563535913,0.30219497898954667
15.85082872928177,0.4910690332039876
15.884198895027625,0.593127396042635
15.917569060773483,0.5716859459647082
15.950939226519338,0.4292194027890596
15.984309392265194,0.20745089270614467
16.01767955801105,-0.026406575438193986
16.051049723756908,-0.20282190412267295
16.084419889502765,-0.2744210639124129
16.11779005524862,-0.2327907710429674
16.151160220994477,-0.11111598694264978
16.18453038674033,0.028752915957349676
16.21790055248619,0.1202951234476925
16.251270718232046,0.11837804879197825
16.2846408839779,0.017208451178779925
16.318011049723758,-0.14711922434559951
16.351381215469615,-0.31077392023754025
16.38475138121547,-0.40758393159051015
16.418121546961327,-0.39554728754509483
16.451491712707185,-0.27372435253077443
16.48486187845304,-0.08254416135388608
16.518232044198896,0.11279461681341464
16.551602209944754,0.24921812126014178
16.584972375690608,0.29190530977856577
16.618342541436466,0.2485318933053748
16.651712707182323,0.16514945205242884
16.685082872928177,0.10491062842194913
16.718453038674035,0.11846824036425734
16.751823204419892,0.2190145019268466
16.785193370165747,0.37345496360983393
16.818563535911604,0.5144106037159951
16.851933701657458,0.5684117493237134
16.885303867403316,0.4880163002989616
16.918674033149173,0.27338701765638973
16.952044198895027,-0.026560636569173197
16.985414364640885,-0.33392431444442555
17.018784530386743,-0.5732333954767475
17.052154696132597,-0.7000068928389509
17.085524861878454,-0.7138040478925857
17.118895027624312,-0.6510636461235998
17.152265193370166,-0.5628709703718218
17.185635359116024,-0.48950978892551633
17.21900552486188,-0.44408094673115145
17.252375690607735,-0.4118610153841196
17.285745856353593,-0.3637540575087096
17.31911602209945,-0.2755483393143589
