Time (s),Filtered Signal
0.0,0.051059220926145614
0.03337008452774715,-0.4371690374154717
0.0667401690554943,-0.8520877381535671
0.10011025358324147,-1.1314185439509314
0.1334803381109886,-1.2350975025972886
0.16685042263873576,-1.1558384507539392
0.20022050716648293,-0.9240289541477392
0.23359059169423008,-0.6022032386792162
0.2669606762219772,-0.26833552556528073
0.30033076074972437,0.0069881454859981856
0.3337008452774715,0.1806593181774649
0.36707092980521866,0.24642964161775155
0.40044101433296586,0.23077839801457373
0.433811098860713,0.17868321297621143
0.46718118338846015,0.13632963807248713
0.5005512679162073,0.13716956590833176
0.5339213524439544,0.19418753541134084
0.5672914369717016,0.2977882644537539
0.6006615214994487,0.41775144275646375
0.6340316060271959,0.5091724825725198
0.667401690554943,0.5238623770357956
0.7007717750826902,0.42756272548282165
0.7341418596104373,0.21890605584445927
0.7675119441381845,-0.058972453206795
0.8008820286659317,-0.3242176338603696
0.8342521131936789,-0.4832765289881656
0.867622197721426,-0.47137760403792967
0.9009922822491732,-0.28818401160890367
0.9343623667769203,-0.008478610157759026
0.9677324513046675,0.2423201399158257
1.0011025358324146,0.34035563472043723
1.0344726203601617,0.21992876232515962
1.0678427048879089,-0.09347023152689568
1.101212789415656,-0.49150940112835917
1.1345828739434032,-0.8302741619020675
1.1679529584711503,-0.9940883612805648
1.2013230429988975,-0.9447665511125454
1.2346931275266446,-0.7324266949626378
1.2680632120543918,-0.4636390484103219
1.301433296582139,-0.24434788859374948
1.334803381109886,-0.1272526240813296
1.3681734656376332,-0.08995035743229599
1.4015435501653803,-0.05335165773968268
1.4349136346931275,0.07111517844496479
1.4682837192208746,0.33115114917218824
1.5016538037486218,0.7059779264098556
1.535023888276369,1.1141831406299194
1.568393972804116,1.4506395179217346
1.6017640573318634,1.6315522736221462
1.6351341418596106,1.6242829188984556
1.6685042263873577,1.4490302874838747
1.7018743109151049,1.1561656016629303
1.735244395442852,0.7960933641377105
1.7686144799705992,0.40052226995629736
1.8019845644983463,-0.015531195275862041
1.8353546490260935,-0.4362453161274364
1.8687247335538406,-0.8274164739570984
1.9020948180815878,-1.13381362638176
1.935464902609335,-1.296247921751603
1.968834987137082,-1.2799191237192817
2.002205071664829,-1.0976408840792615
2.0355751561925763,-0.8134484484074218
2.0689452407203235,-0.5224016583272272
2.1023153252480706,-0.31497664670669734
2.1356854097758178,-0.24234652240845106
2.169055494303565,-0.29823145547685903
2.202425578831312,-0.42482447370122356
2.235795663359059,-0.5392368097893137
2.2691657478868064,-0.5683819914198924
2.3025358324145535,-0.47764955538373316
2.3359059169423007,-0.2823804240293931
2.369276001470048,-0.03879042846190367
2.402646085997795,0.1807405428553594
2.436016170525542,0.31729364924055037
2.4693862550532892,0.3479059070676824
2.5027563395810364,0.2923903100250728
2.5361264241087835,0.20271744077956524
2.5694965086365307,0.14032516246310706
2.602866593164278,0.1512020599033459
2.636236677692025,0.24877453161519
2.669606762219772,0.4108370635291367
2.7029768467475193,0.5908253930376969
2.7363469312752664,0.7380102220155156
2.7697170158030135,0.8177656264046004
2.8030871003307607,0.8232096267812621
2.836457184858508,0.7733176219589496
2.869827269386255,0.6987706090984159
2.903197353914002,0.6227859990923956
2.9365674384417493,0.5470555666056286
2.9699375229694964,0.45078087529806354
3.0033076074972436,0.304139889652506
3.0366776920249907,0.08948036469838873
3.070047776552738,-0.1814812796618588
3.103417861080485,-0.4649771421406543
3.136787945608232,-0.7002119035376786
3.1701580301359793,-0.8354982407190144
3.203528114663727,-0.8521231433449251
3.236898199191474,-0.7729733234412887
3.270268283719221,-0.6508498721773149
3.3036383682469683,-0.5426187286269998
3.3370084527747155,-0.48333491724570915
3.3703785373024626,-0.4742401364939962
3.4037486218302098,-0.4899606916859484
3.437118706357957,-0.49856568978850563
3.470488790885704,-0.48079524039203236
3.503858875413451,-0.43642976840679726
3.5372289599411983,-0.3752136154546098
3.5705990444689455,-0.3006190063184541
3.6039691289966926,-0.19981352806671138
3.63733921352444,-0.04907466809481878
3.670709298052187,0.16689284807927468
3.704079382579934,0.43388635706913986
3.7374494671076812,0.7009283376147876
3.7708195516354284,0.8956102330531488
3.8041896361631755,0.957319400918717
3.8375597206909227,0.8711767449965446
3.87092980521867,0.6823174769998417
3.904299889746417,0.4792556723602147
3.937669974274164,0.3520344633983153
3.9710400588019112,0.34594813521444756
4.004410143329658,0.43567047539477505
4.0377802278574055,0.5347769505721185
4.071150312385153,0.5371799970075444
4.1045203969129,0.37012825645203135
4.137890481440647,0.032305663090812606
4.171260565968394,-0.40178000510030265
4.204630650496141,-0.8129107261995514
4.238000735023888,-1.0881823546840705
4.2713708195516356,-1.1672826900866404
4.304740904079383,-1.062709739329813
4.33811098860713,-0.8461481006228331
4.371481073134877,-0.6098081547295792
4.404851157662624,-0.4228579305129482
4.438221242190371,-0.3038696946674557
4.471591326718118,-0.22077177792228353
4.504961411245866,-0.1155547945457565
4.538331495773613,0.06065592031412301
4.57170158030136,0.32008897431439687
4.605071664829107,0.6307778057214951
4.638441749356854,0.9303968476244718
4.671811833884601,1.1524248199542133
4.7051819184123485,1.2507432925417954
4.738552002940096,1.2115042768822948
4.771922087467843,1.0493017780897274
4.80529217199559,0.7934681961488759
4.838662256523337,0.4746664374527999
4.872032341051084,0.11961660879914388
4.905402425578831,-0.2452777798370725
4.9387725101065785,-0.5875254908481916
4.972142594634326,-0.8675141759611985
5.005512679162073,-1.046903663118712
5.03888276368982,-1.1032357205925232
5.072252848217567,-1.042160473054493
5.105622932745314,-0.8988667379414998
5.138993017273061,-0.7260451735377007
5.1723631018008085,-0.5734209932744475
5.205733186328556,-0.46879775213227887
5.239103270856303,-0.40972006007128736
5.27247335538405,-0.36897267115994054
5.305843439911797,-0.30993240327968624
5.339213524439544,-0.20355678039782651
5.372583608967291,-0.03955367269818533
5.4059536934950385,0.17128954049526224
5.439323778022786,0.4018942067658907
5.472693862550533,0.6168711373947682
5.50606394707828,0.7806267977203
5.539434031606027,0.864729116848746
5.572804116133774,0.8549007218053205
5.606174200661521,0.7571624073705217
5.6395442851892685,0.6005697010313022
5.672914369717016,0.4328308647649419
5.706284454244763,0.3067697275370199
5.73965453877251,0.26019259114840576
5.773024623300257,0.29698535504158025
5.806394707828004,0.3796437009816721
5.839764792355751,0.44025942687865954
5.873134876883499,0.40859982768593367
5.906504961411246,0.24621149424004904
5.939875045938993,-0.029929903755874693
5.97324513046674,-0.34779592521901925
6.006615214994487,-0.6074286517180496
6.039985299522234,-0.723864133654743
6.073355384049981,-0.6657784663031261
6.106725468577729,-0.4706409368236947
6.140095553105476,-0.22822440830385987
6.173465637633223,-0.040088562516946535
6.20683572216097,0.02521752416889993
6.240205806688717,-0.0404858082865802
6.273575891216464,-0.18758069846383407
6.3069459757442115,-0.338225567987255
6.340316060271959,-0.42662396920188134
6.373686144799706,-0.4292622472805753
6.407056229327454,-0.37082488196139174
6.440426313855201,-0.3048524499172486
6.473796398382948,-0.28113729903955653
6.507166482910695,-0.31770845555891253
6.540536567438442,-0.3915178006567392
6.5739066519661895,-0.4512031059502599
6.607276736493937,-0.4436152688724979
6.640646821021684,-0.339365607704325
6.674016905549431,-0.14459720873871007
6.707386990077178,0.1050840560999526
6.740757074604925,0.36245642545514517
6.774127159132672,0.5867325970905909
6.8074972436604195,0.7523096037846296
6.840867328188167,0.8464531963456842
6.874237412715914,0.8620583233074595
6.907607497243661,0.7942998645752494
6.940977581771408,0.6457691284033293
6.974347666299155,0.4367711662554052
7.007717750826902,0.21163103098056837
7.0410878353546495,0.03250283904738962
7.074457919882397,-0.04072847492093336
7.107828004410144,0.02330884554102955
7.141198088937891,0.20826161946270536
7.174568173465638,0.44912623635460086
7.207938257993385,0.6524036383675925
7.241308342521132,0.7297296433005518
7.27467842704888,0.6306480468430747
7.308048511576627,0.36058097783484483
7.341418596104374,-0.022929958294384777
7.374788680632121,-0.432849741601443
7.408158765159868,-0.7836206066939874
7.441528849687615,-1.0177120439946907
7.4748989342153624,-1.118430421672611
7.50826901874311,-1.1064417326610319
7.541639103270857,-1.024162480101425
7.575009187798604,-0.9160559580557303
7.608379272326351,-0.8128469556678867
7.641749356854098,-0.7244518769410042
7.675119441381845,-0.6419636264338773
7.7084895259095925,-0.5455154079493685
7.74185961043734,-0.413651970489739
7.775229694965087,-0.2309431655366903
7.808599779492834,0.007243068082551999
7.841969864020581,0.29222399566514745
7.875339948548328,0.600974329407211
7.908710033076075,0.8969177692029744
7.9420801176038225,1.1340563347745203
7.97545020213157,1.2658574408491645
8.008820286659317,1.2583373807529574
8.042190371187063,1.1036866765283166
8.075560455714811,0.8284905553991386
8.108930540242557,0.4910762056576736
8.142300624770305,0.1663879733098744
8.175670709298052,-0.07743585192205293
8.2090407938258,-0.2019343283886135
8.242410878353546,-0.2109921906426081
8.275780962881294,-0.14754822990895486
8.30915104740904,-0.07544624213648882
8.342521131936788,-0.05400042397406292
8.375891216464534,-0.11576571162807484
8.409261300992283,-0.2560772953421003
8.442631385520029,-0.43735988779368357
8.476001470047777,-0.604970937741841
8.509371554575523,-0.707425046956473
8.542741639103271,-0.713582340189583
8.57611172363102,-0.6219034754822466
8.609481808158765,-0.46009662065457724
8.642851892686513,-0.2758548903367875
8.67622197721426,-0.12091035791996907
8.709592061742008,-0.03226722035382938
8.742962146269754,-0.01651139571225501
8.776332230797502,-0.04420537284879356
8.809702315325248,-0.059457662049201936
8.843072399852996,-0.00394293330369747
8.876442484380743,0.15314114069428866
8.90981256890849,0.39316127910162063
8.943182653436237,0.6470727527505679
8.976552737963985,0.8195770079892694
9.009922822491731,0.8299768594059789
9.04329290701948,0.6515369930195771
9.076662991547225,0.33016487216674956
9.110033076074973,-0.027870701715512154
9.14340316060272,-0.2951431148747018
9.176773245130468,-0.37279502216745486
9.210143329658214,-0.22999188359153394
9.243513414185962,0.08263969828174815
9.276883498713708,0.4500508526868774
9.310253583241456,0.7328419110056534
9.343623667769203,0.8152082529204083
9.37699375229695,0.6441321439237213
9.410363836824697,0.24724287140351364
9.443733921352445,-0.2758298850400245
9.477104005880191,-0.7853797591121093
9.51047409040794,-1.146312055573377
9.543844174935685,-1.2708865791339539
9.577214259463434,-1.1452119717056968
9.61058434399118,-0.8305113019900405
9.643954428518928,-0.4389294791672858
9.677324513046674,-0.09279607046711293
9.710694597574422,0.11768479465979809
9.744064682102168,0.16285281061945686
9.777434766629916,0.07809387720129782
9.810804851157663,-0.056256794072931215
9.84417493568541,-0.15074397395547418
9.877545020213157,-0.14356591476918798
9.910915104740905,-0.023597470114728684
9.944285189268651,0.16896098959972958
9.9776552737964,0.3633621226344098
10.011025358324146,0.49052549215726754
10.044395442851894,0.5121628927465646
10.07776552737964,0.43438658294078325
10.111135611907388,0.301087143643961
10.144505696435134,0.17185589897097925
10.177875780962882,0.09577311141810188
10.211245865490628,0.09299565803253615
10.244615950018376,0.15103798221047937
10.277986034546123,0.23505858067725038
10.31135611907387,0.3053116352393661
10.344726203601617,0.33290827842000875
10.378096288129365,0.30748251960344924
10.411466372657111,0.23541423754555318
10.44483645718486,0.13203468964732049
10.478206541712606,0.01332673589115385
10.511576626240354,-0.10865637536652592
10.5449467107681,-0.22578506601844595
10.578316795295848,-0.3314321265578696
10.611686879823594,-0.4186830698276713
10.645056964351342,-0.48077000075028536
10.678427048879088,-0.5129432021639748
10.711797133406836,-0.5135369656466037
10.745167217934583,-0.48250952785369666
10.77853730246233,-0.41794215948974317
10.811907386990077,-0.31338227124504475
10.845277471517825,-0.1596156090390614
10.878647556045571,0.04766918566721548
10.91201764057332,0.2971094555821308
10.945387725101066,0.5543710177848531
10.978757809628814,0.7651728764745297
11.01212789415656,0.8709340229438182
11.045497978684308,0.8319640530835287
11.078868063212054,0.6473960573046592
11.112238147739802,0.36104706161963274
11.145608232267548,0.04871973710394577
11.178978316795297,-0.2083374166011408
11.212348401323043,-0.35232399789658597
11.24571848585079,-0.36796257769334306
11.279088570378537,-0.28478565236565273
11.312458654906285,-0.1632813372638546
11.345828739434031,-0.07146500254552465
11.37919882396178,-0.06055769439477134
11.412568908489526,-0.14733220796868576
11.445938993017274,-0.3081671850908796
11.47930907754502,-0.48703153371752766
11.512679162072768,-0.6162030270955233
11.546049246600514,-0.6439949543775004
11.579419331128262,-0.5591867635010384
11.612789415656009,-0.4002172170280371
11.646159500183757,-0.2414756402714036
11.679529584711503,-0.1592345981605884
11.71289966923925,-0.19153367235860974
11.746269753766997,-0.31265189985730346
11.779639838294745,-0.4383719876161559
11.813009922822491,-0.46348243647233256
11.84638000735024,-0.3149854001839052
11.879750091877986,0.006386646660411291
11.913120176405734,0.4200212411803884
11.94649026093348,0.8005285726984659
11.979860345461228,1.0373008466668543
12.013230429988974,1.0872052286952478
12.046600514516722,0.991827821839941
12.079970599044469,0.8498903588015142
12.113340683572217,0.7603463029386192
12.146710768099963,0.7677944366929779
12.180080852627711,0.8399430054857526
12.213450937155457,0.8883518397881859
12.246821021683205,0.8195761387385614
12.280191106210951,0.5878714207512837
12.3135611907387,0.22123789477067676
12.346931275266446,-0.191528730004274
12.380301359794194,-0.543652065368991
12.41367144432194,-0.758972784024012
12.447041528849688,-0.8213452539350661
12.480411613377434,-0.7722097568411416
12.513781697905182,-0.6814244405547523
12.547151782432929,-0.6095118002573979
12.580521866960677,-0.5814968181670924
12.613891951488423,-0.5837082139928395
12.647262036016171,-0.5812698847432727
12.680632120543917,-0.5434205097995852
12.714002205071665,-0.4616010394021218
12.747372289599411,-0.35160634396862206
12.78074237412716,-0.24144092183705473
12.814112458654908,-0.15452459451665748
12.847482543182654,-0.09918784797980623
12.880852627710402,-0.06990391543877654
12.914222712238148,-0.05738984087920995
12.947592796765896,-0.05896799083548751
12.980962881293642,-0.08091354124143674
13.01433296582139,-0.1304698303448938
13.047703050349137,-0.20279580105821576
13.081073134876885,-0.2723578566396084
13.114443219404631,-0.2963930106816932
13.147813303932379,-0.2311178340278298
13.181183388460125,-0.05351455564185981
13.214553472987873,0.22256116250468416
13.24792355751562,0.5451635377252496
13.281293642043368,0.8400506877499981
13.314663726571114,1.0371693381412972
13.348033811098862,1.0960190369251472
13.381403895626608,1.0183436435110287
13.414773980154356,0.8426014079890508
13.448144064682102,0.6235202357766901
13.48151414920985,0.40728319566309557
13.514884233737597,0.2147371049256774
13.548254318265345,0.040475674190818094
13.581624402793091,-0.13288517339310452
13.614994487320839,-0.31395147372879073
13.648364571848585,-0.48739630806992107
13.681734656376333,-0.6135352773297909
13.71510474090408,-0.6440593647300181
13.748474825431828,-0.5468171651585972
13.781844909959574,-0.3274616532249599
13.815214994487322,-0.03667886375451194
13.848585079015068,0.24191656493038588
13.881955163542816,0.41948251383866403
13.915325248070562,0.4346135250316859
13.94869533259831,0.27802766415679797
13.982065417126057,-0.0007888933397451163
14.015435501653805,-0.3083716068214307
14.048805586181551,-0.5388816756496343
14.082175670709299,-0.6113062168158861
14.115545755237045,-0.498335507783502
14.148915839764793,-0.23567863981695797
14.18228592429254,0.09183561632614251
14.215656008820288,0.3814485055516662
14.249026093348034,0.5478981290841904
14.282396177875782,0.549007562124329
14.315766262403528,0.3929486489253602
14.349136346931276,0.12766250761262624
14.382506431459023,-0.17976508848715436
14.41587651598677,-0.4638691949755215
14.449246600514517,-0.6748819850478233
14.482616685042265,-0.7844825914253978
14.515986769570011,-0.7853848626554579
14.54935685409776,-0.6877795140746399
14.582726938625505,-0.5144352397265044
14.616097023153253,-0.29496351478732613
14.649467107681,-0.05964388896600068
14.682837192208748,0.1659557045966612
14.716207276736494,0.36379044041295744
14.749577361264242,0.5225628274827183
14.782947445791988,0.6342108988094602
14.816317530319736,0.6902506028499302
14.849687614847483,0.6808377192098874
14.88305769937523,0.5978682289271464
14.916427783902977,0.4409728228610072
14.949797868430725,0.22336070674500227
14.983167952958471,-0.025861813206710143
15.01653803748622,-0.2650252147235348
15.049908122013965,-0.44888376606543795
15.083278206541713,-0.5410257467773085
15.11664829106946,-0.5257309169327985
15.150018375597208,-0.4146139999653333
15.183388460124954,-0.24440128614045792
15.216758544652702,-0.06513997308782545
15.250128629180448,0.0777204882198336
15.283498713708196,0.16044793640298705
15.316868798235943,0.18967559545718227
15.35023888276369,0.197937507414745
15.383608967291437,0.22731345458102215
15.416979051819185,0.30833361430528017
15.450349136346931,0.44402481941365773
15.48371922087468,0.6066685437098036
15.517089305402425,0.7484241827409516
15.550459389930174,0.819954777343688
15.58382947445792,0.7876603427137319
15.617199558985668,0.6421028438389336
15.650569643513414,0.3962162468885965
15.683939728041162,0.07786895187705338
15.717309812568908,-0.2766217315143774
15.750679897096656,-0.6244440589803343
15.784049981624403,-0.915805389308393
15.81742006615215,-1.0970800246131398
15.850790150679897,-1.1225621964259263
15.884160235207645,-0.9735523703881058
15.917530319735391,-0.6759244535292962
15.95090040426314,-0.303988681857922
15.984270488790886,0.036985378714935534
16.017640573318634,0.24617565602890623
16.05101065784638,0.2659123232990108
16.084380742374126,0.10507555447351936
16.117750826901876,-0.16480958986455493
16.151120911429622,-0.4390307774379503
16.18449099595737,-0.6202081009064592
16.217861080485115,-0.6510529071456277
16.251231165012864,-0.5264848009186538
16.28460124954061,-0.2840086765760179
16.317971334068357,0.018408222112643487
16.351341418596103,0.3241384720623927
16.384711503123853,0.5902761503131525
16.4180815876516,0.788946284773151
16.451451672179346,0.9022775273411762
16.484821756707092,0.9179426091825312
16.51819184123484,0.8298254267008879
16.551561925762588,0.6435980014983876
16.584932010290334,0.3828197556542632
16.61830209481808,0.09000415412644473
16.65167217934583,-0.18046519203945574
16.685042263873576,-0.37613017904506324
16.718412348401323,-0.46159185598200886
16.75178243292907,-0.4286442206141202
16.78515251745682,-0.29753464981780015
16.818522601984565,-0.10967610015886435
16.85189268651231,0.08452753683431558
16.885262771040058,0.23827489764576584
16.918632855567807,0.31835379537595393
16.952002940095554,0.3114636567151346
16.9853730246233,0.22668253426640775
17.018743109151046,0.09345206163958025
17.052113193678796,-0.04597582110969727
17.085483278206542,-0.14955059771870957
17.11885336273429,-0.19088604222759104
17.15222344726204,-0.17113072085896638
17.185593531789785,-0.12062557654632235
17.21896361631753,-0.08711435295794222
17.252333700845277,-0.1136376322771046
17.285703785373027,-0.21533700117472404
17.319073869900773,-0.36654979139265914
