Time (s),Filtered Signal
0.0,0.014405080627340985
0.03337000366703337,0.0021366716698550826
0.06674000733406674,0.02856479678835284
0.1001100110011001,0.11035023682403204
0.13348001466813347,0.23144343340164025
0.16685001833516683,0.3516145417201106
0.2002200220022002,0.4279436632485486
0.2335900256692336,0.4367219154952623
0.26696002933626695,0.38357231855788076
0.3003300330033003,0.29698233999046886
0.33370003667033366,0.2101286177267512
0.36707004033736707,0.14210575764255967
0.4004400440044004,0.08916471708109484
0.4338100476714338,0.03017751434050384
0.4671800513384672,-0.057685980476301135
0.5005500550055005,-0.18251605006971633
0.5339200586725339,-0.32983780018498426
0.5672900623395672,-0.46764986342251347
0.6006600660066006,-0.5613802520355569
0.634030069673634,-0.5904263572134602
0.6674000733406673,-0.557167438524274
0.7007700770077008,-0.4835783143896008
0.7341400806747341,-0.3976078556254167
0.7675100843417675,-0.3174490247488627
0.8008800880088008,-0.24318875443251567
0.8342500916758342,-0.16097548855516558
0.8676200953428675,-0.057041784261076374
0.9009900990099009,0.06769821689152693
0.9343601026769344,0.192845554101382
0.9677301063439677,0.28821334794907055
1.001100110011001,0.33336014278538684
1.0344701136780343,0.3349850474519637
1.0678401173450678,0.32991966944337664
1.1012101210121013,0.36903449451884834
1.1345801246791345,0.4887282534958324
1.167950128346168,0.6850493217710729
1.2013201320132012,0.9056424043555483
1.2346901356802347,1.0661116296158402
1.268060139347268,1.0846556545184785
1.3014301430143014,0.9189594131148091
1.3348001466813346,0.5876444419677047
1.368170150348368,0.16584544010176913
1.4015401540154016,-0.24325343002931785
1.4349101576824348,-0.5480702827249527
1.4682801613494683,-0.7020275406136518
1.5016501650165015,-0.7168139640401531
1.535020168683535,-0.6510942120306891
1.5683901723505682,-0.5810073638877792
1.6017601760176017,-0.5660531798892966
1.6351301796846351,-0.6249081172131234
1.6685001833516684,-0.7304820794246235
1.7018701870187019,-0.8248633258500232
1.735240190685735,-0.8466086070933964
1.7686101943527686,-0.7583999835002471
1.8019801980198018,-0.563781249471774
1.8353502016868353,-0.30670230676631155
1.8687202053538687,-0.054631909839198176
1.902090209020902,0.12768100665937615
1.9354602126879354,0.20330993784652132
1.9688302163549687,0.17722876754936243
2.002200220022002,0.09383183133866974
2.0355702236890356,0.01892469488669364
2.0689402273560686,0.013506870520835379
2.102310231023102,0.11007591167039983
2.1356802346901356,0.30105084738396576
2.169050238357169,0.5435225423192219
2.2024202420242025,0.7772923614148604
2.2357902456912355,0.947556320174174
2.269160249358269,1.0223488954714064
2.3025302530253025,0.9983473905542103
2.335900256692336,0.8947099606597355
2.369270260359369,0.7399892443255841
2.4026402640264024,0.5593157445403709
2.436010267693436,0.3674672185715352
2.4693802713604693,0.16954308474731025
2.502750275027503,-0.03299642042742101
2.536120278694536,-0.23535253384983215
2.5694902823615693,-0.4256425583397106
2.6028602860286028,-0.5863741974114962
2.636230289695636,-0.7002480039393465
2.6696002933626692,-0.7571867652356695
2.7029702970297027,-0.7589199337116569
2.736340300696736,-0.718708115147158
2.7697103043637696,-0.6561939188666215
2.803080308030803,-0.5896918694780819
2.836450311697836,-0.5293759166347675
2.8698203153648696,-0.4743626130972729
2.903190319031903,-0.4149773440303404
2.9365603226989365,-0.3393053609441596
2.96993032636597,-0.24123112478830885
3.003300330033003,-0.12616791463129043
3.0366703337000365,-0.011092551753932749
3.07004033736707,0.08238531514758551
3.1034103410341034,0.1397744993953907
3.1367803447011364,0.164818970734231
3.17015034836817,0.18331647388219974
3.2035203520352034,0.23529274612400558
3.236890355702237,0.356676690488448
3.2702603593692703,0.5578480991657171
3.3036303630363033,0.8098794721148616
3.3370003667033368,1.0473530864317921
3.3703703703703702,1.1894100467430693
3.4037403740374037,1.1714433473179728
3.4371103777044367,0.9734930023348897
3.47048038137147,0.6317357114920271
3.5038503850385037,0.2268227695761477
3.537220388705537,-0.14632202452961543
3.5705903923725706,-0.4138308372098093
3.6039603960396036,-0.5477272548828223
3.637330399706637,-0.5700810739728321
3.6707004033736705,-0.5363768762397048
3.704070407040704,-0.5074240610181515
3.7374404107077375,-0.5232721235002
3.7708104143747705,-0.5899177058168169
3.804180418041804,-0.6822813081888933
3.8375504217088374,-0.759275252548442
3.870920425375871,-0.7825267956690013
3.904290429042904,-0.7307276960482175
3.9376604327099374,-0.6052975192062604
3.971030436376971,-0.4274720679423503
4.004400440044004,-0.22990353096294172
4.037770443711038,-0.04661134195021414
4.071140447378071,0.09579930525889836
4.104510451045105,0.18415534427810965
4.137880454712137,0.22141371500547904
4.171250458379171,0.225704542170122
4.204620462046204,0.2254228928622558
4.237990465713238,0.25070461069866185
4.271360469380271,0.3230958034020302
4.304730473047305,0.4468236524159085
4.338100476714338,0.6054871906025984
4.3714704803813715,0.7663286702478349
4.404840484048405,0.8909477674817582
4.438210487715438,0.9480903610443444
4.471580491382471,0.9229538493098172
4.5049504950495045,0.8192151636137186
4.538320498716538,0.6538353494417863
4.571690502383571,0.4483933031667465
4.605060506050605,0.22203578064146226
4.638430509717638,-0.010639413074979752
4.671800513384672,-0.23708203805168812
4.705170517051705,-0.44308660814847106
4.738540520718738,-0.6119216508334675
4.771910524385771,-0.7281557075848594
4.805280528052805,-0.7845315846788724
4.838650531719838,-0.7876033669989728
4.872020535386872,-0.7577706044090089
4.905390539053905,-0.7220359883638979
4.938760542720939,-0.7019127734379117
4.972130546387972,-0.7021708906426609
5.005500550055006,-0.7065794314690619
5.038870553722038,-0.6839045832051776
5.072240557389072,-0.6024070475315358
5.105610561056105,-0.44648505697846874
5.138980564723139,-0.22742254093343983
5.172350568390172,0.017506256464816315
5.2057205720572055,0.23805281851095078
5.239090575724239,0.39090988117921094
5.272460579391272,0.45791957467583766
5.305830583058306,0.4544256035731632
5.3392005867253385,0.4236336782778408
5.372570590392372,0.4186568747616153
5.405940594059405,0.47918872807200413
5.439310597726439,0.6123941285564436
5.472680601393472,0.786486163926606
5.506050605060506,0.9407432675026219
5.539420608727539,1.0089926704135734
5.572790612394573,0.9474413477339898
5.606160616061606,0.7549403372544377
5.63953061972864,0.4760720602581388
5.672900623395672,0.1844918988841421
5.706270627062706,-0.04705358878690723
5.739640630729739,-0.17689836122985225
5.773010634396773,-0.2108652752965862
5.806380638063806,-0.19695320141039396
5.83975064173084,-0.20058054805187692
5.873120645397873,-0.27214402179585795
5.9064906490649065,-0.42248599766486045
5.93986065273194,-0.6179157833868226
5.9732306563989725,-0.7966158130320783
6.006600660066006,-0.8976635449118892
6.0399706637330395,-0.8880525282233709
6.073340667400073,-0.7749436172801116
6.106710671067106,-0.5986314831283005
6.14008067473414,-0.4116522678884287
6.173450678401173,-0.2557113833988419
6.206820682068207,-0.14770818809105624
6.24019068573524,-0.07999458918362368
6.273560689402273,-0.032045668769391904
6.306930693069306,0.014635773711813752
6.34030069673634,0.06685114274735784
6.373670700403373,0.11952975298697001
6.407040704070407,0.16343970102824878
6.44041070773744,0.1950077146305493
6.473780711404474,0.22195297099083652
6.507150715071507,0.2613453938199773
6.540520718738541,0.331056655950873
6.573890722405573,0.4390005740586632
6.607260726072607,0.5755478177910067
6.64063072973964,0.7129403963395565
6.6740007334066735,0.8124262667740341
6.707370737073707,0.8366103028603663
6.7407407407407405,0.7624197690658256
6.774110744407774,0.589820367279197
6.807480748074807,0.34301914776787157
6.840850751741841,0.06371195685892472
6.8742207554088735,-0.20111924873566675
6.907590759075907,-0.41242766550391036
6.94096076274294,-0.548747996555483
6.974330766409974,-0.6092961475317838
7.007700770077007,-0.6102284874985376
7.041070773744041,-0.5763347255804667
7.074440777411074,-0.5318119860267615
7.107810781078108,-0.49344937397246863
7.141180784745141,-0.46787768961863585
7.174550788412174,-0.4525101993677771
7.207920792079207,-0.4385283643888861
7.241290795746241,-0.4142890919098419
7.274660799413274,-0.36845750985008374
7.308030803080308,-0.29298834044758143
7.341400806747341,-0.1859822625614191
7.3747708104143745,-0.05355448249735014
7.408140814081408,0.09081090778653406
7.4415108177484415,0.23033913516967455
7.474880821415475,0.35145708271237114
7.5082508250825075,0.44961996012135214
7.541620828749541,0.5308711671605102
7.5749908324165744,0.6073720954200162
7.608360836083608,0.6885275765796172
7.641730839750641,0.7722389209726803
7.675100843417675,0.8413174982235614
7.708470847084708,0.8676918455989996
7.741840850751742,0.8230380918812839
7.775210854418775,0.6911260171122383
7.808580858085808,0.47630852326418577
7.841950861752841,0.20447337380446629
7.875320865419875,-0.08382033233337798
7.908690869086908,-0.34519654038859326
7.942060872753942,-0.545944223685703
7.975430876420975,-0.6709931783907455
8.008800880088009,-0.7266865193193229
8.042170883755041,-0.7365991722032048
8.075540887422076,-0.731661503022676
8.108910891089108,-0.7376498112419607
8.142280894756142,-0.7643118075177088
8.175650898423175,-0.8004129086339612
8.20902090209021,-0.8173446673194356
8.242390905757242,-0.7807914164202907
8.275760909424275,-0.6663664329628372
8.309130913091309,-0.47276343969406376
8.342500916758341,-0.22626613852486846
8.375870920425376,0.02626041748066236
8.409240924092408,0.23373668483716206
8.442610927759443,0.35999345212899486
8.475980931426475,0.3974952145935402
8.50935093509351,0.36974156820754567
8.542720938760542,0.32142231560121703
8.576090942427575,0.30070658185347227
8.60946094609461,0.3411484823101741
8.642830949761642,0.4503117670142318
8.676200953428676,0.6088242956159843
8.709570957095709,0.7789831396238889
8.742940960762743,0.9184000549213809
8.776310964429776,0.9929602714253293
8.80968096809681,0.9847172794853344
8.843050971763843,0.8932170521069055
8.876420975430875,0.7315851528476695
8.90979097909791,0.5202990056145851
8.943160982764942,0.2815301922980224
8.976530986431976,0.03572934271880829
9.009900990099009,-0.19941022955734117
9.043270993766043,-0.4085941724997563
9.076640997433076,-0.5785232729172611
9.11001100110011,-0.6984517443232285
9.143381004767143,-0.7619308486888912
9.176751008434175,-0.7690820104645573
9.21012101210121,-0.7281372635775823
9.243491015768242,-0.6549493126897019
9.276861019435277,-0.5698097443944082
9.31023102310231,-0.49205333612016633
9.343601026769344,-0.4341565391930468
9.376971030436376,-0.3977908016552961
9.41034103410341,-0.374007356940004
9.443711037770443,-0.34816481582834424
9.477081041437476,-0.3077918550873426
9.51045104510451,-0.24949387506187615
9.543821048771543,-0.18072939940868388
9.577191052438577,-0.11456375019693445
9.61056105610561,-0.059574120037159894
9.643931059772644,-0.010677337153437584
9.677301063439677,0.052714076113948
9.710671067106711,0.15814796976788298
9.744041070773743,0.3240357049225623
9.777411074440776,0.5439887205123078
9.81078107810781,0.7807336033843388
9.844151081774843,0.9747500598281845
9.877521085441877,1.0654124243608234
9.91089108910891,1.0155768209787155
9.944261092775944,0.8280685923890478
9.977631096442977,0.5459534528857761
10.011001100110011,0.23617197462768932
10.044371103777044,-0.035916233985733126
10.077741107444076,-0.2294341545236915
10.11111111111111,-0.3384647747454428
10.144481114778143,-0.38671248939364145
10.177851118445178,-0.41057225132525277
10.21122112211221,-0.43969007439672597
10.244591125779245,-0.4840844970701829
10.277961129446277,-0.5326085678233471
10.311331133113312,-0.5616475449220639
10.344701136780344,-0.5485520594431624
10.378071140447377,-0.4832066707957415
10.411441144114411,-0.37313203390507543
10.444811147781444,-0.2409430742412726
10.478181151448478,-0.11597582837598365
10.51155115511551,-0.02348336692867218
10.544921158782545,0.024926169233098473
10.578291162449577,0.03647048732185992
10.611661166116612,0.03594132150533637
10.645031169783644,0.05768655477430302
10.678401173450677,0.13277516804363254
10.711771177117711,0.27549361469057976
10.745141180784744,0.47435550782250346
10.778511184451778,0.6918273054860158
10.81188118811881,0.8740205829181944
10.845251191785845,0.9677024966268586
10.878621195452878,0.938691309633224
10.911991199119912,0.7844934699236558
10.945361202786945,0.5357064954607448
10.978731206453979,0.2449814677591698
11.012101210121012,-0.03231362516347873
11.045471213788044,-0.25755682119302054
11.078841217455079,-0.41980131825605665
11.112211221122111,-0.5333250476905016
11.145581224789145,-0.6235589812812683
11.178951228456178,-0.7091915557189609
11.212321232123212,-0.7902528755583307
11.245691235790245,-0.8485359539054008
11.27906123945728,-0.8595832785360857
11.312431243124312,-0.8087671669818176
11.345801246791344,-0.7017194179069577
11.379171250458379,-0.5628979779290386
11.412541254125411,-0.4232635577175434
11.445911257792446,-0.3045054213946796
11.479281261459478,-0.20913388965479704
11.512651265126513,-0.12205613398037964
11.546021268793545,-0.022354360392466244
11.57939127246058,0.101954174390096
11.612761276127612,0.24498597706826628
11.646131279794645,0.3851796436272392
11.67950128346168,0.49738365853874994
11.712871287128712,0.5678256416329729
11.746241290795746,0.6031141582241412
11.779611294462779,0.6276202352466436
11.812981298129813,0.6700648212214152
11.846351301796846,0.7462627140363558
11.87972130546388,0.847270831894237
11.913091309130913,0.9394111638702205
11.946461312797945,0.9764837809324882
11.97983131646498,0.9184622551104811
12.013201320132012,0.7481998075406028
12.046571323799046,0.4791772799847741
12.079941327466079,0.1517635692055665
12.113311331133113,-0.17966163283771194
12.146681334800146,-0.4631974249622903
12.18005133846718,-0.6634410867348556
12.213421342134213,-0.7687060627194202
12.246791345801245,-0.7901070773085934
12.28016134946828,-0.7541445021387364
12.313531353135312,-0.6922944492823786
12.346901356802347,-0.6314211606713633
12.38027136046938,-0.587773296024346
12.413641364136414,-0.5655585352592832
12.447011367803446,-0.5593541750618077
12.48038137147048,-0.558476745286613
12.513751375137513,-0.5512050991216431
12.547121378804546,-0.527422442417335
12.58049138247158,-0.47945335459312205
12.613861386138613,-0.40197430849922294
12.647231389805647,-0.2922244240598844
12.68060139347268,-0.15111080184807532
12.713971397139714,0.015374600710870148
12.747341400806746,0.19583502942771083
12.78071140447378,0.3753723469528034
12.814081408140813,0.5394509232457738
12.847451411807846,0.6778588113082895
12.88082141547488,0.7863438792388323
12.914191419141913,0.8646645484939075
12.947561422808947,0.9121314742039257
12.98093142647598,0.9236654035326245
13.014301430143014,0.8894519689755872
13.047671433810047,0.7991691823894778
13.081041437477081,0.6487844799501717
13.114411441144114,0.44603745694046476
13.147781444811146,0.21121261137311323
13.18115144847818,-0.027626794066732116
13.214521452145213,-0.2427421730488565
13.247891455812248,-0.41430633173542425
13.28126145947928,-0.5342208349052172
13.314631463146315,-0.6051822947525043
13.348001466813347,-0.6364287579966457
13.381371470480381,-0.63878450512358
13.414741474147414,-0.621208245306191
13.448111477814447,-0.5896628358032961
13.481481481481481,-0.5477541704988568
13.514851485148514,-0.49791650287227823
13.548221488815548,-0.44207295190808954
13.58159149248258,-0.3813787137329083
13.614961496149615,-0.31542263489751643
13.648331499816647,-0.2417348781355358
13.681701503483682,-0.1563977246895954
13.715071507150714,-0.05598723279873843
13.748441510817747,0.059756209994300105
13.781811514484781,0.18579293838071173
13.815181518151814,0.31153664591208674
13.848551521818848,0.4231788492692053
13.88192152548588,0.5080330491468849
13.915291529152915,0.5591022221063607
13.948661532819948,0.5775628633343587
13.982031536486982,0.5715918418437398
14.015401540154015,0.5517743764836082
14.048771543821047,0.5252952695392618
14.082141547488082,0.49202800535485325
14.115511551155114,0.44481534881501206
14.148881554822148,0.37402962594621064
14.182251558489181,0.2741151681503303
14.215621562156215,0.14859025479235902
14.248991565823248,0.010642720840887222
14.282361569490282,-0.12128330163212828
14.315731573157315,-0.23080256728651144
14.349101576824348,-0.3100468232513952
14.382471580491382,-0.3619390934553221
14.415841584158414,-0.39730833752390154
14.449211587825449,-0.4287316296301434
14.482581591492481,-0.4645797459300697
14.515951595159516,-0.5061412231275018
14.549321598826548,-0.5485155707010616
14.582691602493583,-0.5838100000781916
14.616061606160615,-0.604405472805468
14.649431609827648,-0.6048317527552822
14.682801613494682,-0.5821435626649304
14.716171617161715,-0.5354848063647312
14.749541620828749,-0.46539351237979515
14.782911624495782,-0.3728826060409592
14.816281628162816,-0.2582280326396302
14.849651631829849,-0.11993852404234008
14.883021635496883,0.04499086913538724
14.916391639163916,0.23856323366877957
14.94976164283095,0.4572349481608869
14.983131646497982,0.6873120841054104
15.016501650165015,0.9033401225175975
15.04987165383205,1.0719178961026066
15.083241657499082,1.1609225885534926
15.116611661166116,1.150975421740396
15.149981664833149,1.0439535941246627
15.183351668500183,0.8639376636872348
15.216721672167216,0.6492479638255244
15.25009167583425,0.4386231036613334
15.283461679501283,0.25775578065156696
15.316831683168315,0.11246321662851029
15.35020168683535,-0.008507426687781795
15.383571690502382,-0.1230109727698241
15.416941694169417,-0.2433073622034375
15.45031169783645,-0.36878067926928015
15.483681701503484,-0.4872601323812843
15.517051705170516,-0.5836830443328856
15.55042170883755,-0.6506884107305964
15.583791712504583,-0.6946419367272396
15.617161716171616,-0.733107129994532
15.65053171983865,-0.7845052352380175
15.683901723505683,-0.8551561101396709
15.717271727172717,-0.9307703924978628
15.75064173083975,-0.9777820768235801
15.784011734506784,-0.9553809242934569
15.817381738173816,-0.8337596917692415
15.85075174184085,-0.6104197454893392
15.884121745507883,-0.3162982264043511
15.917491749174916,-0.007439572985123989
15.95086175284195,0.25552266398331674
15.984231756508983,0.43164203971298504
16.017601760176017,0.5166321096538534
16.05097176384305,0.5440711479305249
16.084341767510082,0.5693433338671213
16.117711771177117,0.6429932892856388
16.15108177484415,0.7855464306525521
16.184451778511182,0.9756039171733341
16.217821782178216,1.1570302631735006
16.25119178584525,1.2621070269126171
16.284561789512285,1.2400321527714653
16.317931793179316,1.0778357115045294
16.35130179684635,0.8047110966817221
16.384671800513384,0.4787711850803295
16.41804180418042,0.1632399110338846
16.45141180784745,-0.0967156576663444
16.484781811514484,-0.2865665065657956
16.51815181518152,-0.42012730454764885
16.55152181884855,-0.5251999331411319
16.584891822515583,-0.6251939806168121
16.618261826182618,-0.7258921346941815
16.651631829849652,-0.8133048290869207
16.685001833516683,-0.8627218195107189
16.718371837183717,-0.853543259101366
16.75174184085075,-0.7819579945606562
16.785111844517782,-0.6651119240481304
16.818481848184817,-0.5349870984616342
16.85185185185185,-0.42525391157659104
16.885221855518886,-0.3573894124510854
16.918591859185916,-0.33224093075204275
16.95196186285295,-0.330451520795691
16.985331866519985,-0.32125960295007827
17.01870187018702,-0.2757867821994685
17.05207187385405,-0.17923661309948818
17.085441877521085,-0.03696880691014912
17.11881188118812,0.12803612535503747
17.15218188485515,0.28521005614010453
17.185551888522184,0.4096229826701736
17.21892189218922,0.4926678475734639
17.252291895856253,0.5454389949869726
17.285661899523284,0.593010223232294
17.319031903190318,0.661602848300124
17.352401906857352,0.7637717900452756
