Frequency (Hz),Amplitude
0.0,1.5975049232604714
0.01993355481727575,1.5967901220474485
0.0398671096345515,1.5946465989695937
0.059800664451827246,1.5910769965757852
0.079734219269103,1.5860857220291087
0.09966777408637874,1.5796789515879024
0.11960132890365449,1.5718646370988374
0.13953488372093023,1.5626525147300379
0.159468438538206,1.5520541162475192
0.17940199335548174,1.5400827832238502
0.19933554817275748,1.5267536846645529
0.21926910299003324,1.512083838649306
0.23920265780730898,1.4960921387160095
0.25913621262458475,1.4787993858691335
0.27906976744186046,1.4602283272771706
0.29900332225913623,1.440403702943838
0.318936877076412,1.4193523019014436
0.3388704318936877,1.3971030297961797
0.3588039867109635,1.3736869901247744
0.37873754152823924,1.3491375818591287
0.39867109634551495,1.3234906167802407
0.4186046511627907,1.2967844605633836
0.4385382059800665,1.2690602025438278
0.4584717607973422,1.2403618601921729
0.47840531561461797,1.2107366256884255
0.49833887043189373,1.1802351636722725
0.5182724252491695,1.1489119713383524
0.5382059800664452,1.1168258146355372
0.5581395348837209,1.0840402575244055
0.5780730897009968,1.0506243051666
0.5980066445182725,1.0166531866816724
0.6179401993355482,0.9822093088030432
0.637873754152824,0.9473834184150094
0.6578073089700996,0.9122760194091706
0.6777408637873754,0.8769990970828225
0.6976744186046512,0.8416782103156604
0.717607973421927,0.8064550157969197
0.7375415282392027,0.7714902855227396
0.7574750830564785,0.7369674614054335
0.7774086378737541,0.7030967470181584
0.7973421926910299,0.670119647115539
0.8172757475083057,0.6383137027302576
0.8372093023255814,0.6079968976027788
0.8571428571428572,0.5795307956544004
0.877076411960133,0.5533209013601965
0.8970099667774087,0.5298120894239815
0.9169435215946844,0.5094764688231429
0.9368770764119602,0.4927912132185585
0.9568106312292359,0.4802053685011781
0.9767441860465116,0.47209788836765393
0.9966777408637875,0.46873363406036
1.0166112956810631,0.47022776341655564
1.036544850498339,0.4765289738023641
1.0564784053156147,0.48742707320756007
1.0764119601328903,0.5025823639334621
1.0963455149501662,0.5215677391334297
1.1162790697674418,0.5439124819048492
1.1362126245847177,0.5691393514561347
1.1561461794019936,0.5967910395789162
1.176079734219269,0.6264459432112186
1.196013289036545,0.6577253400973111
1.2159468438538206,0.6902946490810603
1.2358803986710964,0.7238611549820506
1.255813953488372,0.7581699552207517
1.275747508305648,0.7929992716757468
1.2956810631229239,0.8281557945086666
1.3156146179401993,0.8634704004161231
1.3355481727574752,0.8987943871825155
1.3554817275747508,0.9339962524052832
1.3754152823920267,0.9689589855312162
1.3953488372093024,1.0035778164988511
1.4152823920265782,1.0377583567628577
1.435215946843854,1.071415070391156
1.4551495016611296,1.1044700191279055
1.4750830564784054,1.136851832976743
1.495016611295681,1.168494865522279
1.514950166112957,1.1993385001994554
1.5348837209302328,1.2293265797888058
1.5548172757475083,1.2584069365297286
1.5747508305647842,1.2865310044752514
1.5946843853820598,1.3136534991724333
1.6146179401993357,1.33973215256284
1.6345514950166113,1.3647274932698297
1.6544850498338872,1.3886026642730982
1.6744186046511629,1.4113232714499302
1.6943521594684385,1.4328572576554632
1.7142857142857144,1.4531747979790182
1.73421926910299,1.4722482125934904
1.754152823920266,1.4900518942489245
1.7740863787375416,1.5065622479769407
1.7940199335548175,1.5217576409942812
1.8139534883720931,1.5356183611392489
1.8338870431893688,1.54812658245958
1.8538205980066447,1.5592663368059392
1.8737541528239203,1.5690234904813793
1.893687707641196,1.5773857251616328
1.9136212624584719,1.5843425224397618
1.9335548172757475,1.5898851514671302
1.9534883720930232,1.594006659264861
1.9734219269102993,1.5967018633686165
1.993355481727575,1.5979673465491844
2.0132890365448506,1.597801453422532
2.0332225913621262,1.5962042888295154
2.0531561461794023,1.5931777179282567
2.073089700996678,1.5887253680032816
2.0930232558139537,1.5828526320572054
2.1129568106312293,1.5755666743139742
2.132890365448505,1.56687643782968
2.1528239202657806,1.5567926544800048
2.1727574750830567,1.5453278576738418
2.1926910299003324,1.532496398234376
2.212624584717608,1.5183144639933417
2.2325581395348837,1.502800103766434
2.25249169435216,1.4859732565211823
2.2724252491694354,1.4678557867190012
2.292358803986711,1.4484715270165347
2.312292358803987,1.427846329756748
2.332225913621263,1.4060081289765727
2.352159468438538,1.3829870150191625
2.3720930232558137,1.3588153242791141
2.39202657807309,1.3335277471501916
2.4119601328903655,1.3071614579102002
2.431893687707641,1.2797562710993466
2.4518272425249172,1.2513548299651167
2.471760797342193,1.2220028338081825
2.4916943521594686,1.1917493126302654
2.511627906976744,1.1606469594323603
2.5315614617940203,1.1287525329307262
2.551495016611296,1.0961273464566328
2.5714285714285716,1.0628378625089707
2.5913621262458477,1.0289564169665832
2.611295681063123,0.9945621024661233
2.6312292358803986,0.9597418469902165
2.6511627906976742,0.9245917312569171
2.6710963455149503,0.8892185967787355
2.691029900332226,0.8537420047140787
2.7109634551495017,0.81829661223558
2.7308970099667778,0.7830350349021679
2.7508305647840534,0.7481312546250111
2.770764119601329,0.7137846031794323
2.7906976744186047,0.6802242842891769
2.810631229235881,0.6477142677113515
2.8305647840531565,0.6165581612191627
2.850498338870432,0.5871033000802746
2.870431893687708,0.5597427599314454
2.8903654485049834,0.534913325472115
2.910299003322259,0.5130867986946371
2.9302325581395348,0.49475180803811053
2.950166112956811,0.48038414824238734
2.9700996677740865,0.47040631951684203
2.990033222591362,0.4651413509680964
3.0099667774086383,0.46477067728394983
3.029900332225914,0.46930781572702035
3.0498338870431896,0.47859634600428724
3.0697674418604657,0.4923328777247864
3.089700996677741,0.5101074815875599
3.1096345514950166,0.5314499664581134
3.129568106312292,0.5558716712080497
3.1495016611295683,0.5828969211841516
3.169435215946844,0.6120828995131774
3.1893687707641196,0.6430296242197283
3.2093023255813957,0.6753828252491119
3.2292358803986714,0.7088324127006944
3.249169435215947,0.743108611566981
3.2691029900332227,0.7779771533525643
3.289036544850499,0.8132343558280747
3.3089700996677744,0.8487025313614726
3.32890365448505,0.8842259180962317
3.3488372093023258,0.9196671861237976
3.3687707641196014,0.9549044961306616
3.388704318936877,0.9898290538870556
3.4086378737541527,1.0243430926347994
3.428571428571429,1.0583582160055753
3.4485049833887045,1.0917940402054527
3.46843853820598,1.1245770823288894
3.4883720930232562,1.156639849996824
3.508305647840532,1.1879200951936748
3.5282392026578075,1.218360201873526
3.548172757475083,1.2479066825580545
3.5681063122923593,1.276509763824557
3.588039867109635,1.3041230444029632
3.60797342192691,1.330703212697758
3.6279069767441863,1.3562098130505753
3.647840531561462,1.3806050520715305
3.6677740863787376,1.4038536379866564
3.6877076411960132,1.4259226472522253
3.7076411960132893,1.4467814137370547
3.727574750830565,1.4664014366223617
3.7475083056478407,1.484756303855709
3.7674418604651168,1.5018216285530674
3.787375415282392,1.5175749961977691
3.807308970099668,1.5319959208567993
3.8272425249169437,1.5450658089401164
3.8471760797342194,1.556767929280806
3.867109634551495,1.5670873885229653
3.887043189368771,1.5760111109788015
3.9069767441860463,1.5835278222633231
3.9269102990033224,1.5896280361396027
3.9468438538205985,1.594304044114347
3.9667774086378738,1.5975499074163333
3.98671096345515,1.5993614510719387
4.0066445182724255,1.5997362598651663
4.026578073089701,1.5986736760370093
4.046511627906977,1.596174798641695
4.0664451827242525,1.5922424845384295
4.086378737541528,1.5868813510571353
4.106312292358805,1.5800977804383993
4.1262458471760795,1.5718999262118138
4.146179401993356,1.5622977217465637
4.166112956810632,1.551302891283867
4.186046511627907,1.5389289638468988
4.205980066445183,1.5251912905212142
4.225913621262459,1.5101070657125137
4.245847176079734,1.493695353120961
4.26578073089701,1.4759771173292306
4.2857142857142865,1.456975262089226
4.305647840531561,1.4367146766185317
4.325581395348838,1.4152222914914268
4.345514950166113,1.3925271460422903
4.365448504983389,1.3686604696057083
4.385382059800665,1.3436557794175856
4.40531561461794,1.3175489986167406
4.425249169435216,1.2903785985477443
4.445182724252492,1.2621857705098873
4.465116279069767,1.233014633271822
4.485049833887043,1.2029124841348795
4.50498338870432,1.171930103155879
4.524916943521594,1.1401221224226283
4.544850498338871,1.1075474751246666
4.5647840531561465,1.0742699427113012
4.584717607973422,1.0403588228299718
4.604651162790698,1.005889746152372
4.624584717607974,0.9709456767737121
4.644518272425249,0.9356181386959127
4.664451827242526,0.9000087199088184
4.6843853820598005,0.8642309153497023
4.704318936877076,0.8284123794713764
4.724252491694353,0.7926976659647341
4.7441860465116275,0.7572515318492252
4.764119601328904,0.7222628674270533
4.78405315614618,0.6879492682600727
4.803986710963455,0.6545621671985874
4.823920265780731,0.6223922586731687
4.8438538205980075,0.5917746275566093
4.863787375415282,0.5630924931254883
4.883720930232559,0.5367777789862543
4.9036544850498345,0.5133059117412542
4.92358803986711,0.49318164821407484
4.943521594684386,0.47691297679708927
4.963455149501661,0.4649721123736683
4.983388704318937,0.4577468450958048
5.003322259136213,0.4554911439977356
5.023255813953488,0.45828802598348983
5.043189368770764,0.46603660414756065
5.063122923588041,0.47846785094368965
5.083056478405315,0.4951835741401549
5.102990033222592,0.5157062760480842
5.122923588039868,0.5395271216825147
5.142857142857143,0.5661436843876387
5.162790697674419,0.595084734962753
5.182724252491695,0.6259233560284095
5.20265780730897,0.6582814231144447
5.222591362126246,0.6918286147736954
5.242524916943522,0.7262784672261215
5.262458471760797,0.761383183024529
5.282392026578074,0.7969282226022832
5.3023255813953485,0.8327272262238075
5.322259136212625,0.8686175100416091
5.342192691029901,0.9044562050733617
5.362126245847176,0.9401170165424584
5.382059800664452,0.975487539570935
5.4019933554817285,1.010467053568056
5.421926910299003,1.0449647183290236
5.44186046511628,1.078898102081125
5.4617940199335555,1.112191981259451
5.48172757475083,1.1447773615040613
5.501661129568107,1.1765906782541662
5.5215946843853825,1.2075731430054595
5.541528239202658,1.2376702077436106
5.561461794019934,1.2668311253667022
5.5813953488372094,1.295008588212381
5.601328903654485,1.3221584302743286
5.621262458471762,1.3482393814763283
5.641196013289036,1.3732128646019728
5.661129568106313,1.3970428272633635
5.681063122923589,1.4196956027223127
5.700996677740864,1.4411397945250692
5.72093023255814,1.461346180834581
5.740863787375416,1.480287635088486
5.760797342192691,1.4979390602126716
5.780730897009967,1.5142773341090763
5.800664451827243,1.5292812645344256
5.820598006644518,1.542931551812113
5.840531561461795,1.5552107580877532
5.8604651162790695,1.5661032820598204
5.880398671096346,1.575595338301046
5.900332225913622,1.5836749404405155
5.920265780730897,1.590331887606216
5.940199335548173,1.5955577536387806
5.960132890365449,1.5993458786828587
5.980066445182724,1.6016913628462015
6.0,1.6025910616906633
6.0199335548172765,1.6020435833872588
6.039867109634551,1.6000492874297063
6.059800664451828,1.596610284860843
6.0797342192691035,1.5917304400247112
6.099667774086379,1.5854153739161616
6.119601328903655,1.5776724692609316
6.139534883720931,1.5685108775245826
6.159468438538206,1.557941528119746
6.179401993355482,1.5459771401607918
6.1993355481727574,1.5326322372054355
6.219269102990033,1.5179231655273029
6.23920265780731,1.5018681165855483
6.259136212624584,1.4844871545022875
6.279069767441861,1.4658022495308423
6.299003322259137,1.4458373187053801
6.318936877076412,1.4246182751133825
6.338870431893688,1.4021730875379732
6.3588039867109645,1.3785318525913421
6.378737541528239,1.3537268819205024
6.398671096345516,1.3277928076344612
6.418604651162791,1.3007667098069515
6.438538205980066,1.2726882707852352
6.458471760797343,1.2435999621311193
6.4784053156146175,1.2135472713915656
6.498338870431894,1.1825789776188131
6.51827242524917,1.1507474867262142
6.538205980066445,1.1181092404935935
6.558139534883721,1.084725216469792
6.578073089700998,1.0506615403336494
6.598006644518272,1.0159902376732033
6.617940199335549,0.9807901588453741
6.6378737541528245,0.9451481187971689
6.6578073089701,0.9091603035993757
6.677740863787376,0.8729340068935786
6.6976744186046515,0.8365897719532867
6.717607973421927,0.8002640271534368
6.737541528239203,0.7641123111175859
6.7574750830564785,0.7283131822798631
6.777408637873754,0.6930728842009617
6.797342192691031,0.6586307719612983
6.8172757475083055,0.6252653623123138
6.837209302325582,0.5933006000668143
6.857142857142858,0.5631114698960363
6.877076411960133,0.5351273669682814
6.897009966777409,0.5098306808165904
6.9169435215946855,0.48774705060480966
6.93687707641196,0.46942330052273457
6.956810631229236,0.4553902054902867
6.9767441860465125,0.4461110903386924
6.996677740863787,0.44192382963579013
7.016611295681064,0.4429904877725178
7.036544850498339,0.44927071073213887
7.056478405315615,0.46052857399367997
7.076411960132891,0.47637030863690527
7.096345514950166,0.4962996613698508
7.116279069767442,0.5197746324328137
7.136212624584719,0.546253729310333
7.156146179401993,0.5752270057876478
7.17607973421927,0.6062327813958316
7.196013289036546,0.6388636118581966
7.21594684385382,0.6727654433717396
7.235880398671097,0.7076331169825377
7.2558139534883725,0.7432043640406012
7.275747508305648,0.7792535621070845
7.295681063122924,0.8155859104764757
7.3156146179402,0.8520323063782731
7.335548172757475,0.888444990707031
7.355481727574752,0.9246939250468968
7.3754152823920265,0.9606638158787194
7.395348837209303,0.996251689009712
7.415282392026579,1.0313649207240356
7.435215946843854,1.0659196425795312
7.45514950166113,1.099839449266775
7.475083056478406,1.1330543511163258
7.495016611295681,1.1654999236761674
7.514950166112956,1.1971166159750835
7.5348837209302335,1.2278491866719106
7.554817275747508,1.2576462434411155
7.574750830564784,1.2864598658803401
7.5946843853820605,1.3142452961634623
7.614617940199336,1.340960684792588
7.634551495016611,1.3665668812891596
7.6544850498338874,1.3910272616396324
7.674418604651163,1.4143075858823806
7.694352159468439,1.4363758804752502
7.714285714285715,1.4572023410840989
7.73421926910299,1.4767592522354216
7.754152823920266,1.4950209209218965
7.774086378737542,1.5119636217708616
7.794019933554818,1.5275655518089892
7.813953488372093,1.541806793200007
7.83388704318937,1.5546692826149682
7.853820598006645,1.5661367861254578
7.8737541528239205,1.5761948787024975
7.893687707641197,1.5848309275635037
7.913621262458472,1.592034078743492
7.9335548172757475,1.597795246380848
7.953488372093024,1.6021071043049921
7.9734219269103,1.6049640795976603
7.9933554817275745,1.6063623478745397
8.013289036544851,1.6062998301004283
8.033222591362128,1.604776190812954
8.053156146179402,1.6017928376877892
8.073089700996679,1.5973529224344825
8.093023255813954,1.5914613430680045
8.11295681063123,1.5841247476586868
8.132890365448505,1.5753515397236832
8.152823920265782,1.5651518854893798
8.172757475083056,1.5535377233265564
8.192691029900331,1.5405227757431776
8.21262458471761,1.5261225644145393
8.232558139534884,1.5103544288413717
8.252491694352159,1.4932375493578354
8.272425249169435,1.4747929753674867
8.292358803986712,1.4550436598733765
8.312292358803987,1.4340145015968044
8.332225913621263,1.4117323962565633
8.352159468438538,1.388226298922181
8.372093023255815,1.363527299774754
8.392026578073091,1.3376687161299494
8.411960132890366,1.310686204226227
8.43189368770764,1.282617895092284
8.451827242524917,1.2535045598247094
8.471760797342194,1.2233898108900785
8.491694352159469,1.1923203476859956
8.511627906976745,1.1603462566531455
8.53156146179402,1.1275213788444571
8.551495016611296,1.093903761188303
8.571428571428573,1.0595562119276136
8.591362126245848,1.0245469861213958
8.611295681063122,0.9889506339578384
8.6312292358804,0.9528490532844776
8.651162790697676,0.9163327985628048
8.67109634551495,0.8795027116818661
8.691029900332227,0.8424719557592062
8.710963455149502,0.80536855066626
8.730897009966778,0.7683385267188079
8.750830564784053,0.7315498264217007
8.77076411960133,0.6951970842527672
8.790697674418604,0.6595073836297126
8.81063122923588,0.6247469966318425
8.830564784053157,0.5912289022921859
8.850498338870432,0.5593204720933065
8.870431893687707,0.5294500032972534
8.890365448504983,0.5021096889558342
8.91029900332226,0.47785119951813876
8.930232558139535,0.4572687668783819
8.950166112956811,0.44096464567308263
8.970099667774086,0.42949485589981007
8.990033222591363,0.42330046014475103
9.00996677740864,0.42263962308943076
9.029900332225914,0.4275421743406961
9.049833887043189,0.4378041597675246
9.069767441860467,0.453024612373107
9.089700996677742,0.472670003489532
9.109634551495017,0.49614451934563175
9.129568106312293,0.522848697509551
9.14950166112957,0.552218804285907
9.169435215946844,0.5837476520197181
9.189368770764121,0.6169915883522135
9.209302325581396,0.6515689438966673
9.22923588039867,0.6871541169305138
9.249169435215949,0.7234700294843686
9.269102990033224,0.7602805040591799
9.289036544850498,0.7973833138865922
9.308970099667773,0.8346041890013212
9.328903654485051,0.8717918109823974
9.348837209302326,0.9088137131146969
9.368770764119601,0.9455529600954297
9.388704318936878,0.9819054759190751
9.408637873754152,1.017777899781843
9.428571428571429,1.05308586699346
9.448504983388705,1.0877526297138755
9.46843853820598,1.1217079485489168
9.488372093023255,1.1548871998578658
9.508305647840533,1.1872306549827498
9.528239202657808,1.2186828967471757
9.548172757475083,1.2491923458309266
9.56810631229236,1.278710875352385
9.588039867109636,1.3071934964894343
9.60797342192691,1.3345981014993962
9.627906976744187,1.3608852532694862
9.647840531561462,1.38601801270759
9.667774086378738,1.4099617969988445
9.687707641196015,1.4326842631102055
9.70764119601329,1.4541552119997936
9.727574750830565,1.4743465098438144
9.747508305647841,1.4932320232774505
9.767441860465118,1.510787566194411
9.787375415282392,1.5269908560920507
9.807308970099669,1.5418214783067663
9.827242524916944,1.5552608567756254
9.84717607973422,1.5672922301984127
9.867109634551497,1.5779006326702931
9.887043189368772,1.5870728780178118
9.906976744186046,1.594797547206251
9.926910299003321,1.6010649783007982
9.9468438538206,1.6058672585608422
9.966777408637874,1.6091982183303712
9.986710963455149,1.6110534264607985
10.006644518272426,1.6114301870674732
10.026578073089702,1.6103275374804713
10.046511627906977,1.607746247305415
10.066445182724253,1.6036888185631117
10.086378737541528,1.5981594869285938
10.106312292358805,1.5911642241435042
10.126245847176081,1.5827107417308455
10.146179401993356,1.572808496200775
10.16611295681063,1.5614686960017874
10.186046511627907,1.5487043105455531
10.205980066445184,1.5345300817184298
10.225913621262459,1.5189625383915912
10.245847176079735,1.5020200145582379
10.26578073089701,1.4837226718656713
10.285714285714286,1.4640925274775187
10.305647840531563,1.443153488404924
10.325581395348838,1.4209313936942165
10.345514950166113,1.397454066164415
10.36544850498339,1.3727513757667158
10.385382059800666,1.346855317108844
10.40531561461794,1.319800104276235
10.425249169435217,1.2916222868223743
10.445182724252492,1.2623608917358293
10.465116279069768,1.2320575973777108
10.485049833887045,1.2007569468965544
10.50498338870432,1.1685066105638724
10.524916943521594,1.135357708963237
10.544850498338871,1.1013652121774629
10.564784053156147,1.0665884342734224
10.584717607973422,1.0310916477720575
10.604651162790697,0.9949448497815899
10.624584717607974,0.9582247205345698
10.64451827242525,0.9210158267711301
10.664451827242525,0.8834121374046243
10.684385382059801,0.8455189378397634
