Time (s),Filtered Signal
0.0,-0.030540599467897715
0.0334075723830735,-0.07676018057005765
0.066815144766147,-0.11952381832072186
0.1002227171492205,-0.1546930692309569
0.133630289532294,-0.17767906285159255
0.1670378619153675,-0.18536119988001484
0.200445434298441,-0.17858626993530424
0.23385300668151449,-0.16353054900174735
0.267260579064588,-0.150479747616648
0.3006681514476615,-0.14989798943594324
0.334075723830735,-0.167345328023
0.3674832962138085,-0.1998511432728204
0.400890868596882,-0.23599589416662103
0.4342984409799555,-0.26020864803237453
0.46770601336302897,-0.25953049393408906
0.5011135857461025,-0.22959667257845737
0.534521158129176,-0.17675498591910807
0.5679287305122495,-0.11504582357636217
0.601336302895323,-0.059303757715488854
0.6347438752783965,-0.017626697750671525
0.66815144766147,0.01307160606259205
0.7015590200445435,0.045993245188832015
0.734966592427617,0.09793192791112398
0.7683741648106905,0.17997718782539376
0.801781737193764,0.2897006706523096
0.8351893095768375,0.4087797220013386
0.868596881959911,0.5078116679137111
0.9020044543429845,0.556835677502953
0.9354120267260579,0.5372848336361413
0.9688195991091315,0.4501474932516685
1.002227171492205,0.3166109937786725
1.0356347438752784,0.17076427387741186
1.069042316258352,0.047463516422912994
1.1024498886414256,-0.029507285813406336
1.135857461024499,-0.05425902231291509
1.1692650334075725,-0.03840176234246239
1.202672605790646,-0.004501311381516029
1.2360801781737194,0.02313249214213741
1.269487750556793,0.026338447444503296
1.3028953229398665,-0.002920635640278481
1.33630289532294,-0.06277016999449246
1.3697104677060135,-0.14418098064489177
1.403118040089087,-0.23411973669159336
1.4365256124721606,-0.31788149153103323
1.469933184855234,-0.38086511372849385
1.5033407572383075,-0.4108111889504195
1.536748329621381,-0.40092312177666684
1.5701559020044544,-0.35282716518470075
1.603563474387528,-0.277301154191679
1.6369710467706016,-0.19122840066067404
1.670378619153675,-0.11129229547300219
1.7037861915367485,-0.04724140985973266
1.737193763919822,0.0015586998729433543
1.7706013363028954,0.04397793191971041
1.804008908685969,0.09013102426458695
1.8374164810690425,0.14322446176705797
1.8708240534521159,0.19491446792247924
1.9042316258351895,0.22722136240707108
1.937639198218263,0.22061712871752412
1.9710467706013366,0.16449206962609178
2.00445434298441,0.06462701050834586
2.0378619153674835,-0.05653923378529494
2.071269487750557,-0.16758913832096514
2.1046770601336307,-0.24039435640256196
2.138084632516704,-0.26107610343308213
2.1714922048997773,-0.23432267746164298
2.204899777282851,-0.17922066214307972
2.2383073496659245,-0.1192174987105269
2.271714922048998,-0.07165489447195525
2.3051224944320716,-0.04191885730709576
2.338530066815145,-0.02411176728761561
2.3719376391982183,-0.00640354648883825
2.405345211581292,0.02280095665838372
2.4387527839643655,0.07103781959933178
2.472160356347439,0.14095449960122133
2.5055679287305126,0.2308839515743482
2.538975501113586,0.3349164977367678
2.5723830734966593,0.44218765644573294
2.605790645879733,0.5370482858122071
2.6391982182628064,0.6021282905656068
2.67260579064588,0.6244161988372927
2.7060133630289536,0.6016413266453372
2.739420935412027,0.5447658182913121
2.7728285077951007,0.4738185613141026
2.806236080178174,0.4081247258239649
2.8396436525612474,0.3558165224137459
2.873051224944321,0.30866808872048457
2.9064587973273945,0.2456942285925532
2.939866369710468,0.1439729510973601
2.9732739420935417,-0.009145918951974795
3.006681514476615,-0.20913205207530833
3.0400890868596884,-0.436125713529671
3.073496659242762,-0.6637226467981976
3.1069042316258355,-0.8689211727958869
3.140311804008909,-1.0373876073483501
3.1737193763919826,-1.161917233471414
3.207126948775056,-1.236820476874267
3.2405345211581293,-1.2535698741173873
3.273942093541203,-1.20169958179185
3.3073496659242765,-1.0747795347533036
3.34075723830735,-0.8773286914788291
3.3741648106904236,-0.6275210096117082
3.407572383073497,-0.3530746458662986
3.4409799554565703,-0.08205142000909547
3.474387527839644,0.16635073694000527
3.5077951002227175,0.3856177546448192
3.541202672605791,0.5779499284079506
3.5746102449888646,0.7448279032882025
3.608017817371938,0.8782905662879882
3.6414253897550113,0.9596547943847811
3.674832962138085,0.9687195997538581
3.7082405345211584,0.8999560352774764
3.7416481069042318,0.7762820915897612
3.7750556792873056,0.6497538106331966
3.808463251670379,0.5839229565239111
3.8418708240534527,0.6229330935912127
3.875278396436526,0.7621921164223993
3.9086859688195994,0.9382646915702331
3.942093541202673,1.048171538645487
3.9755011135857465,0.9932143040664462
4.00890868596882,0.7277418631221008
4.042316258351893,0.287890208454087
4.075723830734967,-0.21647278789937535
4.109131403118041,-0.6452152864604684
4.142538975501114,-0.8871305295746484
4.1759465478841875,-0.9068647704579313
4.209354120267261,-0.7578003882685783
4.242761692650334,-0.5560723994418957
4.276169265033408,-0.4292186155260757
4.309576837416482,-0.463276999748633
4.342984409799555,-0.6703133638485759
4.3763919821826285,-0.987052801699688
4.409799554565702,-1.301380836957734
4.443207126948775,-1.4935811520654525
4.476614699331849,-1.476329522859386
4.510022271714923,-1.22075843439925
4.543429844097996,-0.7623647846390719
4.5768374164810695,-0.18732145318759547
4.610244988864143,0.3947984153305516
4.643652561247216,0.882566741978349
4.67706013363029,1.2085672234891738
4.710467706013364,1.3519879343479286
4.743875278396437,1.3352126077218798
4.77728285077951,1.20747927452436
4.810690423162584,1.0231396997161701
4.844097995545657,0.8233402541967145
4.877505567928731,0.6275937936653736
4.910913140311805,0.43686966571459657
4.944320712694878,0.24466587713419868
4.977728285077951,0.04927550278364412
5.011135857461025,-0.13948165672198434
5.044543429844098,-0.3024482795996062
5.077951002227172,-0.4205835005968609
5.111358574610246,-0.4858663988563881
5.144766146993319,-0.5068796865671752
5.178173719376392,-0.5052317276690638
5.211581291759466,-0.504238334434118
5.244988864142539,-0.5158958732117264
5.278396436525613,-0.5334432488821644
5.311804008908687,-0.5339521307219786
5.34521158129176,-0.4899997162819079
5.378619153674833,-0.38458930870844943
5.412026726057907,-0.22176908860363126
5.445434298440981,-0.02767894988292062
5.478841870824054,0.15837876027226383
5.512249443207128,0.2985018414429791
5.545657015590201,0.3698183086598494
5.579064587973274,0.3717352994062869
5.612472160356348,0.32477619220665993
5.645879732739422,0.2626134487427226
5.679287305122495,0.2209761840306195
5.712694877505569,0.22711631006255972
5.746102449888642,0.292259694172731
5.779510022271715,0.4081742038620364
5.812917594654789,0.5482843696804226
5.846325167037863,0.6733639901138189
5.879732739420936,0.7410810488001724
5.91314031180401,0.7173570486460972
5.946547884187083,0.5862675715847323
5.979955456570156,0.3550814390831676
6.01336302895323,0.05256323163441648
6.046770601336304,-0.27867591565815986
6.080178173719377,-0.5926041766336835
6.1135857461024505,-0.8490582811972593
6.146993318485524,-1.01929252693583
6.180400890868597,-1.087632794911188
6.213808463251671,-1.05104107614763
6.247216035634745,-0.918628419221668
6.280623608017818,-0.7116777448676513
6.3140311804008915,-0.462826567627005
6.347438752783965,-0.21231805889333022
6.380846325167038,-0.00040203114882201424
6.414253897550112,0.14261442826585846
6.447661469933186,0.2051030535672432
6.481069042316259,0.19778146400693342
6.5144766146993325,0.1502518893587311
6.547884187082406,0.10129862326270143
6.581291759465479,0.08636354718785964
6.614699331848553,0.12652023212417624
6.648106904231627,0.22234769200432355
6.6815144766147,0.35414961188904154
6.7149220489977735,0.4880359364729262
6.748329621380847,0.5860740504613249
6.78173719376392,0.6179599220293742
6.815144766146994,0.5711698243869767
6.848552338530068,0.45638754269791865
6.881959910913141,0.30565457534203283
6.915367483296214,0.162608591130667
6.948775055679288,0.06713278816720118
6.982182628062361,0.03963491424919489
7.015590200445435,0.07146679223906581
7.048997772828509,0.126537639446222
7.082405345211582,0.15500906670514114
7.115812917594655,0.11460495487091872
7.149220489977729,-0.008992980189964075
7.182628062360802,-0.19175678346568986
7.216035634743876,-0.376467695018791
7.24944320712695,-0.49270334311330494
7.282850779510023,-0.4847095594101825
7.316258351893096,-0.3365599414902707
7.34966592427617,-0.08431648689361057
7.383073496659243,0.19090466691152422
7.416481069042317,0.38827199255250466
7.449888641425391,0.42306913753764724
7.4832962138084635,0.26006966686151617
7.516703786191537,-0.06900417029576698
7.550111358574611,-0.4724172494360157
7.583518930957685,-0.8290217545140884
7.616926503340758,-1.0318183616486487
7.650334075723832,-1.027427760498293
7.683741648106905,-0.8349992041581688
7.717149220489978,-0.5360423478274186
7.750556792873052,-0.23904837769339385
7.783964365256126,-0.03414364806823744
7.817371937639199,0.042172809013416156
7.850779510022273,0.01675122452125838
7.884187082405346,-0.03932543724531633
7.917594654788419,-0.04826877920798387
7.951002227171493,0.037173026185246844
7.984409799554567,0.21417140675275456
8.01781737193764,0.4356205219577663
8.051224944320714,0.6361131311950574
8.084632516703786,0.7636616575265818
8.118040089086861,0.8013719972245122
8.151447661469934,0.769787905428547
8.184855233853007,0.7110273018126964
8.218262806236082,0.6645540848082848
8.251670378619155,0.6473103860146656
8.285077951002227,0.6472330608752501
8.318485523385302,0.6315858113439756
8.351893095768375,0.5643729037014511
8.385300668151448,0.423825056054696
8.418708240534523,0.2124465511830487
8.452115812917596,-0.04335862659724127
8.485523385300668,-0.3023835730725184
8.518930957683743,-0.5220145919184288
8.552338530066816,-0.6710883359028985
8.585746102449889,-0.7383569107174518
8.619153674832964,-0.7341648177819212
8.652561247216036,-0.6846950454490615
8.68596881959911,-0.6204345880561235
8.719376391982184,-0.5630677450698465
8.752783964365257,-0.5165801950992714
8.78619153674833,-0.4673889479470209
8.819599109131405,-0.39433428437878376
8.853006681514477,-0.28396550419054967
8.88641425389755,-0.14283586563893427
8.919821826280625,0.0008140064760414427
8.953229398663698,0.10830341210410659
8.98663697104677,0.14974941638712358
9.020044543429846,0.12128209393746175
9.053452115812918,0.05046510204157939
9.086859688195991,-0.014099722600215015
9.120267260579066,-0.02470075066399888
9.153674832962139,0.0426488550550526
9.187082405345212,0.17592653325177557
9.220489977728286,0.3315762879092672
9.25389755011136,0.45344525586660406
9.287305122494432,0.49673338258268795
9.320712694877507,0.44552521012077695
9.35412026726058,0.3164440154038265
9.387527839643653,0.14832155668364205
9.420935412026727,-0.015709253487927816
9.4543429844098,-0.14485644901190514
9.487750556792873,-0.22934227661432435
9.521158129175948,-0.2790545237896736
9.55456570155902,-0.3144359489754021
9.587973273942094,-0.3541008015242997
9.621380846325168,-0.4038285084951756
9.654788418708241,-0.4506720457866643
9.688195991091314,-0.46462529243770495
9.721603563474389,-0.4084588941166232
9.755011135857462,-0.25356092216632503
9.788418708240535,0.0036251024226684418
9.82182628062361,0.3319792813858749
9.855233853006682,0.669108595660126
9.888641425389755,0.9389953113909876
9.92204899777283,1.0781990335379774
9.955456570155903,1.0596926907437423
9.988864142538976,0.903168159819024
10.02227171492205,0.6662143126447077
10.055679287305123,0.41971447971241505
10.089086859688196,0.2186027929455221
10.12249443207127,0.08160009691664911
10.155902004454344,-0.010752849230382293
10.189309576837417,-0.099462274411546
10.222717149220491,-0.2207178069728181
10.256124721603564,-0.3833450817534875
10.289532293986637,-0.5614686319639233
10.322939866369712,-0.7059457459271319
10.356347438752785,-0.7686149512184909
10.389755011135858,-0.7269939047422698
10.423162583518932,-0.5969375358187504
10.456570155902005,-0.4269157522894342
10.489977728285078,-0.2768122720792641
10.523385300668153,-0.1917503153517989
10.556792873051226,-0.1835613313658597
10.590200445434299,-0.22818780668970243
10.623608017817373,-0.27905432056578233
10.657015590200446,-0.2888093946691397
10.69042316258352,-0.22881285509395724
10.723830734966594,-0.09842725561089516
10.757238307349667,0.07765548940302139
10.790645879732741,0.2600692278742446
10.824053452115814,0.40714609335336255
10.857461024498887,0.48440470411214476
10.890868596881962,0.47015146690575854
10.924276169265035,0.35885534524483353
10.957683741648108,0.16392124935186828
10.991091314031182,-0.08079772502575767
11.024498886414255,-0.3237045694149502
11.057906458797328,-0.5052555574209112
11.091314031180403,-0.5745295921853981
11.124721603563476,-0.5075479080047723
11.158129175946549,-0.31919320602295315
11.191536748329623,-0.061577485198475695
11.224944320712696,0.1929040422302185
11.25835189309577,0.3782600113951371
11.291759465478844,0.46034105850228463
11.325167037861917,0.44964381007957926
11.35857461024499,0.39526687541173394
11.391982182628064,0.36218148959242324
11.425389755011137,0.4015486358735999
11.45879732739421,0.5269900187926697
11.492204899777285,0.7070802073251103
11.525612472160358,0.8771921921870013
11.55902004454343,0.9655184469148478
11.592427616926505,0.9222913297079552
11.625835189309578,0.7402785991005726
11.659242761692651,0.45856637279637247
11.692650334075726,0.1484387223889004
11.726057906458799,-0.11306838111214491
11.759465478841872,-0.2720138804649477
11.792873051224946,-0.3180872252629819
11.82628062360802,-0.28883440255272164
11.859688195991092,-0.25498303459751653
11.893095768374167,-0.29107322555080994
11.92650334075724,-0.44189278316041253
11.959910913140313,-0.6985188464995165
11.993318485523387,-0.9957689104722024
12.02672605790646,-1.2349530527375379
12.060133630289533,-1.3244392090881834
12.093541202672608,-1.2209227356456533
12.12694877505568,-0.9519811029118803
12.160356347438753,-0.6079020738336061
12.193763919821828,-0.30505311408382424
12.227171492204901,-0.13710319730261283
12.260579064587974,-0.13666069920295254
12.293986636971049,-0.2647712973351418
12.327394209354122,-0.43188238391982575
12.360801781737194,-0.5387746804314065
12.39420935412027,-0.5174831388464914
12.427616926503342,-0.3542234164428067
12.461024498886415,-0.08677608948569497
12.49443207126949,0.21852638950301628
12.527839643652563,0.4966479649292121
12.561247216035635,0.7062961201659697
12.59465478841871,0.8369292548540358
12.628062360801783,0.9012408521611923
12.661469933184856,0.9208682433158815
12.69487750556793,0.9146221157260104
12.728285077951004,0.8947502581641489
12.761692650334076,0.8704497407932336
12.795100222717151,0.8529979241115687
12.828507795100224,0.8563332454707926
12.861915367483297,0.8907846808596857
12.895322939866372,0.9532619779183662
12.928730512249444,1.0208016766151986
12.962138084632517,1.0534097888015845
12.995545657015592,1.0070478330340087
13.028953229398665,0.8514626121389797
13.062360801781738,0.5841754734897276
13.095768374164813,0.2334561313770042
13.129175946547885,-0.15131692468604602
13.162583518930958,-0.5170752798137607
13.195991091314033,-0.8237863470116397
13.229398663697106,-1.053119406231658
13.262806236080179,-1.2066702493755965
13.296213808463254,-1.2971000012598692
13.329621380846326,-1.338585471509772
13.3630289532294,-1.3417303257651774
13.396436525612474,-1.3138123009988774
13.429844097995547,-1.261167184302657
13.46325167037862,-1.189553036145007
13.496659242761694,-1.1010216106896902
13.530066815144767,-0.9899058522777777
13.56347438752784,-0.8426664587289555
13.596881959910915,-0.6445580322999533
13.630289532293988,-0.39127224548066736
13.66369710467706,-0.09911467950979569
13.697104677060135,0.19371916084866075
13.730512249443208,0.43829397374023743
13.763919821826281,0.595042098714744
13.797327394209356,0.6532696984769327
13.830734966592429,0.6391771316678485
13.864142538975502,0.6063334648882945
13.897550111358576,0.6114123068187471
13.93095768374165,0.6862616624430016
13.964365256124722,0.8203587041364202
13.997772828507797,0.9633288149395639
14.03118040089087,1.0473648044657515
14.064587973273943,1.0190781084775795
14.097995545657017,0.865107248633008
14.13140311804009,0.6187260794934681
14.164810690423163,0.3443673563807364
14.198218262806238,0.1082470504240079
14.23162583518931,-0.0499170199632184
14.265033407572384,-0.1302658335754237
14.298440979955458,-0.16565011335513175
14.331848552338531,-0.19907852426300351
14.365256124721604,-0.25837808781499216
14.398663697104679,-0.341326595725273
14.432071269487752,-0.4183495135509599
14.465478841870825,-0.45040947329841385
14.4988864142539,-0.41195423917255
14.532293986636972,-0.3066142655805242
14.565701559020045,-0.16761017982722787
14.59910913140312,-0.04304822527671229
14.632516703786193,0.025995046268855414
14.665924276169266,0.023449221300837767
14.69933184855234,-0.03623036915085116
14.732739420935413,-0.11679393336265816
14.766146993318486,-0.17793771886339851
14.79955456570156,-0.19302717603151462
14.832962138084634,-0.1587365965774688
14.866369710467707,-0.09318188356817804
14.899777282850781,-0.02475883025651841
14.933184855233854,0.022196889818908636
14.966592427616927,0.03811510340202875
15.0,0.03078272966870068
