Time (s),Filtered Signal
0.0,0.035922895731236075
0.033370165745856356,-0.37409471629571506
0.06674033149171271,-0.6881126990793188
0.10011049723756907,-0.8415321018002621
0.13348066298342542,-0.8214703657317431
0.16685082872928178,-0.6687690213893673
0.20022099447513814,-0.46037404630895035
0.2335911602209945,-0.2783603297877482
0.26696132596685085,-0.1778207014244331
0.30033149171270723,-0.16703975200833057
0.33370165745856356,-0.20842063905401345
0.3670718232044199,-0.23933902822351538
0.4004419889502763,-0.20293442850717563
0.43381215469613266,-0.07450570456952017
0.467182320441989,0.12816843257117633
0.5005524861878453,0.35415526779192447
0.5339226519337017,0.5426211249463462
0.5672928176795581,0.6483976138994004
0.6006629834254145,0.658282350632059
0.6340331491712707,0.5918916861282842
0.6674033149171271,0.48856008534223355
0.7007734806629835,0.38789886981109034
0.7341436464088398,0.3135118237918379
0.7675138121546962,0.2666481451594454
0.8008839779005525,0.2310863879336503
0.8342541436464089,0.18518801452163888
0.8676243093922653,0.11432654796817018
0.9009944751381216,0.017751989731061398
0.934364640883978,-0.09247293019445961
0.9677348066298344,-0.1986287339808645
1.0011049723756906,-0.2861029916270464
1.0344751381215471,-0.34929232352181
1.0678453038674034,-0.3924185386853336
1.1012154696132597,-0.4259501661755276
1.1345856353591162,-0.4612325935801736
1.1679558011049724,-0.5060152201389783
1.201325966850829,-0.562196202059291
1.2346961325966852,-0.6254610360276835
1.2680662983425415,-0.6857259638730441
1.301436464088398,-0.7277993804640284
1.3348066298342542,-0.7328288677822344
1.3681767955801105,-0.6817275618303197
1.401546961325967,-0.5610127859242805
1.4349171270718233,-0.36956345713706146
1.4682872928176796,-0.12303364169254495
1.501657458563536,0.1473880446878121
1.5350276243093923,0.40291070508613547
1.5683977900552488,0.6092277400673074
1.601767955801105,0.7474916700639203
1.6351381215469614,0.818913426613507
1.6685082872928179,0.8407340513281155
1.7018784530386741,0.8357102890074346
1.7352486187845306,0.8205018596234908
1.768618784530387,0.7986284867051872
1.8019889502762432,0.7609678220640865
1.8353591160220997,0.6927722902941426
1.868729281767956,0.5831271090898394
1.9020994475138122,0.43210881220152664
1.9354696132596687,0.25262024262873944
1.968839779005525,0.06673995445215072
2.0022099447513813,-0.10115577322971753
2.0355801104972375,-0.2313226526946677
2.0689502762430942,-0.31315027068514917
2.1023204419889505,-0.34635816981459283
2.135690607734807,-0.33949601056559153
2.169060773480663,-0.30699877821382626
2.2024309392265193,-0.26578333056852665
2.235801104972376,-0.23176541955790694
2.2691712707182323,-0.21642790604836853
2.3025414364640886,-0.2239399276926361
2.335911602209945,-0.2499100359095624
2.369281767955801,-0.28291782856503644
2.402651933701658,-0.3090594206231661
2.436022099447514,-0.31813269293359414
2.4693922651933704,-0.30869772128521644
2.5027624309392267,-0.2891102426522187
2.536132596685083,-0.27321447020465983
2.5695027624309392,-0.2721814690143541
2.602872928176796,-0.2865867397740017
2.636243093922652,-0.3035992805296762
2.6696132596685085,-0.30218514771594124
2.7029834254143648,-0.26504358545457113
2.736353591160221,-0.1915880493472474
2.7697237569060777,-0.10423970327284654
2.803093922651934,-0.04237482701132213
2.8364640883977903,-0.04417518443544415
2.8698342541436466,-0.12376330262941972
2.903204419889503,-0.2554540291127443
2.936574585635359,-0.37554241528054194
2.969944751381216,-0.40439622521088636
3.003314917127072,-0.2809863475712939
3.0366850828729284,0.005961908448405121
3.0700552486187846,0.40623303314702486
3.103425414364641,0.82319022677703
3.1367955801104976,1.149646992324968
3.170165745856354,1.3078112399596487
3.20353591160221,1.274740778930333
3.2369060773480665,1.0828578221470417
3.2702762430939227,0.7982688027282345
3.3036464088397794,0.49028895408802103
3.3370165745856357,0.2079652199166029
3.370386740331492,-0.027017322650482737
3.4037569060773483,-0.21228326735618436
3.4371270718232045,-0.35098640574328205
3.4704972375690613,-0.4428590446606896
3.5038674033149175,-0.4849088551019082
3.537237569060774,-0.4784804229191556
3.57060773480663,-0.4346384062245114
3.6039779005524863,-0.371474719976632
3.6373480662983426,-0.3035464375224282
3.6707182320441993,-0.230451982747872
3.7040883977900556,-0.1337328580685961
3.737458563535912,0.01293815762317562
3.770828729281768,0.22363506640373454
3.8041988950276244,0.4808616649019448
3.837569060773481,0.7294756861357393
3.8709392265193374,0.8906153144272221
3.9043093922651937,0.8918952318586125
3.93767955801105,0.700446707341169
3.9710497237569062,0.34217853079911
4.0044198895027625,-0.10362330284840238
4.037790055248619,-0.5331281019426148
4.071160220994475,-0.8569960400253831
4.104530386740332,-1.031235337460346
4.1379005524861885,-1.0661049893509396
4.171270718232044,-1.0109247892156543
4.204640883977901,-0.9246859161352498
4.238011049723757,-0.8482868277020476
4.271381215469614,-0.7914094940992242
4.30475138121547,-0.7378628837797373
4.338121546961326,-0.6632268439608225
4.371491712707183,-0.5532295666548434
4.404861878453039,-0.41278751541605585
4.438232044198895,-0.2623119447102111
4.471602209944752,-0.1253969401699878
4.504972375690608,-0.016100393229043573
4.538342541436465,0.06705180230662672
4.5717127071823205,0.13805350776160602
4.605082872928177,0.21439665701467583
4.638453038674034,0.307744529456293
4.67182320441989,0.4191128756699733
4.7051933701657465,0.5400640309855712
4.738563535911602,0.657968028570914
4.771933701657459,0.7616769390673619
4.805303867403316,0.8445691639031785
4.8386740331491715,0.9040869762368279
4.872044198895028,0.9391639266594739
4.905414364640884,0.9480315981829825
4.938784530386741,0.9283048610727787
4.972154696132597,0.8794269713748825
5.005524861878453,0.80564515773594
5.03889502762431,0.7169034760309498
5.072265193370166,0.6260129710145952
5.105635359116023,0.5427903877199232
5.1390055248618784,0.46821407948273114
5.172375690607735,0.39246334729239435
5.205745856353592,0.299152192617541
5.239116022099448,0.17468473327285486
5.272486187845304,0.018229242514643515
5.30585635359116,-0.15357025722534678
5.339226519337017,-0.3111520216561173
5.372596685082874,-0.4252715251270547
5.4059668508287295,-0.4831763683992798
5.439337016574586,-0.49912202439703
5.472707182320442,-0.5120451794832308
5.506077348066299,-0.5688935340339301
5.5394475138121555,-0.6997814969629337
5.572817679558011,-0.8970817045920421
5.606187845303868,-1.1112178961793824
5.639558011049724,-1.2697022093300083
5.672928176795581,-1.31450478194408
5.706298342541437,-1.2410697608722339
5.739668508287293,-1.1166989108650593
5.77303867403315,-1.0615459537577332
5.806408839779006,-1.1921180101484707
5.839779005524862,-1.548499568514145
5.873149171270718,-2.0414406859180145
5.906519337016575,-2.453684014506171
5.939889502762432,-2.5083815932128393
5.9732596685082875,-1.9840789095662958
6.006629834254144,-0.8271830972382171
6.04,0.7937789658377896
6.073370165745857,2.5252976130703635
6.1067403314917135,3.947938357712266
6.140110497237569,4.726942625281503
6.173480662983426,4.727534186279504
6.206850828729282,4.045646638485116
6.240220994475139,2.946625742333582
6.273591160220995,1.7475942965788576
6.306961325966851,0.701257470198063
6.340331491712708,-0.06930447522556567
6.373701657458564,-0.5664256877781794
6.40707182320442,-0.861530094732108
6.440441988950277,-1.0259671703683522
6.473812154696133,-1.0873081032952188
6.50718232044199,-1.029034446241623
6.5405524861878455,-0.8248514662929834
6.573922651933702,-0.4806587227364481
6.607292817679559,-0.05614333473290683
6.640662983425415,0.3474764943724257
6.674033149171271,0.6265041197698065
6.707403314917127,0.7187124527475129
6.740773480662984,0.6283669177267743
6.774143646408841,0.41929924490374954
6.8075138121546965,0.18000193806997186
6.840883977900553,-0.02101519367273528
6.874254143646409,-0.1667692379647917
6.907624309392266,-0.294456374247804
6.9409944751381225,-0.46837971635711323
6.974364640883978,-0.7376010834996458
7.007734806629835,-1.1005762255492446
7.041104972375691,-1.4953520820893758
7.074475138121548,-1.820685199550387
7.107845303867403,-1.9776795633745377
7.14121546961326,-1.911512232450284
7.174585635359117,-1.6335283591115557
7.207955801104973,-1.2145325244996217
7.241325966850829,-0.7544094811503004
7.274696132596685,-0.34369398094312803
7.308066298342542,-0.03453724618551597
7.341436464088399,0.16811151036511263
7.3748066298342545,0.2949288798533571
7.408176795580111,0.389019804438756
7.441546961325967,0.48330909070584965
7.474917127071824,0.588167690159752
7.5082872928176805,0.6926679930639013
7.541657458563536,0.7763058219124558
7.575027624309393,0.8239188188153047
7.608397790055249,0.8360955437558041
7.641767955801106,0.8302455061641267
7.675138121546962,0.8321780070869165
7.708508287292818,0.8624843415656384
7.741878453038675,0.9243841057220006
7.775248618784531,0.9990108446177204
7.808618784530387,1.0507162809554826
7.841988950276244,1.0404135921671158
7.8753591160221,0.9413338164413412
7.908729281767957,0.750485883885291
7.9420994475138125,0.49104610257555786
7.975469613259669,0.20490194468509015
8.008839779005525,-0.06126800156710464
8.042209944751383,-0.2705903086649124
8.075580110497238,-0.40578176038679803
8.108950276243094,-0.47120998963621524
8.14232044198895,-0.4876957685771916
8.175690607734808,-0.4830895087911999
8.209060773480664,-0.48249136088385564
8.24243093922652,-0.5011902260006822
8.275801104972377,-0.5417785655418685
8.309171270718233,-0.5953515656219553
8.342541436464089,-0.64571357494913
8.375911602209946,-0.6750919976668053
8.409281767955802,-0.6697629449770142
8.442651933701658,-0.6240758860275704
8.476022099447514,-0.5416964804560187
8.509392265193371,-0.43362448363796546
8.542762430939227,-0.31366873900540565
8.576132596685083,-0.19321017937276896
8.60950276243094,-0.07763946670056183
8.642872928176796,0.03369613114208632
8.676243093922652,0.14385514276498093
8.709613259668508,0.2528405702966785
8.742983425414366,0.35348843268377106
8.776353591160222,0.43151620508835903
8.809723756906077,0.47044083522373065
8.843093922651935,0.4592477914540573
8.87646408839779,0.3987603648020703
8.909834254143647,0.30291693057632896
8.943204419889504,0.1937082838952744
8.97657458563536,0.09204554789489842
9.009944751381216,0.00927888558159448
9.043314917127072,-0.05608435983293449
9.07668508287293,-0.11474803561328914
9.110055248618785,-0.1782691883252957
9.143425414364641,-0.25081896782671564
9.176795580110499,-0.32572602387047567
9.210165745856354,-0.38856609124367697
9.24353591160221,-0.42470510505247444
9.276906077348068,-0.42669019043881545
9.310276243093924,-0.39715102664181673
9.34364640883978,-0.34568201699646156
9.377016574585635,-0.28182130354407725
9.410386740331493,-0.20860007921994353
9.443756906077349,-0.12085004755196115
9.477127071823205,-0.009654064958609602
9.510497237569062,0.1294643068200362
9.543867403314918,0.28963934588273127
9.577237569060774,0.45189260879663495
9.610607734806631,0.5921697614011067
9.643977900552487,0.6932371579400733
9.677348066298343,0.7549349685187116
9.710718232044199,0.7960163813660036
9.744088397790057,0.8444911920105638
9.777458563535912,0.9195976907046606
9.810828729281768,1.0141537192285908
9.844198895027626,1.0877340597420841
9.877569060773482,1.0771351910582596
9.910939226519337,0.9221503705213883
9.944309392265193,0.5958958683756221
9.97767955801105,0.12483401006999635
10.011049723756907,-0.4127802543522762
10.044419889502763,-0.9112695933349212
10.07779005524862,-1.274637680651551
10.111160220994476,-1.4499057928297427
10.144530386740332,-1.4421536132194215
10.17790055248619,-1.305798102475431
10.211270718232045,-1.1177347272964797
10.244640883977901,-0.9454272924649324
10.278011049723757,-0.8237170177797957
10.311381215469615,-0.748611055327241
10.34475138121547,-0.6879918828477878
10.378121546961326,-0.6021498476924086
10.411491712707184,-0.46409938710723697
10.44486187845304,-0.27136163596084273
10.478232044198895,-0.045775120421497784
10.511602209944753,0.17665085218023963
10.544972375690609,0.36018585499588207
10.578342541436465,0.48184180621477807
10.61171270718232,0.5375917564085289
10.645082872928178,0.5413340802662394
10.678453038674034,0.5183927507175133
10.71182320441989,0.49666005567254895
10.745193370165747,0.498273343459205
10.778563535911603,0.5336766582842568
10.811933701657459,0.5988955897718394
10.845303867403315,0.6762775645339909
10.878674033149172,0.7386729293770762
10.912044198895028,0.7566111448622771
10.945414364640884,0.7071868825694365
10.978784530386742,0.5823184873619672
11.012154696132598,0.39341808471870765
11.045524861878453,0.17002091739160896
11.078895027624311,-0.04818434024815002
11.112265193370167,-0.22374476117940492
11.145635359116023,-0.3337435184257963
11.179005524861878,-0.3769439595537951
11.212375690607736,-0.37254695743600846
11.245745856353592,-0.3509250854681286
11.279116022099448,-0.3403539285182296
11.312486187845305,-0.3556181019257767
11.345856353591161,-0.3934260889885368
11.379226519337017,-0.43624699414046497
11.412596685082875,-0.4621312438603196
11.44596685082873,-0.455332289597271
11.479337016574586,-0.4124919182535271
11.512707182320442,-0.3417899755016256
11.5460773480663,-0.2563677566961484
11.579447513812156,-0.16638262844480448
11.612817679558011,-0.07455445799681025
11.646187845303869,0.022248399116323515
11.679558011049725,0.12662535294059488
11.71292817679558,0.2337596211506676
11.746298342541436,0.328832576267349
11.779668508287294,0.3911137508174114
11.81303867403315,0.4031101717804185
11.846408839779006,0.3599366094980705
11.879779005524863,0.2735907852916078
11.91314917127072,0.1694498653076522
11.946519337016575,0.07651414529744764
11.979889502762433,0.016220594266585883
12.013259668508288,-0.004827005723409294
12.046629834254144,0.004787175789528532
12.08,0.02719665010864369
12.113370165745858,0.043904197373740975
12.146740331491714,0.04294523615374671
12.18011049723757,0.02174235289560767
12.213480662983427,-0.014700373951568965
12.246850828729283,-0.058452733212556174
12.280220994475139,-0.10341488425936787
12.313591160220996,-0.14786580603207866
12.346961325966852,-0.1938372099006019
12.380331491712708,-0.243872602476968
12.413701657458564,-0.2968365747223605
12.447071823204421,-0.34481304058719997
12.480441988950277,-0.37274837008070366
12.513812154696133,-0.361531689853275
12.54718232044199,-0.293961797044188
12.580552486187846,-0.16190038961817255
12.613922651933702,0.027780252160096185
12.64729281767956,0.250828217455617
12.680662983425416,0.46840993800895797
12.714033149171271,0.6352608461590186
12.747403314917127,0.7116465857413212
12.780773480662985,0.6759405676904204
12.81414364640884,0.5335859103329696
12.847513812154697,0.31843489016570625
12.880883977900554,0.08442069614954743
12.91425414364641,-0.11098678142922547
12.947624309392266,-0.2262471301546819
12.980994475138122,-0.2505295948304593
13.01436464088398,-0.20703812694983117
13.047734806629835,-0.14241031765865622
13.081104972375691,-0.1059335665529742
13.114475138121549,-0.12752260231457968
13.147845303867404,-0.20468424188463086
13.18121546961326,-0.30488091561207864
13.214585635359118,-0.3823168678634732
13.247955801104974,-0.4008969179875369
13.28132596685083,-0.35186103308466793
13.314696132596685,-0.2572646971055765
13.348066298342543,-0.15774871501958712
13.381436464088399,-0.0911063559623853
13.414806629834255,-0.07279107569764516
13.448176795580112,-0.08835564395571006
13.481546961325968,-0.10155157775754864
13.514917127071824,-0.07372301291763828
13.548287292817681,0.01564145787221874
13.581657458563537,0.15784074624011454
13.615027624309393,0.3190012358030825
13.648397790055249,0.45688632070120905
13.681767955801106,0.5413846567636373
13.715138121546962,0.567666179702689
13.748508287292818,0.5550464334279832
13.781878453038676,0.5325343194293124
13.815248618784532,0.519523242767673
13.848618784530387,0.5128687220839404
13.881988950276245,0.48795935697602216
13.9153591160221,0.41329917286212
13.948729281767957,0.27024894672218835
13.982099447513813,0.06658125826537264
14.01546961325967,-0.16384436070908495
14.048839779005526,-0.37496689024445434
14.082209944751382,-0.5281647840442536
14.11558011049724,-0.6072411050261594
14.148950276243095,-0.6217401889755205
14.182320441988951,-0.5984427302845294
14.215690607734807,-0.5669258491869535
14.249060773480664,-0.5470653006376179
14.28243093922652,-0.5438660942857656
14.315801104972376,-0.5501838915690268
14.349171270718234,-0.5537867444894423
14.38254143646409,-0.5438790186803946
14.415911602209945,-0.5138266175945422
14.449281767955803,-0.45991950768874706
14.482651933701659,-0.378578814324864
14.516022099447515,-0.26506805172381714
14.54939226519337,-0.11536390187265773
14.582762430939228,0.06957687331502772
14.616132596685084,0.2798044385897879
14.64950276243094,0.4954779547206921
14.682872928176797,0.6903919272292995
14.716243093922653,0.8388885070271568
14.749613259668509,0.9233394683474756
14.782983425414367,0.9390865243113146
14.816353591160222,0.8949171114463403
14.849723756906078,0.8090761046342944
14.883093922651934,0.7025257575062293
14.916464088397792,0.5920277369597639
14.949834254143648,0.4854790347830613
14.983204419889503,0.3809962410551175
15.016574585635361,0.2698786074801119
15.049944751381217,0.14220951744167348
15.083314917127073,-0.0070902253799145784
15.116685082872928,-0.1741158109183985
15.150055248618786,-0.3453861176852283
15.183425414364642,-0.5010913744201634
15.216795580110498,-0.6209650412961011
15.250165745856355,-0.690523503909487
15.283535911602211,-0.7052906914346517
15.316906077348067,-0.6715008796765481
15.350276243093925,-0.6032710697434129
15.38364640883978,-0.5176460590936758
15.417016574585636,-0.42959036035552145
15.450386740331492,-0.3487064571953193
15.48375690607735,-0.27848091481842335
15.517127071823205,-0.21773860790201421
15.550497237569061,-0.1631903279006996
15.583867403314919,-0.11172806602238015
15.617237569060775,-0.061475488774909416
15.65060773480663,-0.01138252520844143
15.683977900552488,0.039965532480662085
15.717348066298344,0.09511505809510684
15.7507182320442,0.1570443274310109
15.784088397790056,0.22685761432509505
15.817458563535913,0.3009559393450885
15.85082872928177,0.369580527025926
15.884198895027625,0.4183719919562859
15.917569060773483,0.43313558606367253
15.950939226519338,0.4060014852830928
15.984309392265194,0.3398409044256469
16.01767955801105,0.24820722813164783
16.051049723756908,0.15028831631787937
16.084419889502765,0.06320145216625342
16.11779005524862,-0.004335833075443357
16.151160220994477,-0.05354533607640458
16.18453038674033,-0.09161212811833518
16.21790055248619,-0.12466775549170604
16.251270718232046,-0.1520362641500206
16.2846408839779,-0.16541607268626235
16.318011049723758,-0.1538916344355146
16.351381215469615,-0.11224351295506109
16.38475138121547,-0.047821943731326214
16.418121546961327,0.018482842820924727
16.451491712707185,0.058913861900050504
16.48486187845304,0.0509971371156915
16.518232044198896,-0.010170544709910322
16.551602209944754,-0.10563739007595711
16.584972375690608,-0.19632443627456625
16.618342541436466,-0.23649855546744153
16.651712707182323,-0.1921517795631332
16.685082872928177,-0.056690458479136285
16.718453038674035,0.1431801424896215
16.751823204419892,0.3547296979119215
16.785193370165747,0.5174182671471552
16.818563535911604,0.5848770486780325
16.851933701657458,0.5414717693789527
16.885303867403316,0.40636395120776403
16.918674033149173,0.2234586363345152
16.952044198895027,0.04202436634656945
16.985414364640885,-0.10299224358225306
17.018784530386743,-0.20201502864176626
17.052154696132597,-0.26874100941186807
17.085524861878454,-0.32698458915225004
17.118895027624312,-0.39397432527424736
17.152265193370166,-0.46910066599821976
17.185635359116024,-0.5339171645706079
17.21900552486188,-0.5630062490446902
17.252375690607735,-0.5394016092009201
17.285745856353593,-0.4657592549875358
17.31911602209945,-0.3647519023741563
17.352486187845304,-0.2680644645276811
