Frequency (Hz),Amplitude
0.0,1.6857723463429104
0.019801980198019802,1.6853308610609137
0.039603960396039604,1.6840074808396737
0.0594059405940594,1.681805433937131
0.07920792079207921,1.6787301053950074
0.09900990099009901,1.6747890439573057
0.1188118811881188,1.6699919717552287
0.13861386138613863,1.6643507967535704
0.15841584158415842,1.6578796279464496
0.1782178217821782,1.6505947932773724
0.19801980198019803,1.6425148602403052
0.21782178217821782,1.6336606590921834
0.2376237623762376,1.6240553085708898
0.25742574257425743,1.613724243965032
0.27722772277227725,1.602695247319886
0.297029702970297,1.5909984794844265
0.31683168316831684,1.5786665136058646
0.33663366336633666,1.5657343695550472
0.3564356435643564,1.5522395486166969
0.37623762376237624,1.538222067597159
0.39603960396039606,1.5237244912863104
0.4158415841584158,1.5087919619544685
0.43564356435643564,1.4934722242666285
0.45544554455445546,1.4778156436521062
0.4752475247524752,1.4618752157759978
0.495049504950495,1.4457065643211549
0.5148514851485149,1.4293679238085277
0.5346534653465347,1.4129201036691472
0.5544554455445545,1.3964264292454134
0.5742574257425742,1.3799526548647456
0.594059405940594,1.3635668436248638
0.613861386138614,1.347339208097371
0.6336633663366337,1.3313419058477842
0.6534653465346534,1.3156487835483701
0.6732673267326733,1.300335063602121
0.6930693069306931,1.285476967683635
0.7128712871287128,1.2711512725235325
0.7326732673267327,1.2574347946981885
0.7524752475247525,1.2444038032026978
0.7722772277227723,1.2321333612155216
0.7920792079207921,1.2206966016985947
0.8118811881188118,1.2101639452399
0.8316831683168316,1.20060227268699
0.8514851485148516,1.1920740694027816
0.8712871287128713,1.1846365620849684
0.891089108910891,1.1783408726478597
0.9108910891089109,1.1732312162633736
0.9306930693069307,1.1693441719045834
0.9504950495049505,1.1667080533149592
0.9702970297029703,1.1653424060535167
0.99009900990099,1.1652576521339864
1.00990099009901,1.1664548979801581
1.0297029702970297,1.1689259143534152
1.0495049504950495,1.1726532891246986
1.0693069306930694,1.1776107459077318
1.0891089108910892,1.1837636142981462
1.108910891089109,1.1910694313533903
1.1287128712871286,1.1994786494325846
1.1485148514851484,1.2089354228334679
1.1683168316831685,1.2193784448507683
1.188118811881188,1.2307418077861925
1.2079207920792079,1.2429558607725062
1.227722772277228,1.2559480436533954
1.2475247524752475,1.2696436791784937
1.2673267326732673,1.28396671004138
1.2871287128712872,1.2988403714769077
1.3069306930693068,1.314187793989885
1.3267326732673268,1.3299325341407542
1.3465346534653466,1.3459990340751613
1.3663366336633662,1.3623130126296323
1.3861386138613863,1.3788017924007605
1.405940594059406,1.3953945681907343
1.4257425742574257,1.412022622817041
1.4455445544554455,1.428619496484591
1.4653465346534653,1.4451211158492243
1.4851485148514851,1.461465888629421
1.504950495049505,1.4775947692145233
1.5247524752475248,1.4934513002278715
1.5445544554455446,1.5089816344740525
1.5643564356435644,1.5241345411643188
1.5841584158415842,1.5388613997947926
1.6039603960396038,1.553116184564989
1.6237623762376237,1.5668554417777396
1.6435643564356437,1.5800382622608804
1.6633663366336633,1.5926262504977486
1.683168316831683,1.6045834918458257
1.7029702970297032,1.6158765189591597
1.7227722772277227,1.626474278305956
1.7425742574257426,1.6363480974853442
1.7623762376237624,1.6454716538912495
1.782178217821782,1.6538209451437313
1.801980198019802,1.66137426160477
1.8217821782178218,1.6681121612124845
1.8415841584158414,1.6740174468029225
1.8613861386138615,1.6790751460381237
1.881188118811881,1.683272494021066
1.900990099009901,1.68659891865036
1.920792079207921,1.689046028747892
1.9405940594059405,1.690607604979757
1.9603960396039604,1.6912795935829255
1.98019801980198,1.6910601029064443
2.0,1.6899494027749489
2.01980198019802,1.6879499266829676
2.0396039603960396,1.6850662768302154
2.0594059405940595,1.6813052320094444
2.0792079207920793,1.6766757583587355
2.099009900990099,1.6711890229884026
2.118811881188119,1.6648584104874316
2.1386138613861387,1.657699542305041
2.1584158415841586,1.649730298987638
2.1782178217821784,1.64097084522847
2.1980198019801978,1.6314436576554296
2.217821782178218,1.6211735552390159
2.237623762376238,1.6101877321452625
2.257425742574257,1.5985157927844886
2.2772277227722775,1.5861897887133243
2.297029702970297,1.5732442569301563
2.3168316831683167,1.5597162589599054
2.336633663366337,1.5456454199479286
2.3564356435643563,1.53107396677055
2.376237623762376,1.5160467639165587
2.3960396039603964,1.500611345595913
2.4158415841584158,1.4848179421845917
2.4356435643564356,1.468719498715629
2.455445544554456,1.4523716826756077
2.4752475247524752,1.4358328778644158
2.495049504950495,1.4191641605313186
2.514851485148515,1.4024292534233762
2.5346534653465347,1.3856944527924104
2.5544554455445545,1.3690285228324872
2.5742574257425743,1.3525025515000302
2.594059405940594,1.3361897612553906
2.6138613861386135,1.3201652680229135
2.633663366336634,1.3045057816747574
2.6534653465346536,1.28928924169117
2.673267326732673,1.2745943824334538
2.6930693069306932,1.2605002237799652
2.712871287128713,1.2470854848029738
2.7326732673267324,1.234427920761138
2.7524752475247527,1.2226035869581746
2.7722772277227725,1.2116860369196312
2.792079207920792,1.201745466731174
2.811881188118812,1.192847822035807
2.8316831683168315,1.1850538887817559
2.8514851485148514,1.1784183929469103
2.8712871287128716,1.172989137689875
2.891089108910891,1.168806208243198
2.910891089108911,1.1659012749861435
2.9306930693069306,1.164297023255675
2.9504950495049505,1.1640067345061191
2.9702970297029703,1.165034037565386
2.99009900990099,1.1673728413408668
3.00990099009901,1.1710074519781193
3.0297029702970297,1.1759128688727674
3.0495049504950495,1.1820552458162417
3.0693069306930694,1.1893924965905711
3.089108910891089,1.1978750190362297
3.108910891089109,1.2074465083120043
3.128712871287129,1.218044828827408
3.148514851485148,1.2296029150229764
3.1683168316831685,1.2420496734978783
3.1881188118811883,1.255310862526011
3.2079207920792077,1.2693099293073369
3.227722772277228,1.2839687899336174
3.2475247524752473,1.2992085416295758
3.267326732673267,1.3149501010704738
3.2871287128712874,1.331114766278006
3.3069306930693068,1.3476247026505128
3.3267326732673266,1.364403356059733
3.346534653465347,1.3813757976702425
3.366336633663366,1.3984690062754455
3.386138613861386,1.415612094582276
3.4059405940594063,1.4327364861122809
3.4257425742574257,1.4497760493125484
3.4455445544554455,1.4666671951733368
3.4653465346534653,1.483348944202521
3.485148514851485,1.4997629680720095
3.504950495049505,1.515853610674615
3.5247524752475248,1.5315678927476373
3.5445544554455446,1.5468555036557257
3.564356435643564,1.5616687833984328
3.5841584158415842,1.5759626974256993
3.603960396039604,1.5896948064134326
3.6237623762376234,1.6028252327717036
3.6435643564356437,1.6153166253292084
3.6633663366336635,1.6271341233557717
3.683168316831683,1.6382453208470058
3.702970297029703,1.6486202317959255
3.722772277227723,1.658231257012186
3.7425742574257423,1.6670531529153603
3.762376237623762,1.6750630026203663
3.7821782178217824,1.6822401895473476
3.801980198019802,1.6885663737208876
3.8217821782178216,1.6940254708721905
3.841584158415842,1.698603634419291
3.8613861386138613,1.702289240373103
3.881188118811881,1.7050728751980748
3.9009900990099013,1.706947326644893
3.9207920792079207,1.7079075775665407
3.9405940594059405,1.7079508027273262
3.96039603960396,1.7070763686160964
3.98019801980198,1.7052858362784378
4.0,1.702582967187381
4.01980198019802,1.6989737321773033
4.03960396039604,1.6944663234699513
4.0594059405940595,1.6890711698240626
4.079207920792079,1.6828009548400573
4.099009900990099,1.6756706384470874
4.118811881188119,1.6676974815903656
4.138613861386139,1.6589010741203727
4.158415841584159,1.6493033658607008
4.178217821782178,1.6389287007953122
4.198019801980198,1.6278038542668982
4.217821782178218,1.6159580730125325
4.237623762376238,1.6034231177777705
4.257425742574258,1.5902333081414397
4.2772277227722775,1.5764255690469917
4.297029702970297,1.5620394783666065
4.316831683168317,1.5471173146166153
4.336633663366336,1.531704103691431
4.356435643564357,1.5158476631818467
4.376237623762377,1.4995986424876981
4.3960396039603955,1.4830105565187908
4.415841584158416,1.466139810299051
4.435643564356436,1.4490457112462627
4.455445544554455,1.4317904652959057
4.475247524752476,1.414439152382075
4.4950495049504955,1.397059676095163
4.514851485148514,1.379722681632037
4.534653465346535,1.3625014354758995
4.554455445544555,1.3454716596414606
4.574257425742574,1.3287113128653074
4.594059405940594,1.3123003108951714
4.613861386138614,1.2963201781376092
4.633663366336633,1.2808536234754362
4.653465346534653,1.2659840341844015
4.673267326732674,1.2517948836787092
4.693069306930693,1.2383690513894192
4.712871287128713,1.2257880564808674
4.732673267326733,1.214131211320066
4.752475247524752,1.2034747055279205
4.772277227722772,1.1938906368400326
4.792079207920793,1.1854460105515618
4.811881188118812,1.1782017345651508
4.8316831683168315,1.1722116414673303
4.851485148514852,1.1675215720629508
4.871287128712871,1.1641685558743302
4.891089108910891,1.162180122868504
4.910891089108912,1.1615737769245646
4.930693069306931,1.162356655379086
4.9504950495049505,1.1645253907667148
4.97029702970297,1.1680661812473927
4.99009900990099,1.1729550660145487
5.00990099009901,1.1791583921221496
5.02970297029703,1.1866334505166867
5.0495049504950495,1.195329252311159
5.069306930693069,1.2051874119378385
5.089108910891089,1.2161431019229982
5.108910891089109,1.2281260445166728
5.128712871287129,1.2410615079362168
5.148514851485149,1.2548712790466874
5.1683168316831685,1.2694745893440893
5.188118811881188,1.284788976583753
5.207920792079208,1.3007310698328807
5.227722772277227,1.3172172907568973
5.247524752475248,1.3341644683293679
5.267326732673268,1.351490367749349
5.2871287128712865,1.3691141371239088
5.306930693069307,1.3869566774605757
5.326732673267327,1.4049409427992503
5.346534653465346,1.4229921780056396
5.366336633663367,1.4410381019665703
5.3861386138613865,1.459009043789073
5.405940594059405,1.4768380392117757
5.425742574257426,1.4944608938796395
5.445544554455446,1.5118162194814235
5.465346534653465,1.528845448059468
5.485148514851486,1.5454928291136447
5.504950495049505,1.56170541346357
5.524752475247524,1.5774330272234054
5.544554455445545,1.5926282386917339
5.564356435643565,1.607246320469641
5.584158415841584,1.6212452086928666
5.603960396039604,1.6345854608972006
5.623762376237624,1.64723021372466
5.643564356435643,1.6591451414169172
5.663366336633663,1.670298415826711
5.683168316831684,1.6806606685006658
5.702970297029703,1.6902049552444636
5.7227722772277225,1.6989067234671844
5.742574257425743,1.7067437825124108
5.762376237623762,1.7136962771153332
5.782178217821782,1.7197466640732346
5.801980198019803,1.724879692180141
5.821782178217822,1.7290823854502961
5.841584158415841,1.7323440296398769
5.861386138613861,1.7346561620675511
5.881188118811881,1.7360125647324005
5.900990099009901,1.7364092607305484
5.920792079207921,1.7358445139775087
5.9405940594059405,1.7343188322523464
5.96039603960396,1.7318349735896117
5.98019801980198,1.7283979560563303
6.0,1.7240150709616124
6.01980198019802,1.7186958995566732
6.03960396039604,1.7124523332899175
6.0594059405940595,1.7052985976868265
6.079207920792079,1.6972512799234076
6.099009900990099,1.688329360156623
6.118811881188119,1.6785542466604428
6.138613861386139,1.6679498147930611
6.158415841584159,1.6565424497838237
6.178217821782178,1.6443610932769348
6.198019801980198,1.6314372934979142
6.217821782178218,1.6178052588146496
6.237623762376237,1.6035019143421758
6.257425742574258,1.588566961084295
6.2772277227722775,1.5730429369081556
6.297029702970296,1.5569752784042337
6.316831683168317,1.5404123823851672
6.336633663366337,1.5234056654146702
6.356435643564356,1.5060096193254955
6.376237623762377,1.4882818601743601
6.396039603960396,1.4702831674878925
6.415841584158415,1.4520775099739733
6.435643564356436,1.4337320531095237
6.455445544554456,1.4153171431784148
6.475247524752475,1.3969062614409717
6.495049504950495,1.378575941200701
6.514851485148515,1.3604056396443
6.534653465346534,1.3424775555348325
6.554455445544554,1.3248763832280537
6.574257425742575,1.3076889931736317
6.594059405940594,1.291004029196179
6.6138613861386135,1.274911413584135
6.633663366336634,1.259501752513492
6.653465346534653,1.2448656367559898
6.673267326732673,1.2310928360907507
6.693069306930694,1.2182713904137552
6.712871287128713,1.2064866061777277
6.732673267326732,1.195819973318623
6.752475247524753,1.1863480248921696
6.772277227722772,1.1781411687442709
6.792079207920792,1.1712625270082497
6.811881188118813,1.1657668243000825
6.8316831683168315,1.1616993684000532
6.851485148514851,1.1590951673063417
6.871287128712871,1.1579782233967173
6.891089108910891,1.1583610389571148
6.910891089108911,1.160244357855348
6.930693069306931,1.1636171563830744
6.9504950495049505,1.1684568833131066
6.97029702970297,1.174729936253581
6.99009900990099,1.1823923496557458
7.00990099009901,1.1913906603937163
7.02970297029703,1.2016629103990684
7.0495049504950495,1.2131397427172115
7.069306930693069,1.2257455474631724
7.089108910891089,1.2393996170632635
7.108910891089109,1.254017275214878
7.128712871287128,1.2695109504146742
7.148514851485149,1.2857911719412916
7.1683168316831685,1.3027674731767676
7.188118811881187,1.3203491936065086
7.207920792079208,1.3384461764168043
7.227722772277228,1.3569693631355484
7.247524752475247,1.3758312901972178
7.267326732673268,1.3949464947147108
7.287128712871287,1.4142318382313095
7.306930693069306,1.4336067579608935
7.326732673267327,1.4529934551678945
7.346534653465347,1.4723170300457298
7.366336633663366,1.4915055718611903
7.3861386138613865,1.510490212357178
7.405940594059406,1.5292051495364662
7.425742574257425,1.5475876480538433
7.445544554455446,1.5655780215694222
7.465346534653466,1.5831196015951419
7.485148514851485,1.6001586966171846
7.504950495049505,1.6166445446096707
7.524752475247524,1.6325292614709677
7.544554455445544,1.6477677874119352
7.564356435643565,1.662317832899236
7.584158415841584,1.6761398254010371
7.603960396039604,1.6891968578873466
7.623762376237624,1.701454639797522
7.643564356435643,1.7128814509935522
7.663366336633663,1.7234480990639849
7.683168316831684,1.7331278802233834
7.702970297029703,1.7418965439597043
7.7227722772277225,1.7497322615135322
7.742574257425743,1.7566155982230842
7.762376237623762,1.7625294897352726
7.782178217821782,1.7674592220616017
7.801980198019803,1.7713924154469771
7.821782178217822,1.7743190120168744
7.841584158415841,1.7762312671721072
7.861386138613862,1.7771237447096735
7.881188118811881,1.7769933156612183
7.900990099009901,1.7758391608564899
7.92079207920792,1.7736627772374425
7.9405940594059405,1.7704679879677367
7.96039603960396,1.7662609564022327
7.980198019801979,1.761050204000357
8.0,1.7548466322855223
8.01980198019802,1.7476635489686354
8.03960396039604,1.7395166983664556
8.05940594059406,1.7304242962537935
8.07920792079208,1.7204070692898958
8.099009900990099,1.7094882991532832
8.118811881188119,1.6976938715016139
8.138613861386139,1.6850523298423676
8.158415841584159,1.6715949343515124
8.178217821782178,1.657355725607057
8.198019801980198,1.6423715931068525
8.217821782178218,1.626682348309011
8.237623762376238,1.6103308017613471
8.257425742574258,1.5933628436645026
8.277227722772277,1.5758275269325832
8.297029702970297,1.5577771514634062
8.316831683168317,1.539267347896953
8.336633663366337,1.5203571586121127
8.356435643564357,1.5011091130771155
8.376237623762377,1.481589293917018
8.396039603960396,1.4618673891855007
8.415841584158416,1.442016725325751
8.435643564356436,1.422114274184079
8.455445544554456,1.4022406262194282
8.475247524752476,1.3824799207702527
8.495049504950495,1.362919722958862
8.514851485148515,1.3436508356225303
8.534653465346535,1.324767033687154
8.554455445544555,1.306364707806991
8.574257425742575,1.2885424040864115
8.594059405940595,1.2714002475127826
8.613861386138613,1.2550392386165858
8.633663366336634,1.2395604160812432
8.653465346534654,1.2250638827481504
8.673267326732672,1.2116476988012914
8.693069306930694,1.1994066538111194
8.712871287128714,1.1884309384941099
8.732673267326732,1.178804746967788
8.752475247524753,1.17060485014408
8.772277227722773,1.1638991896684416
8.792079207920791,1.1587455483036455
8.811881188118813,1.1551903557277403
8.831683168316832,1.1532676874416006
8.85148514851485,1.1529985083706988
8.871287128712872,1.1543902018964116
8.891089108910892,1.1574364102216506
8.91089108910891,1.1621171945200608
8.930693069306932,1.168399505008716
8.950495049504951,1.176237933828284
8.97029702970297,1.1855757091466712
8.990099009900991,1.196345878514359
9.00990099009901,1.208472623872506
9.029702970297029,1.2218726497742551
9.04950495049505,1.2364565897784021
9.06930693069307,1.2521303826601677
9.089108910891088,1.2687965789039954
9.10891089108911,1.2863555477418718
9.12871287128713,1.3047065647704301
9.148514851485148,1.3237487691499004
9.16831683168317,1.3433819870573036
9.188118811881187,1.3635074241874292
9.207920792079207,1.38402823462801
9.227722772277229,1.404849976489286
9.247524752475247,1.4258809664439023
9.267326732673267,1.4470325460739755
9.287128712871288,1.4682192728763135
9.306930693069306,1.4893590481736736
9.326732673267326,1.5103731932155942
9.346534653465348,1.5311864835846167
9.366336633663366,1.5517271507735764
9.386138613861386,1.5719268585533475
9.405940594059407,1.5917206605662475
9.425742574257425,1.6110469444935467
9.445544554455445,1.6298473671755427
9.465346534653467,1.6480667842147962
9.485148514851485,1.6656531768661718
9.504950495049505,1.6825575784035707
9.524752475247526,1.6987340016427024
9.544554455445544,1.714139368880062
9.564356435643564,1.7287334451688587
9.584158415841586,1.742478775580969
9.603960396039604,1.7553406268908873
9.623762376237623,1.7672869339511623
9.643564356435645,1.778288250904042
9.663366336633663,1.78831770728024
9.683168316831683,1.7973509689699265
9.702970297029704,1.8053662040060192
9.722772277227723,1.8123440530723738
9.742574257425742,1.8182676046360833
9.762376237623764,1.8231223746003808
9.782178217821782,1.8268962903808856
9.801980198019802,1.829579679321169
9.821782178217823,1.831165261381886
9.841584158415841,1.8316481460605878
9.861386138613861,1.8310258335252463
9.881188118811881,1.829298219972846
9.900990099009901,1.826467607254494
9.92079207920792,1.8225387168397562
9.94059405940594,1.8175187082246826
9.96039603960396,1.811417201919348
9.98019801980198,1.804246307181881
10.0,1.7960206546945683
10.01980198019802,1.7867574344042227
10.03960396039604,1.7764764387711254
10.05940594059406,1.765200111687234
10.07920792079208,1.7529536033330761
10.099009900990099,1.7397648312405882
10.118811881188119,1.725664547813106
10.138613861386139,1.7106864145193328
10.158415841584159,1.6948670829199461
10.178217821782178,1.678246282597104
10.198019801980198,1.6608669159301377
10.217821782178218,1.6427751594857198
10.237623762376238,1.6240205715555291
10.257425742574258,1.6046562050654736
10.277227722772277,1.5847387246816402
10.297029702970297,1.564328526431332
10.316831683168317,1.543489857522558
10.336633663366337,1.5222909332619337
10.356435643564357,1.500804047017735
10.376237623762377,1.4791056680337862
10.396039603960396,1.4572765205586182
10.415841584158416,1.4354016362089985
10.435643564356436,1.413570369752038
10.455445544554454,1.3918763666019633
10.475247524752476,1.3704174683575707
10.495049504950495,1.3492955407697873
10.514851485148514,1.3286162067969218
10.534653465346535,1.308488466114615
10.554455445544555,1.2890241819050465
10.574257425742573,1.2703374163278847
10.594059405940595,1.2525435981939002
10.613861386138614,1.2357585104471818
10.633663366336632,1.2200970914865863
10.653465346534654,1.205672053347442
10.673267326732674,1.192592331295761
10.693069306930692,1.1809613930690233
