Time (s),Filtered Signal
0.0,-0.04065702861484303
0.03337028824833703,-0.35611358619661826
0.06674057649667406,-0.5650782031815086
0.10011086474501109,-0.5972297402033553
0.13348115299334812,-0.43839181531042254
0.16685144124168516,-0.1286491847751397
0.20022172949002218,0.25860812432527275
0.2335920177383592,0.6450944369392703
0.26696230598669624,0.9703082726675343
0.3003325942350333,1.2005154093376251
0.3337028824833703,1.3244720754362604
0.3670731707317073,1.342994708817637
0.40044345898004435,1.261028488800119
0.4338137472283814,1.0871257373198682
0.4671840354767184,0.8390271972161762
0.5005543237250555,0.5492829413894262
0.5339246119733925,0.2643288785697507
0.5672949002217295,0.03428959103624043
0.6006651884700666,-0.10338255815075816
0.6340354767184035,-0.1389255313818412
0.6674057649667406,-0.09600568445052977
0.7007760532150776,-0.024101177941529904
0.7341463414634146,0.02030333497384608
0.7675166297117517,-0.003978016951590311
0.8008869179600887,-0.10677180987811694
0.8342572062084257,-0.26393229746307023
0.8676274944567628,-0.42927432120549586
0.9009977827050998,-0.555327415227295
0.9343680709534368,-0.6130582116077434
0.9677383592017739,-0.6015143521403732
1.001108647450111,-0.5437523464003645
1.0344789356984478,-0.4724851436144348
1.067849223946785,-0.4137075857779686
1.101219512195122,-0.37661194217360855
1.134589800443459,-0.3537623860032742
1.167960088691796,-0.32960329987488335
1.2013303769401331,-0.29133806591128214
1.23470066518847,-0.2359740770413636
1.268070953436807,-0.17047499197277674
1.3014412416851442,-0.1062896105433541
1.3348115299334813,-0.05248685909210701
1.3681818181818182,-0.01184662790535946
1.4015521064301553,0.018174009598523593
1.4349223946784924,0.04095534487861154
1.4682926829268292,0.05617219425693984
1.5016629711751663,0.05845311807514158
1.5350332594235034,0.04030614522401003
1.5684035476718403,-0.002363763904724603
1.6017738359201774,-0.06546450329245604
1.6351441241685145,-0.13563818426841034
1.6685144124168514,-0.1938500457448985
1.7018847006651885,-0.22207097618228452
1.7352549889135256,-0.20984648585909974
1.7686252771618625,-0.15766211898763094
1.8019955654101996,-0.07574911878053237
1.8353658536585367,0.020701648745814753
1.8687361419068735,0.11734144897007871
1.9021064301552106,0.20481791993342519
1.9354767184035477,0.27990953627116927
1.9688470066518848,0.344022914967312
2.002217294900222,0.4006028239077102
2.035587583148559,0.4530298059038872
2.0689578713968957,0.5036654936694803
2.102328159645233,0.5536081182577759
2.13569844789357,0.602243196725781
2.1690687361419068,0.646136549375027
2.202439024390244,0.6778301605373817
2.235809312638581,0.6858307359205852
2.269179600886918,0.6568475526749661
2.302549889135255,0.5801382543718336
2.335920177383592,0.45237982680629724
2.369290465631929,0.28076995233785884
2.4026607538802662,0.08263817436633897
2.436031042128603,-0.1185591174133141
2.46940133037694,-0.2993097378282395
2.5027716186252773,-0.44185344894333056
2.536141906873614,-0.5378582395872057
2.569512195121951,-0.5893030080499705
2.6028824833702884,-0.6069539863405009
2.6362527716186253,-0.6071378423631667
2.6696230598669626,-0.607279172315937
2.7029933481152995,-0.6205967540925683
2.7363636363636363,-0.6509493898403171
2.7697339246119737,-0.689774014662956
2.8031042128603105,-0.7173304517596614
2.8364745011086474,-0.7091618393228183
2.8698447893569847,-0.6460046508886622
2.9032150776053216,-0.5228524267792161
2.9365853658536585,-0.3524086091970573
2.969955654101996,-0.1606059077893677
3.0033259423503327,0.023893976959972762
3.0366962305986696,0.18084376351891837
3.070066518847007,0.3044273020937488
3.1034368070953438,0.4013937196802733
3.1368070953436806,0.4830537297070078
3.170177383592018,0.5560585982548971
3.203547671840355,0.6169897629311272
3.2369179600886917,0.6531790437207241
3.270288248337029,0.6487460478582662
3.303658536585366,0.5925320439839216
3.337028824833703,0.48428011280396527
3.37039911308204,0.33666980991221607
3.403769401330377,0.17268244418353407
3.437139689578714,0.019425649497974068
3.470509977827051,-0.09939237912408008
3.503880266075388,-0.16977911765055204
3.537250554323725,-0.1904138518925141
3.5706208425720622,-0.17132181912931455
3.603991130820399,-0.12909472243698278
3.637361419068736,-0.08098143614675335
3.6707317073170733,-0.040508256423942575
3.70410199556541,-0.016115585108371452
3.737472283813747,-0.012267326505257964
3.7708425720620844,-0.030953739302387623
3.8042128603104213,-0.07159038264811839
3.8375831485587586,-0.12902098068357173
3.8709534368070955,-0.19144364097778843
3.9043237250554323,-0.24097374469588576
3.9376940133037697,-0.2583634501865986
3.9710643015521065,-0.2306813190692014
4.004434589800444,-0.1582340529162215
4.037804878048781,-0.05648421567602102
4.071175166297118,0.04913576605129405
4.1045454545454545,0.13378762578677328
4.137915742793791,0.1841274864342437
4.171286031042128,0.2037805082190145
4.204656319290466,0.210167649163576
4.238026607538803,0.22400462564858797
4.27139689578714,0.2568386280692457
4.304767184035477,0.3032396809280175
4.3381374722838135,0.3419618595421509
4.371507760532151,0.3457503416851528
4.404878048780488,0.2949852692564536
4.438248337028825,0.18838713807573346
4.471618625277162,0.045509811770220045
4.504988913525499,-0.10019359272493818
4.538359201773836,-0.21448725577738542
4.571729490022173,-0.27571546596081525
4.60509977827051,-0.2826383626652445
4.638470066518847,-0.25362879192098925
4.671840354767184,-0.21789914973663063
4.705210643015521,-0.20269840025204455
4.738580931263858,-0.22194969231193282
4.771951219512196,-0.27107146521847414
4.8053215077605325,-0.33002110226315823
4.838691796008869,-0.37296035620957435
4.872062084257206,-0.3799265072659324
4.905432372505543,-0.34499975717103754
4.93880266075388,-0.2773035252223246
4.972172949002218,-0.19494062378894525
5.005543237250555,-0.11563855381631045
5.0389135254988915,-0.04933961111706118
5.072283813747228,0.0036420056490710675
5.105654101995565,0.048937577399113995
5.139024390243902,0.09232497966718752
5.17239467849224,0.1361245086023571
5.205764966740577,0.17999155565956423
5.239135254988914,0.22468674933484922
5.2725055432372505,0.2748616088074165
5.305875831485587,0.3373652714323591
5.339246119733925,0.4149088065112987
5.372616407982262,0.4988488024274672
5.405986696230599,0.566493569450102
5.439356984478936,0.5862990866097525
5.472727272727273,0.5297864331691855
5.5060975609756095,0.3849009239353343
5.539467849223947,0.1643977488697253
5.572838137472284,-0.09484250893195184
5.606208425720621,-0.3415205778467363
5.639578713968958,-0.5249532519635024
5.672949002217295,-0.6100867783411776
5.706319290465632,-0.5876011641516389
5.7396895787139695,-0.47605691581462106
5.773059866962306,-0.3154357800746465
5.806430155210643,-0.15387403276081418
5.83980044345898,-0.03152999067740939
5.873170731707317,0.033118931686311054
5.906541019955654,0.04935646868962166
5.939911308203992,0.049554286130339735
5.9732815964523285,0.07445014856276795
6.006651884700665,0.15349385770621715
6.040022172949002,0.2884034048195041
6.073392461197339,0.4478626216008508
6.106762749445676,0.5772277758907871
6.140133037694014,0.6205072565174432
6.173503325942351,0.5456598195290855
6.2068736141906875,0.36162241195414024
6.240243902439024,0.11821176190760416
6.273614190687361,-0.1125981518444384
6.306984478935698,-0.26669807355382436
6.340354767184036,-0.31578488067648564
6.373725055432373,-0.2798352140305695
6.40709534368071,-0.21731280857689877
6.4404656319290465,-0.19672452573063018
6.473835920177383,-0.26240670584420883
6.507206208425721,-0.4108054959526606
6.540576496674058,-0.5890210906383478
6.573946784922395,-0.7169566000676055
6.607317073170732,-0.7230734784485198
6.640687361419069,-0.5771433133168056
6.674057649667406,-0.304874280933097
6.707427937915743,0.021836235875915426
6.74079822616408,0.3135782787811253
6.774168514412417,0.49711646178103136
6.807538802660754,0.5390930511314505
6.840909090909091,0.4510754752034742
6.874279379157428,0.2770186374905687
6.9076496674057655,0.07196538087698826
6.941019955654102,-0.11709736745692023
6.974390243902439,-0.26099764431303446
7.007760532150776,-0.3479878388016673
7.041130820399113,-0.3776509189870989
7.07450110864745,-0.35488418364463237
7.107871396895788,-0.28730864736828904
7.1412416851441245,-0.18562796193255196
7.174611973392461,-0.06405657405375327
7.207982261640798,0.061669782066772594
7.241352549889135,0.1787251552465849
7.274722838137472,0.2815926123054834
7.30809312638581,0.3732624425160577
7.341463414634147,0.46165460487443505
7.3748337028824835,0.5525498181622606
7.40820399113082,0.6426489096829665
7.441574279379157,0.7167632113067772
7.474944567627494,0.7513150709090489
7.508314855875832,0.7232733193582866
7.541685144124169,0.6209258060673553
7.575055432372506,0.45177934449200124
7.6084257206208425,0.2438133674414549
7.641796008869179,0.038847061324709366
7.675166297117517,-0.12011325607979241
7.708536585365854,-0.20318609200065738
7.741906873614191,-0.20431165460532374
7.775277161862528,-0.14413938011588348
7.808647450110865,-0.06365359750655843
7.842017738359202,-0.01049113807117022
7.875388026607539,-0.022698685636300803
7.908758314855876,-0.11580238018754001
7.942128603104213,-0.2780401049691155
7.97549889135255,-0.4756659797460859
8.008869179600888,-0.6662924738393039
8.042239467849225,-0.8147635016025085
8.075609756097561,-0.904685572697591
8.108980044345898,-0.9404972408282671
8.142350332594235,-0.9394040707960172
8.175720620842572,-0.9176175995316731
8.209090909090909,-0.8783886793318403
8.242461197339246,-0.8084834858376865
8.275831485587583,-0.6852869416328126
8.30920177383592,-0.4909803530348938
8.342572062084257,-0.22632550145091793
8.375942350332595,0.08342402880831085
8.409312638580932,0.39411612631683335
8.442682926829269,0.6577403502118108
8.476053215077606,0.8401539753177991
8.509423503325943,0.9332543390966047
8.54279379157428,0.9557987630281847
8.576164079822616,0.942347504999275
8.609534368070953,0.9254993243700274
8.64290465631929,0.9199674876351382
8.676274944567627,0.9163186628222412
8.709645232815964,0.8875204181849915
8.743015521064303,0.8050164691802892
8.77638580931264,0.6561244408933721
8.809756097560976,0.45374583264490903
8.843126385809313,0.23321002871506305
8.87649667405765,0.03760205059290184
8.909866962305987,-0.10123327292292815
8.943237250554324,-0.1766512650508921
8.97660753880266,-0.20931469555653395
9.009977827050998,-0.23650106064369036
9.043348115299334,-0.29386789273559444
9.076718403547671,-0.39843512650386637
9.110088691796008,-0.5407324391792996
9.143458980044347,-0.6894579740785516
9.176829268292684,-0.8059110981256521
9.21019955654102,-0.8608636379127853
9.243569844789358,-0.8456644757197131
9.276940133037694,-0.7726573085846016
9.310310421286031,-0.6657264179450882
9.343680709534368,-0.5468999007748961
9.377050997782705,-0.4266317351893639
9.410421286031042,-0.3027633107113664
9.443791574279379,-0.167832130999528
9.477161862527716,-0.019492347839594065
9.510532150776053,0.13286238804039088
9.543902439024391,0.26977455772784525
9.577272727272728,0.3711734327335148
9.610643015521065,0.4282904719300785
9.644013303769402,0.45083118733134947
9.677383592017739,0.4642806054202894
9.710753880266076,0.49732102829585384
9.744124168514412,0.5649198890633232
9.77749445676275,0.6558011547323026
9.810864745011086,0.7318833234913609
9.844235033259423,0.7420092921846105
9.87760532150776,0.645169857242404
9.910975609756099,0.43286698905721827
9.944345898004435,0.13930384612812943
9.977716186252772,-0.16719646652721937
10.01108647450111,-0.40944141664716965
10.044456762749446,-0.5325474219044019
10.077827050997783,-0.5263779213143664
10.11119733924612,-0.42807554285130944
10.144567627494457,-0.30324063692025655
10.177937915742794,-0.21521184930315232
10.21130820399113,-0.19784954231093219
10.244678492239467,-0.2447601549576015
10.278048780487804,-0.31856383631148083
10.311419068736143,-0.3731779208760457
10.34478935698448,-0.3762348872959846
10.378159645232817,-0.32052120877620394
10.411529933481154,-0.2208792270706339
10.44490022172949,-0.10138126711385954
10.478270509977827,0.018077678015175916
10.511640798226164,0.1281928989265703
10.545011086474501,0.2277562669659768
10.578381374722838,0.31614598463866095
10.611751662971175,0.38716550644950143
10.645121951219512,0.42876152629549413
10.67849223946785,0.42873619805784957
10.711862527716187,0.382597183890953
10.745232815964524,0.2984822731452597
10.778603104212861,0.19600696404449372
10.811973392461198,0.09940644002787373
10.845343680709535,0.02830874189459692
10.878713968957872,-0.009572539838988576
10.912084257206208,-0.020690107297099324
10.945454545454545,-0.02204169891844566
10.978824833702882,-0.033211294515248374
11.012195121951219,-0.06724591323342644
11.045565410199556,-0.1240975861919425
11.078935698447895,-0.18963287536461518
11.112305986696231,-0.241193598832512
11.145676274944568,-0.2578727550472701
11.179046563192905,-0.23117332077537459
11.212416851441242,-0.1709057603191771
11.245787139689579,-0.1028508697615703
11.279157427937916,-0.058430804944942384
11.312527716186253,-0.06069863249821251
11.34589800443459,-0.11320729295688021
11.379268292682926,-0.19733604576385694
11.412638580931263,-0.2797063635257965
11.4460088691796,-0.3263554400698072
11.479379157427939,-0.3169438823876956
11.512749445676276,-0.2522456268472225
11.546119733924613,-0.15150806236826045
11.57949002217295,-0.04123213876463645
11.612860310421286,0.05899072837180531
11.646230598669623,0.14663117473089443
11.67960088691796,0.23727776232186043
11.712971175166297,0.3555447278719337
11.746341463414634,0.5192601732930783
11.77971175166297,0.7236275033783997
11.813082039911308,0.9329068064844331
11.846452328159646,1.0850504388435
11.879822616407983,1.109952902744792
11.91319290465632,0.9559619298727559
11.946563192904657,0.6144906991965627
11.979933481152994,0.13159647547359118
12.01330376940133,-0.4004068055407301
12.046674057649668,-0.8700320656467402
12.080044345898004,-1.182559851516519
12.113414634146341,-1.2904196730950706
12.146784922394678,-1.205604667984362
12.180155210643015,-0.989544651790212
12.213525498891352,-0.7257451887066884
12.24689578713969,-0.4876670091091882
12.280266075388028,-0.3154510882644586
12.313636363636364,-0.20991979471838196
12.347006651884701,-0.14363557977104036
12.380376940133038,-0.08110826840818225
12.413747228381375,0.0027778537925800774
12.447117516629712,0.11431459348400651
12.480487804878049,0.24419855339977276
12.513858093126386,0.3776809426805438
12.547228381374723,0.5039319041560286
12.58059866962306,0.6187567232731984
12.613968957871396,0.7199587774407713
12.647339246119735,0.7998176265330489
12.680709534368072,0.8411789490607682
12.714079822616409,0.8213641817675433
12.747450110864746,0.7229682640486012
12.780820399113082,0.5457975864054857
12.81419068736142,0.31268523253240404
12.847560975609756,0.06475048367360377
12.880931263858093,-0.15266602025070436
12.91430155210643,-0.30689144486572856
12.947671840354767,-0.38934603709956045
12.981042128603104,-0.41599687299487687
13.014412416851442,-0.4170886689996207
13.04778270509978,-0.42182368694850886
13.081152993348116,-0.4457545905396429
13.114523281596453,-0.4865024817187871
13.14789356984479,-0.5285937119665461
13.181263858093127,-0.5536275039796043
13.214634146341464,-0.550015182584055
13.2480044345898,-0.5177296331878383
13.281374722838137,-0.46664839979493744
13.314745011086474,-0.4102426040507397
13.348115299334811,-0.35813013759812273
13.381485587583148,-0.31098823453477503
13.414855875831487,-0.25995287327344385
13.448226164079824,-0.19067780588959998
13.48159645232816,-0.09037144996164026
13.514966740576497,0.045115521869844875
13.548337028824834,0.20734202694553214
13.581707317073171,0.37669770939701214
13.615077605321508,0.5292895992511671
13.648447893569845,0.6466886650484778
13.681818181818182,0.7238931554507106
13.715188470066519,0.7708913916591658
13.748558758314855,0.8059174699862895
13.781929046563192,0.8429450150536454
13.815299334811531,0.8797996924457777
13.848669623059868,0.8939954324532892
13.882039911308205,0.8500329103171972
13.915410199556542,0.7158613655997177
13.948780487804878,0.48074057689762956
13.982150776053215,0.165131860897326
14.015521064301552,-0.18318563049393727
14.048891352549889,-0.5055017518841447
14.082261640798226,-0.7531342249656193
14.115631929046563,-0.902694251074469
14.1490022172949,-0.9587979093034315
14.182372505543238,-0.9444356909596023
14.215742793791575,-0.8857004842533098
14.249113082039912,-0.7997549899551171
14.282483370288249,-0.6918720026471685
14.315853658536586,-0.5613550123228149
14.349223946784923,-0.4109496439451349
14.38259423503326,-0.2529316055666382
14.415964523281596,-0.10781482523947247
14.449334811529933,0.0035210307396258567
14.48270509977827,0.06958047198071186
14.516075388026607,0.09432793241546206
14.549445676274944,0.09632556720453221
14.582815964523283,0.10141954385105577
14.61618625277162,0.13248518321727298
14.649556541019956,0.20065416019917917
14.682926829268293,0.3012661380401035
14.71629711751663,0.41556569967178303
14.749667405764967,0.5170853552405512
14.783037694013304,0.5803386488008955
14.81640798226164,0.5889468872428973
14.849778270509978,0.5405606391751673
14.883148558758315,0.44694874529629736
14.916518847006651,0.3293190381766845
14.949889135254988,0.2107493576243367
14.983259423503327,0.10868151993052533
15.016629711751664,0.030215862863734524
15.05,-0.02836134403500304
15.083370288248338,-0.07805611149893062
15.116740576496674,-0.131253179799646
15.150110864745011,-0.19574823056337315
15.183481152993348,-0.2710482299450399
15.216851441241685,-0.3484117464415755
15.250221729490022,-0.4145302633133922
15.283592017738359,-0.45704896902691317
15.316962305986696,-0.4692336038962125
15.350332594235034,-0.45167113580948864
15.383702882483371,-0.41067935209950895
15.417073170731708,-0.3549143703191135
15.450443458980045,-0.29226140685208274
15.483813747228382,-0.2281920843148233
15.517184035476719,-0.16530646918448438
15.550554323725056,-0.10307032582779034
15.583924611973393,-0.03734004538107878
15.61729490022173,0.0395392383157602
15.650665188470066,0.13670152550498488
15.684035476718403,0.26020532716401096
15.71740576496674,0.40717892025688357
15.750776053215079,0.5616136356240061
15.784146341463416,0.6951159491832942
15.817516629711752,0.7742300273765114
15.85088691796009,0.7726238732847196
15.884257206208426,0.6831321350313299
15.917627494456763,0.5234615828862721
15.9509977827051,0.33154365132367014
15.984368070953437,0.15143432943220123
16.017738359201775,0.01584655375121866
16.05110864745011,-0.06618645714446038
16.08447893569845,-0.11015332528375378
16.117849223946784,-0.144943947742414
16.151219512195123,-0.19577309233999263
16.184589800443458,-0.2704066299081989
16.217960088691797,-0.3559460589526757
16.251330376940132,-0.4273150786970352
16.28470066518847,-0.46203545257248946
16.31807095343681,-0.45272731838547836
16.351441241685144,-0.41065104420948456
16.384811529933483,-0.35906969073632417
16.418181818181818,-0.3208454215762558
16.451552106430157,-0.30734015748664945
16.48492239467849,-0.3142648903096245
16.51829268292683,-0.32588800977543825
16.551662971175165,-0.3245568904313266
16.585033259423504,-0.300114743840862
16.61840354767184,-0.25440518766484205
16.651773835920178,-0.19896143743832725
16.685144124168513,-0.14751538643468556
16.71851441241685,-0.10741865165053595
16.75188470066519,-0.074419696248898
16.785254988913525,-0.033494726978547114
16.818625277161864,0.03448952439919637
16.8519955654102,0.14322543786469596
16.885365853658538,0.2928120823007199
16.918736141906873,0.46673744707382253
16.95210643015521,0.6355908126110986
16.985476718403547,0.7662715933350778
17.018847006651885,0.8330962367239911
17.05221729490022,0.8263017986521661
17.08558758314856,0.7544525545145379
17.118957871396898,0.6398153970828854
17.152328159645233,0.5087836420678999
17.18569844789357,0.38153355367954406
17.219068736141907,0.26533262736350066
17.252439024390245,0.15420663641288723
17.28580931263858,0.03482930597455196
