Frequency (Hz),Amplitude
0.0,3.365178851430932
0.019801980198019802,3.3720158451716107
0.039603960396039604,3.3924174930894284
0.0594059405940594,3.426062392090541
0.07920792079207921,3.472435913918951
0.09900990099009901,3.5308586985300945
0.1188118811881188,3.6005211681245983
0.13861386138613863,3.6805201896251365
0.15841584158415842,3.769894466962452
0.1782178217821782,3.8676561416892943
0.19801980198019803,3.9728171236697314
0.21782178217821782,4.084409623177673
0.2376237623762376,4.201501075773448
0.25742574257425743,4.323204105001496
0.27722772277227725,4.4486823855576825
0.297029702970297,4.577153312335857
0.31683168316831684,4.707888313704332
0.33663366336633666,4.8402115244973105
0.3564356435643564,4.973497393656519
0.37623762376237624,5.107167666461191
0.39603960396039606,5.240688063649071
0.4158415841584158,5.373564883647321
0.43564356435643564,5.505341679320792
0.45544554455445546,5.635596104604937
0.4752475247524752,5.763936985810712
0.495049504950495,5.8900016439480165
0.5148514851485149,6.0134534751647335
0.5346534653465347,6.133979783906272
0.5544554455445545,6.251289855747064
0.5742574257425742,6.365113252571856
0.594059405940594,6.475198310810291
0.613861386138614,6.581310822970297
0.6336633663366337,6.683232883218847
0.6534653465346534,6.7807618788363975
0.6732673267326733,6.8737096107605735
0.6930693069306931,6.961901527959396
0.7128712871287128,7.04517606192204
0.7326732673267327,7.123384049055866
0.7524752475247525,7.1963882301910935
0.7722772277227723,7.264062817698769
0.7920792079207921,7.326293121916121
0.8118811881188118,7.382975229645577
0.8316831683168316,7.434015728456705
0.8514851485148516,7.479331471380588
0.8712871287128713,7.518849377356036
0.891089108910891,7.5525062634743465
0.9108910891089109,7.5802487056870085
0.9306930693069307,7.602032925196561
0.9504950495049505,7.617824698256359
0.9702970297029703,7.627599287567499
0.99009900990099,7.631341393890444
1.00990099009901,7.629045126891834
1.0297029702970297,7.620713994631653
1.0495049504950495,7.606360911469629
1.0693069306930694,7.586008224539129
1.0891089108910892,7.55968775930865
1.108910891089109,7.527440885133388
1.1287128712871286,7.489318602098331
1.1485148514851484,7.445381650876896
1.1683168316831685,7.395700647785855
1.188118811881188,7.340356247712538
1.2079207920792079,7.279439338136216
1.227722772277228,7.213051268069919
1.2475247524752475,7.141304116422364
1.2673267326732673,7.064321005031922
1.2871287128712872,6.982236462467053
1.3069306930693068,6.89519684562902
1.3267326732673268,6.803360827244113
1.3465346534653466,6.70689995849739
1.3663366336633662,6.605999317342635
1.3861386138613863,6.5008582544166496
1.405940594059406,6.391691249972485
1.4257425742574257,6.27872889679079
1.4455445544554455,6.16221902556781
1.4653465346534653,6.04242799070865
1.4851485148514851,5.919642135616267
1.504950495049505,5.79416945721557
1.5247524752475248,5.6663414892310024
1.5445544554455446,5.536515422127523
1.5643564356435644,5.405076473898659
1.5841584158415842,5.272440519026266
1.6039603960396038,5.139056971571547
1.6237623762376237,5.005411900663078
1.6435643564356437,4.872031330302411
1.6633663366336633,4.739484637558148
1.683168316831683,4.608387910600647
1.7029702970297032,4.479407057277587
1.7227722772277227,4.353260363285104
1.7425742574257426,4.230720085561045
1.7623762376237624,4.112612534359824
1.782178217821782,3.9998159565098024
1.801980198019802,3.8932554031784274
1.8217821782178218,3.793893682938844
1.8415841584158414,3.702717515941059
1.8613861386138615,3.6207181811341944
1.881188118811881,3.5488663495895665
1.900990099009901,3.488081462493719
1.920792079207921,3.439196922394915
1.9405940594059405,3.4029234070188057
1.9603960396039604,3.3798135663056237
1.98019801980198,3.370231933039845
2.0,3.3743337922389722
2.01980198019802,3.3920558834859533
2.0396039603960396,3.423120260819354
2.0594059405940595,3.4670507535535346
2.0792079207920793,3.5231997311369008
2.099009900990099,3.590781694415289
2.118811881188119,3.668909807767419
2.1386138613861387,3.7566318119707285
2.1584158415841586,3.852962587152946
2.1782178217821784,3.9569116705931746
2.1980198019801978,4.067505018030132
2.217821782178218,4.183801071010785
2.237623762376238,4.304901701315613
2.257425742574257,4.429958866003129
2.2772277227722775,4.558177880494895
2.297029702970297,4.688818168186565
2.3168316831683167,4.821192230284435
2.336633663366337,4.954663440417162
2.3564356435643563,5.088643131160975
2.376237623762376,5.222587317822926
2.3960396039603964,5.355993304150257
2.4158415841584158,5.488396335520816
2.4356435643564356,5.619366405447532
2.455445544554456,5.748505277677725
2.4752475247524752,5.8754437554270655
2.495049504950495,5.9998392083160805
2.514851485148515,6.121373353830108
2.5346534653465347,6.23975028157861
2.5544554455445545,6.354694703738538
2.5742574257425743,6.46595041267544
2.594059405940594,6.573278926005988
2.6138613861386135,6.676458299698997
2.633663366336634,6.775282090790547
2.6534653465346536,6.86955845262676
2.673267326732673,6.959109347052853
2.6930693069306932,7.043769859515679
2.712871287128713,7.1233876045600875
2.7326732673267324,7.197822210632455
2.7524752475247527,7.266944874431999
2.7722772277227725,7.330637976263178
2.792079207920792,7.3887947489387305
2.811881188118812,7.441318993767926
2.8316831683168315,7.488124838046073
2.8514851485148514,7.529136529249335
2.8712871287128716,7.564288261842985
2.891089108910891,7.593524033243063
2.910891089108911,7.616797526039769
2.9306930693069306,7.634072014106674
2.9504950495049505,7.64532029069125
2.9702970297029703,7.650524617018167
2.99009900990099,7.649676690345573
3.00990099009901,7.642777630802794
3.0297029702970297,7.629837986714554
3.0495049504950495,7.610877758486745
3.0693069306930694,7.585926441501176
3.089108910891089,7.555023088846934
3.108910891089109,7.518216395111897
3.128712871287129,7.475564802877058
3.148514851485148,7.427136634005657
3.1683168316831685,7.373010248307914
3.1881188118811883,7.313274232698403
3.2079207920792077,7.248027624556393
3.227722772277228,7.177380173659954
3.2475247524752473,7.101452647801935
3.267326732673267,7.020377188021618
3.2871287128712874,6.934297720308746
3.3069306930693068,6.843370431667567
3.3267326732673266,6.747764319572678
3.346534653465347,6.647661825110527
3.366336633663366,6.543259561474727
3.386138613861386,6.434769150956259
3.4059405940594063,6.322418185109011
3.4257425742574257,6.206451324319909
3.4455445544554455,6.08713155447778
3.4653465346534653,5.964741619666833
3.485148514851485,5.839585650586808
3.504950495049505,5.7119910083874155
3.5247524752475248,5.582310362319677
3.5445544554455446,5.450924016367166
3.564356435643564,5.318242493872842
3.5841584158415842,5.1847093788255005
3.603960396039604,5.050804396188412
3.6237623762376234,4.917046689218442
3.6435643564356437,4.783998216388193
3.6633663366336635,4.652267141086015
3.683168316831683,4.522511020343475
3.702970297029703,4.395439511466473
3.722772277227723,4.2718162062229155
3.7425742574257423,4.152459073209976
3.762376237623762,4.038238848462801
3.7821782178217824,3.930074580383946
3.801980198019802,3.8289254393945056
3.8217821782178216,3.7357778930194083
3.841584158415842,3.6516274850741572
3.8613861386138613,3.577454808560737
3.881188118811881,3.5141958728136675
3.9009900990099013,3.4627079316568343
3.9207920792079207,3.4237328684405877
3.9405940594059405,3.3978612266677515
3.96039603960396,3.385500648549744
3.98019801980198,3.386852551429182
4.0,3.401900163496189
4.01980198019802,3.430409609468359
4.03960396039604,3.4719438867106676
4.0594059405940595,3.525887762802165
4.079207920792079,3.5914803012651775
4.099009900990099,3.6678511471171724
4.118811881188119,3.754056889460036
4.138613861386139,3.8491145660839825
4.158415841584159,3.9520303912129933
4.178217821782178,4.061822799390862
4.198019801980198,4.177539724882596
4.217821782178218,4.298270601354804
4.237623762376238,4.423153877588075
4.257425742574258,4.551380953647507
4.2772277227722775,4.682197414114669
4.297029702970297,4.814902330330531
4.316831683168317,4.948846267037755
4.336633663366336,5.083428489517885
4.356435643564357,5.218093741468595
4.376237623762377,5.352328858453837
4.3960396039603955,5.485659398089626
4.415841584158416,5.617646404438881
4.435643564356436,5.747883377295094
4.455445544554455,5.875993483761222
4.475247524752476,6.00162702664702
4.4950495049504955,6.12445916905833
4.514851485148514,6.244187905004326
4.534653465346535,6.36053226025739
4.554455445544555,6.473230704833967
4.574257425742574,6.582039757421434
4.594059405940594,6.686732762211525
4.613861386138614,6.78709881946191
4.633663366336633,6.882941852382132
4.653465346534653,6.9740797944192385
4.673267326732674,7.060343882563555
4.693069306930693,7.141578043820374
4.712871287128713,7.217638363445978
4.732673267326733,7.288392624898267
4.752475247524752,7.353719912690997
4.772277227722772,7.4135102704622895
4.792079207920793,7.467664407578228
4.811881188118812,7.516093448495989
4.8316831683168315,7.5587187199200665
4.851485148514852,7.595471571507396
4.871287128712871,7.626293226525134
4.891089108910891,7.651134659447597
4.910891089108912,7.669956498006249
4.930693069306931,7.68272894768838
4.9504950495049505,7.689431737124548
4.97029702970297,7.6900540832199775
4.99009900990099,7.684594675279155
5.00990099009901,7.673061677752371
5.02970297029703,7.655472751606178
5.0495049504950495,7.631855094692406
5.069306930693069,7.602245501870304
5.089108910891089,7.566690446030892
5.108910891089109,7.5252461815879
5.128712871287129,7.477978872445081
5.148514851485149,7.424964746931705
5.1683168316831685,7.366290282726765
5.188118811881188,7.3020524253763925
5.207920792079208,7.232358844657559
5.227722772277227,7.1573282337662185
5.247524752475248,7.0770906571176635
5.267326732673268,6.991787953454231
5.2871287128712865,6.901574201967173
5.306930693069307,6.806616260265472
5.326732673267327,6.707094384266743
5.346534653465346,6.60320294144242
5.366336633663367,6.49515123030869
5.3861386138613865,6.383164420588086
5.405940594059405,6.267484630022368
5.425742574257426,6.148372155310706
5.445544554455446,6.026106875940134
5.465346534653465,5.9009898505616
5.485148514851486,5.773345125733713
5.504950495049505,5.6435217758594
5.524752475247524,5.511896190336197
5.544554455445545,5.378874618434363
5.564356435643565,5.244895972983389
5.584158415841584,5.110434878950074
5.603960396039604,4.976004930307777
5.623762376237624,4.842162085578683
5.643564356435643,4.709508085953037
5.663366336633663,4.578693716567632
5.683168316831684,4.450421648246516
5.702970297029703,4.325448491938088
5.7227722772277225,4.204585572394783
5.742574257425743,4.088697788106233
5.762376237623762,3.978699786949127
5.782178217821782,3.8755485801881817
5.801980198019803,3.7802316857933267
5.821782178217822,3.6937499948530412
5.841584158415841,3.617094858108463
5.861386138613861,3.551219446411296
5.881188118811881,3.4970052580942284
5.900990099009901,3.455225655850786
5.920792079207921,3.426509338406455
5.9405940594059405,3.4113074177926443
5.96039603960396,3.409867986378134
5.98019801980198,3.4222215144748485
6.0,3.448179120896683
6.01980198019802,3.4873439597260005
6.03960396039604,3.539134106435588
6.0594059405940595,3.602813868400333
6.079207920792079,3.677529700642149
6.099009900990099,3.762346942247534
6.118811881188119,3.8562842403876707
6.138613861386139,3.95834351330671
6.158415841584159,4.067534336146802
6.178217821782178,4.182892510366184
6.198019801980198,4.303493201650701
6.217821782178218,4.428459394438217
6.237623762376237,4.556966558661606
6.257425742574258,4.688244420962463
6.2772277227722775,4.82157664046306
6.297029702970296,4.956299056609545
6.316831683168317,5.091797036076552
6.336633663366337,5.227502315966813
6.356435643564356,5.362889630251715
6.376237623762377,5.497473317893397
6.396039603960396,5.63080404311296
6.415841584158415,5.762465707929458
6.435643564356436,5.892072601022899
6.455445544554456,6.019266801962528
6.475247524752475,6.143715843119621
6.495049504950495,6.2651106209039416
6.514851485148515,6.383163541577362
6.534653465346534,6.497606883486773
6.554455445544554,6.608191356154763
6.574257425742575,6.714684836570771
6.594059405940594,6.816871263747251
6.6138613861386135,6.91454967380347
6.633663366336634,7.007533359283856
6.653465346534653,7.095649137956297
6.673267326732673,7.178736717870785
6.693069306930694,7.256648146931782
6.712871287128713,7.329247336615411
6.732673267326732,7.3964096507285575
6.752475247524753,7.4580215512573815
6.772277227722772,7.513980294389004
6.792079207920792,7.564193670719693
6.811881188118813,7.608579784494023
6.8316831683168315,7.647066867463297
6.851485148514851,7.679593123616845
6.871287128712871,7.706106601638969
6.891089108910891,7.726565092485389
6.910891089108911,7.74093604996653
6.930693069306931,7.749196532679342
6.9504950495049505,7.751333166052638
6.97029702970297,7.747342123671364
6.99009900990099,7.737229127430179
7.00990099009901,7.721009466442858
7.02970297029703,7.698708035009356
7.0495049504950495,7.670359390323214
7.069306930693069,7.636007830995257
7.089108910891089,7.59570749788384
7.108910891089109,7.549522499163246
7.128712871287128,7.497527062039462
7.148514851485149,7.439805714044934
7.1683168316831685,7.376453497419649
7.188118811881187,7.307576220725352
7.207920792079208,7.2332907525529375
7.227722772277228,7.15372536298008
7.247524752475247,7.069020119328421
7.267326732673268,6.979327343765637
7.287128712871287,6.884812141406305
7.306930693069306,6.785653008790976
7.326732673267327,6.682042533963974
7.346534653465347,6.574188200817265
7.366336633663366,6.462313311895409
7.3861386138613865,6.34665804541838
7.405940594059406,6.227480663796958
7.425742574257425,6.105058892262974
7.445544554455446,5.979691487221517
7.465346534653466,5.851700014265955
7.485148514851485,5.721430855058855
7.504950495049505,5.589257459872223
7.524752475247524,5.455582857655554
7.544554455445544,5.320842426904185
7.564356435643565,5.185506916778853
7.584158415841584,5.050085686854922
7.603960396039604,4.915130103007115
7.623762376237624,4.781236983217032
7.643564356435643,4.649051927161511
7.663366336633663,4.519272284069987
7.683168316831684,4.3926494123343955
7.702970297029703,4.26998976212079
7.7227722772277225,4.152154174182956
7.742574257425743,4.040054647951957
7.762376237623762,3.9346477156529907
7.782178217821782,3.836923507891082
7.801980198019803,3.7478896665617576
7.821782178217822,3.668549518879518
7.841584158415841,3.5998744297040925
7.861386138613862,3.542771019094143
7.881188118811881,3.498044915475776
7.900990099009901,3.4663637569019135
7.92079207920792,3.448222998915255
7.9405940594059405,3.443918439185513
7.96039603960396,3.4535289923302304
7.980198019801979,3.4769120942052325
8.0,3.5137123860805324
8.01980198019802,3.563382437224312
8.03960396039604,3.62521268329874
8.05940594059406,3.6983668437409793
8.07920792079208,3.7819189541838725
8.099009900990099,3.874888690159514
8.118811881188119,3.9762725976092583
8.138613861386139,4.085069890553526
8.158415841584159,4.200302401123105
8.178217821782178,4.3210289518362615
8.198019801980198,4.4463548394724315
8.217821782178218,4.575437310647822
8.237623762376238,4.707487934110911
8.257425742574258,4.841772697808403
8.277227722772277,4.977610531813421
8.297029702970297,5.114370817227855
8.316831683168317,5.251470307698669
8.336633663366337,5.388369774873001
8.356435643564357,5.524570595457937
8.376237623762377,5.659611424919585
8.396039603960396,5.793065048613561
8.415841584158416,5.924535461959563
8.435643564356436,6.053655203877768
8.455445544554456,6.180082949210358
8.475247524752476,6.303501353887688
8.495049504950495,6.423615139306183
8.514851485148515,6.540149398349497
8.534653465346535,6.652848103663012
8.554455445544555,6.761472798427142
8.574257425742575,6.8658014504319524
8.594059405940595,6.965627451361402
8.613861386138613,7.060758744595901
8.633663366336634,7.151017066368496
8.653465346534654,7.23623728665344
8.673267326732672,7.316266837659592
8.693069306930694,7.390965219205627
8.712871287128714,7.460203571550464
8.732673267326732,7.523864307433104
8.752475247524753,7.581840796142366
8.772277227722773,7.634037093394104
8.792079207920791,7.680367711650733
8.811881188118813,7.720757426284223
8.831683168316832,7.755141113670463
8.85148514851485,7.783463617919244
8.871287128712872,7.805679643501979
8.891089108910892,7.8217536715455696
8.91089108910891,7.831659898027413
8.930693069306932,7.835382192539166
8.950495049504951,7.832914076695702
8.97029702970297,7.82425872165665
8.990099009900991,7.809428964609471
9.00990099009901,7.788447344441341
9.029702970297029,7.761346157210411
9.04950495049505,7.728167532420867
9.06930693069307,7.688963531520007
9.089108910891088,7.643796270474765
9.10891089108911,7.5927380687596475
9.12871287128713,7.535871627605359
9.148514851485148,7.473290240926966
9.16831683168317,7.405098042982066
9.188118811881187,7.331410297512931
9.207920792079207,7.252353733913066
9.227722772277229,7.168066936837832
9.247524752475247,7.078700796661329
9.267326732673267,6.98441902927562
9.287128712871288,6.885398774939007
9.306930693069306,6.781831287207842
9.326732673267326,6.673922724422665
9.346534653465348,6.561895057742668
9.366336633663366,6.445987111291025
9.386138613861386,6.326455751514785
9.405940594059407,6.203577244261505
9.425742574257425,6.07764879915127
9.445544554455445,5.948990321307797
9.465346534653467,5.817946390014505
9.485148514851485,5.684888481814263
9.504950495049505,5.550217451184072
9.524752475247526,5.41436627409234
9.544554455445544,5.2778030470134585
9.564356435643564,5.1410342143967345
9.584158415841586,5.0046079687125085
9.603960396039604,4.869117726064028
9.623762376237623,4.735205523623883
9.643564356435645,4.603565109512244
9.663366336633663,4.474944398676102
9.683168316831683,4.350146849579796
9.702970297029704,4.230031180264279
9.722772277227723,4.115508700363974
9.742574257425742,4.0075374111603415
9.762376237623764,3.9071119567150148
9.782178217821782,3.815248549462781
9.801980198019802,3.7329642084007655
9.821782178217823,3.6612500988574324
9.841584158415841,3.601039481326138
9.861386138613861,3.553171728588636
9.881188118811881,3.518354922714687
9.900990099009901,3.4971304597232913
9.92079207920792,3.4898435725387635
9.94059405940594,3.4966234735552164
9.96039603960396,3.517375819332903
9.98019801980198,3.551788559790609
10.0,3.599350329395471
10.01980198019802,3.659378845042897
10.03960396039604,3.7310556905732013
10.05940594059406,3.8134635681037294
10.07920792079208,3.9056225093567676
10.099009900990099,4.0065224196918
10.118811881188119,4.115150375454778
10.138613861386139,4.230512065091413
10.158415841584159,4.35164751160655
10.178217821782178,4.477641694190493
10.198019801980198,4.607630925956578
10.217821782178218,4.740805902308457
10.237623762376238,4.876412275842235
10.257425742574258,5.013749494253101
10.277227722772277,5.152168497183828
10.297029702970297,5.291068730981311
10.316831683168317,5.429894819794572
10.336633663366337,5.568133132248546
10.356435643564357,5.705308405193102
10.376237623762377,5.8409805274516415
10.396039603960396,5.974741543831991
10.415841584158416,6.106212909576579
10.435643564356436,6.235043004922078
10.455445544554454,6.360904906009526
10.475247524752476,6.48349440005232
10.495049504950495,6.602528227914276
10.514851485148514,6.717742534943995
10.534653465346535,6.828891510232659
10.554455445544555,6.935746194825644
10.574257425742573,7.038093440413017
10.594059405940595,7.135735001370354
10.613861386138614,7.228486744530808
10.633663366336632,7.31617796261973
10.653465346534654,7.398650778798156
10.673267326732674,7.475759631195266
10.693069306930692,7.5473708276397415
10.712871287128714,7.6133621620142415
10.732673267326733,7.673622584757259
10.752475247524751,7.728051921024912
10.772277227722773,7.776560630911335
10.792079207920793,7.819069606919104
10.81188118811881,7.855510004580974
10.831683168316832,7.885823102772089
10.851485148514852,7.90996019082696
10.87128712871287,7.927882480098533
