Time (s),Filtered Signal
0.0,-0.04902485062507597
0.03337004405286344,0.331030632194011
0.06674008810572687,0.6606586500433008
0.10011013215859031,0.9029147610014556
0.13348017621145375,1.0418573350779332
0.16685022026431717,1.0797885618081051
0.20022026431718062,1.02898299328935
0.23359030837004408,0.9049238872495912
0.2669603524229075,0.7255070661019104
0.3003303964757709,0.5147951713442519
0.33370044052863435,0.3053353242299308
0.3670704845814978,0.13339892893389035
0.40044052863436125,0.026711220744510187
0.43381057268722467,-0.009347372198202907
0.46718061674008815,0.0018827390470682866
0.5005506607929515,0.01545896166157539
0.533920704845815,-0.015737606645395325
0.5672907488986785,-0.11778423172080893
0.6006607929515418,-0.2802574086698441
0.6340308370044053,-0.45701399310269897
0.6674008810572687,-0.5840820908038354
0.7007709251101322,-0.6072194022271585
0.7341409691629956,-0.5067488949592518
0.767511013215859,-0.30809917677155524
0.8008810572687225,-0.07278479142240145
0.834251101321586,0.12648440809475414
0.8676211453744493,0.2354795203993241
0.9009911894273128,0.23960069660564454
0.9343612334801763,0.16727681000020353
0.9677312775330397,0.0747926795978835
1.001101321585903,0.020219570744578377
1.0344713656387665,0.03858741089084168
1.06784140969163,0.128953964603119
1.1012114537444935,0.25776348676320715
1.134581497797357,0.37523761082471085
1.1679515418502202,0.4362299536869068
1.2013215859030837,0.4162152571953272
1.2346916299559472,0.3166605091321786
1.2680616740088106,0.15966556255318706
1.3014317180616741,-0.023513900612785243
1.3348017621145374,-0.2037464299993103
1.3681718061674009,-0.3604130811753768
1.4015418502202643,-0.48175967275080894
1.4349118942731278,-0.5614425780804138
1.4682819383259913,-0.595035270072479
1.5016519823788548,-0.5794673014955684
1.535022026431718,-0.5159310154171687
1.5683920704845815,-0.41412867220127597
1.601762114537445,-0.29431734395702785
1.6351321585903085,-0.18430173564156904
1.668502202643172,-0.1111002781122744
1.7018722466960352,-0.09017646359176551
1.7352422907488987,-0.11715914720359522
1.7686123348017622,-0.1666373662998596
1.8019823788546256,-0.19984772003070647
1.8353524229074891,-0.17906045578774404
1.8687224669603526,-0.08308491525867687
1.9020925110132159,0.08276989334371795
1.9354625550660793,0.2870287704217551
1.9688325991189428,0.48314378525995233
2.002202643171806,0.6269536647423685
2.0355726872246698,0.6929586172618223
2.068942731277533,0.6821426952205841
2.1023127753303967,0.6179744097971162
2.13568281938326,0.5329795921088275
2.1690528634361232,0.4529504328615752
2.202422907488987,0.3868525123602658
2.23579295154185,0.3271653705476439
2.269162995594714,0.2595240340718026
2.302533039647577,0.1753979774003795
2.3359030837004404,0.08004799660838577
2.369273127753304,-0.009032559478553817
2.4026431718061674,-0.07227892566289411
2.436013215859031,-0.10072942880598829
2.4693832599118943,-0.10344235849090912
2.5027533039647576,-0.1046894043531741
2.5361233480176213,-0.13172026226446257
2.5694933920704845,-0.19938593319081357
2.6028634361233483,-0.30001005325635216
2.6362334801762115,-0.40437211241704435
2.6696035242290748,-0.4739099783234028
2.7029735682819385,-0.4784658643272011
2.7363436123348017,-0.41117212796943586
2.7697136563876654,-0.293595461032572
2.8030837004405287,-0.16887718443855168
2.8364537444933924,-0.08580330399577521
2.8698237885462556,-0.08017282912827842
2.903193832599119,-0.16042144887913315
2.9365638766519826,-0.30250689732070846
2.969933920704846,-0.4557216520099406
3.0033039647577096,-0.5576427675074125
3.036674008810573,-0.5537733534505627
3.070044052863436,-0.4160281539452795
3.1034140969162998,-0.1542465042869168
3.136784140969163,0.18350484844003642
3.1701541850220267,0.5229717876512986
3.20352422907489,0.7851373601092387
3.2368942731277532,0.9103199158294301
3.270264317180617,0.8765754776466413
3.30363436123348,0.7056590660378907
3.337004405286344,0.4543713292579527
3.370374449339207,0.1947079926227817
3.4037444933920704,-0.00966466949650561
3.437114537444934,-0.12215553382238106
3.4704845814977974,-0.14111614599523442
3.503854625550661,-0.09512832049349695
3.5372246696035243,-0.028653910725719243
3.5705947136563876,0.015789974250066365
3.6039647577092513,0.012082632055531062
3.6373348017621145,-0.043209400498528935
3.6707048458149782,-0.13362265140706944
3.7040748898678415,-0.2317541280908682
3.737444933920705,-0.30953187188481823
3.7708149779735685,-0.34569437437317235
3.8041850220264317,-0.3290276390891424
3.8375550660792954,-0.2586006872784093
3.8709251101321587,-0.14325384420640697
3.9042951541850224,-0.0014774284469294807
3.9376651982378856,0.13934312091400747
3.971035242290749,0.24666767089601158
4.004405286343612,0.29099661112549
4.037775330396476,0.2570534577917913
4.0711453744493395,0.1532653731555234
4.104515418502203,0.013708597787319738
4.137885462555066,-0.11096366854547277
4.171255506607929,-0.17188930506700237
4.2046255506607935,-0.14248874563260397
4.237995594713657,-0.03143438108085694
4.27136563876652,0.11910143752503424
4.304735682819383,0.2504457969397743
4.3381057268722465,0.3125306725957619
4.371475770925111,0.2854322970995045
4.404845814977974,0.18697113431919193
4.438215859030837,0.06273251765551364
4.4715859030837,-0.036378846803514525
4.504955947136564,-0.07778081053491029
4.538325991189428,-0.060486973320115274
4.571696035242291,-0.012105502447618183
4.605066079295154,0.027840847381915758
4.638436123348018,0.028906638854983426
4.671806167400881,-0.015885264376736565
4.705176211453745,-0.08895816426753196
4.738546255506608,-0.15974671066145346
4.7719162995594715,-0.20185503638140792
4.805286343612335,-0.206541071826151
4.838656387665198,-0.1859593337306407
4.872026431718062,-0.16531763658662493
4.905396475770925,-0.1686734477517906
4.938766519823789,-0.20580880471318988
4.972136563876652,-0.2665053544208065
5.005506607929515,-0.32457161366137355
5.038876651982379,-0.3493300959982587
5.072246696035243,-0.3191232280605603
5.105616740088106,-0.230919107395331
5.138986784140969,-0.1021383018952292
5.172356828193832,0.03577140841880001
5.2057268722466965,0.14920377821666314
5.23909691629956,0.2149429105330164
5.272466960352423,0.22855997777256684
5.305837004405286,0.205511033365845
5.3392070484581495,0.17455875051670525
5.372577092511014,0.16601443856008827
5.405947136563877,0.1992605483545001
5.43931718061674,0.27436053116047465
5.4726872246696034,0.37116484571562713
5.506057268722468,0.45664433145737415
5.539427312775331,0.49804949207543997
5.572797356828194,0.47687274406120067
5.606167400881057,0.39751972961142645
5.639537444933921,0.2859981466487402
5.672907488986785,0.17799231276513333
5.706277533039648,0.1011013985902872
5.739647577092511,0.060015665244879925
5.7730176211453745,0.03317229038815524
5.806387665198238,-0.015824867755417703
5.839757709251102,-0.11670000208203848
5.873127753303965,-0.27184988529333737
5.9064977973568284,-0.448160039138334
5.939867841409692,-0.5871861636412539
5.973237885462555,-0.6302668608866897
6.006607929515419,-0.5471131527491291
6.039977973568282,-0.3539584995998266
6.073348017621146,-0.11177239814495922
6.106718061674009,0.09583770976311304
6.140088105726872,0.19598430871589662
6.173458149779736,0.15669572202743248
6.2068281938325995,0.0005811229698476857
6.240198237885463,-0.2044053463419073
6.273568281938326,-0.37348486780512574
6.306938325991189,-0.4405281919922892
6.3403083700440535,-0.38467319927501914
6.373678414096917,-0.23600439965559683
6.40704845814978,-0.05791598386267699
6.440418502202643,0.08492891707019706
6.4737885462555065,0.15694576463472656
6.507158590308371,0.16511352776372726
6.540528634361234,0.14932121592071787
6.573898678414097,0.1556130695452548
6.60726872246696,0.20749728442320567
6.640638766519824,0.29141420987538696
6.674008810572688,0.3645947519389598
6.707378854625551,0.38106826846460856
6.740748898678414,0.32124414201742346
6.774118942731278,0.20797922182127382
6.807488986784141,0.09891777437670872
6.840859030837005,0.05767572567142695
6.874229074889868,0.11836897486164873
6.9075991189427315,0.26253507975443097
6.940969162995595,0.42190524014227404
6.974339207048458,0.5073787116513747
7.007709251101322,0.4507484448835434
7.041079295154185,0.2386414978577363
7.074449339207049,-0.07831418014838874
7.107819383259912,-0.4057575377700052
7.141189427312775,-0.6454557646592974
7.174559471365639,-0.7358190225581935
7.207929515418503,-0.6747499279743234
7.241299559471366,-0.5158045483204495
7.274669603524229,-0.3413028827772988
7.308039647577092,-0.22576203450099847
7.3414096916299565,-0.20582238347726584
7.37477973568282,-0.26845528354520787
7.408149779735683,-0.36056137484206024
7.441519823788546,-0.41419346646899247
7.47488986784141,-0.3760133515565105
7.508259911894274,-0.22893298624434194
7.541629955947137,0.0020616293679006506
7.575,0.2610715365767771
7.608370044052863,0.4838248755137232
7.641740088105728,0.6219455696178553
7.675110132158591,0.6593554812990291
7.708480176211454,0.614929700095349
7.741850220264317,0.5311049846249657
7.775220264317181,0.4534798139494561
7.808590308370045,0.4099071327569667
7.841960352422908,0.39811986309656205
7.875330396475771,0.3879872564582605
7.9087004405286345,0.3384129399121803
7.942070484581498,0.22162091840421627
7.975440528634362,0.0426729839457593
8.008810572687224,-0.15705659366534866
8.042180616740088,-0.31629612496196596
8.075550660792953,-0.38332555853311917
8.108920704845815,-0.34357296932446824
8.142290748898679,-0.2301990189386783
8.175660792951541,-0.11082996251495854
8.209030837004406,-0.05623719523686845
8.24240088105727,-0.1066738877897885
8.275770925110132,-0.2530779043701983
8.309140969162996,-0.44247743187719785
8.342511013215859,-0.6040705966186168
8.375881057268723,-0.6817824989389732
8.409251101321587,-0.6564807025452005
8.44262114537445,-0.5476388615626044
8.475991189427313,-0.39603627537041497
8.509361233480176,-0.2392453624500273
8.54273127753304,-0.094538019225677
8.576101321585904,0.04187581246907177
8.609471365638766,0.1810083975074085
8.64284140969163,0.32347247815741764
8.676211453744493,0.4509056730171606
8.709581497797357,0.5329629409184292
8.742951541850221,0.5457494382711003
8.776321585903084,0.48945413365320345
8.809691629955948,0.3927947860143378
8.84306167400881,0.30000798948472646
8.876431718061674,0.24736034196604947
8.909801762114538,0.2432436164910353
8.9431718061674,0.26422559999314266
8.976541850220265,0.26994127932129963
9.009911894273127,0.22827780352405055
9.043281938325991,0.13591029318262635
9.076651982378856,0.02174073092389821
9.110022026431718,-0.06928600964089365
9.143392070484582,-0.10295639676495856
9.176762114537445,-0.07760609110063732
9.210132158590309,-0.027740863088539687
9.243502202643173,-0.006179369301808761
9.276872246696035,-0.05364920077779317
9.3102422907489,-0.17251518118147108
9.343612334801762,-0.3201143249822487
9.376982378854626,-0.4272064231482433
9.41035242290749,-0.4333317274510709
9.443722466960352,-0.3208257142379588
9.477092511013216,-0.1287685114550612
9.510462555066079,0.061905286872713954
9.543832599118943,0.16564801836200813
9.577202643171807,0.13327946343438588
9.61057268722467,-0.02399906965703396
9.643942731277534,-0.23922090711102528
9.677312775330396,-0.41974409018088193
9.71068281938326,-0.48743395292405267
9.744052863436124,-0.41011563466494044
9.777422907488987,-0.21145826355706215
9.81079295154185,0.04253156633559087
9.844162995594713,0.2721919692888368
9.877533039647577,0.41491772560213797
9.910903083700441,0.44579058048471126
9.944273127753304,0.3813956188201046
9.977643171806168,0.26723958691084176
10.01101321585903,0.15555339826169348
10.044383259911895,0.08366830072188126
10.077753303964759,0.06221445347375737
10.111123348017621,0.07729382484505738
10.144493392070485,0.10378064729358455
10.177863436123348,0.12153881178814362
10.211233480176212,0.1254805434008066
10.244603524229076,0.12443182161520613
10.277973568281938,0.1304024310173646
10.311343612334802,0.1454154711066343
10.344713656387665,0.15453323056686166
10.378083700440529,0.13032726789237423
10.411453744493393,0.04756294393612685
10.444823788546255,-0.09925574340999538
10.47819383259912,-0.28529176455606037
10.511563876651982,-0.4588773013544459
10.544933920704846,-0.5596216289729814
10.57830396475771,-0.5441723860699718
10.611674008810573,-0.4080194604207233
10.645044052863437,-0.19233243342703557
10.678414096916299,0.02914693182974451
10.711784140969163,0.17904461670090865
10.745154185022027,0.2089876181545263
10.77852422907489,0.12095993531463507
10.811894273127754,-0.03323805378178143
10.845264317180618,-0.17506786323755627
10.87863436123348,-0.23460411475102966
10.912004405286345,-0.18163142841275945
10.945374449339207,-0.03778505998362896
10.978744493392071,0.1357483029733265
11.012114537444935,0.2684742673661519
11.045484581497798,0.3136986760993346
11.078854625550662,0.2685757339739472
11.112224669603524,0.17226310990952678
11.145594713656388,0.08442278862827313
11.178964757709252,0.05557610406629341
11.212334801762115,0.10384236469210796
11.245704845814979,0.2084137387887479
11.279074889867841,0.32140667315007937
11.312444933920705,0.3910547582046737
11.34581497797357,0.3846398929101393
11.379185022026432,0.3008037119741419
11.412555066079296,0.1667734261053198
11.445925110132158,0.02340318401060005
11.479295154185023,-0.09377545883087161
11.512665198237887,-0.16838460622408907
11.546035242290749,-0.20631361279806223
11.579405286343613,-0.22828789061206403
11.612775330396476,-0.2569262629032168
11.64614537444934,-0.30493833018276595
11.679515418502204,-0.3693057407094458
11.712885462555066,-0.43279597542998033
11.74625550660793,-0.47111320058084916
11.779625550660793,-0.46249579761712273
11.812995594713657,-0.39644483211556103
11.846365638766521,-0.27884841719274894
11.879735682819383,-0.13170932382852085
11.913105726872248,0.01291657835125545
11.94647577092511,0.1232368123741481
11.979845814977974,0.17878978584247887
12.013215859030838,0.17781387518432928
12.0465859030837,0.13752558290782907
12.079955947136565,0.08692208087199564
12.113325991189427,0.055272136329790604
12.146696035242291,0.06153787538074122
12.180066079295155,0.10930643586025074
12.213436123348018,0.18875033790310217
12.246806167400882,0.28342464113321486
12.280176211453744,0.3774281872232649
12.313546255506608,0.45884231607948706
12.346916299559473,0.5181442948608943
12.380286343612335,0.5438291821487526
12.413656387665199,0.5196279377051225
12.447026431718061,0.4270922661576852
12.480396475770926,0.25414305566850864
12.51376651982379,0.00617294465698646
12.547136563876652,-0.28628873123108245
12.580506607929516,-0.5689256988551081
12.613876651982379,-0.7760779617952709
12.647246696035243,-0.8512508039438889
12.680616740088107,-0.7683299680924577
12.71398678414097,-0.544732797062632
12.747356828193833,-0.2400778827085925
12.780726872246696,0.06075552964589922
12.81409691629956,0.27510858625531265
12.847466960352424,0.35077931068279294
12.880837004405286,0.2840144358423999
12.91420704845815,0.11951485972228322
12.947577092511013,-0.06827919369798068
12.980947136563877,-0.20525000598792792
13.014317180616741,-0.24620224424148296
13.047687224669604,-0.1894808852044327
13.081057268722468,-0.07151178586878715
13.11442731277533,0.05516877883068278
13.147797356828194,0.1488413362228155
13.181167400881058,0.1968675911418661
13.21453744493392,0.21665904820071935
13.247907488986785,0.2400562475837488
13.281277533039647,0.2904833520455508
13.314647577092511,0.36566735272734585
13.348017621145376,0.43530284071831304
13.381387665198238,0.4548788653644251
13.414757709251102,0.3883947036388615
13.448127753303964,0.22821876331042495
13.481497797356829,0.0019849855979676024
13.514867841409693,-0.23685850967004587
13.548237885462555,-0.4299712094801153
13.58160792951542,-0.536105788070795
13.614977973568282,-0.543796980805081
13.648348017621146,-0.46987110881656996
13.68171806167401,-0.34665912540738486
13.715088105726872,-0.20640681076016537
13.748458149779736,-0.07165612436871499
13.781828193832599,0.04463117811297252
13.815198237885463,0.13237368309841752
13.848568281938327,0.17853255324072909
13.88193832599119,0.1683627394251038
13.915308370044054,0.09421232240730856
13.948678414096916,-0.033914100926463825
13.98204845814978,-0.18412778286067474
14.015418502202644,-0.30958492492436157
14.048788546255507,-0.36468823566466224
14.08215859030837,-0.3229556645593269
14.115528634361233,-0.1877996252842295
14.148898678414097,0.008682541010730106
14.182268722466961,0.21764722968429842
14.215638766519824,0.3901979076494099
14.249008810572688,0.49186537214609044
14.28237885462555,0.5103154882024995
14.315748898678414,0.45538635344038425
14.349118942731279,0.35327450520777987
14.382488986784141,0.23760065824821167
14.415859030837005,0.139776585492945
14.449229074889868,0.08064149430970219
14.482599118942732,0.06521620217655243
14.515969162995596,0.0822063758194397
14.549339207048458,0.10885554913175875
14.582709251101322,0.11982164048557643
14.616079295154185,0.0968320186499969
14.649449339207049,0.03526500689093365
14.682819383259913,-0.054859167400695207
14.716189427312775,-0.1533784213881776
14.74955947136564,-0.2375358059752214
14.782929515418502,-0.2893838291064743
14.816299559471366,-0.3008461983035196
14.84966960352423,-0.2758581888799209
14.883039647577093,-0.22987232179195813
14.916409691629957,-0.18669754862831994
14.94977973568282,-0.17210193856243589
14.983149779735683,-0.20430266932889463
15.016519823788547,-0.28377651018874284
15.04988986784141,-0.387296105174658
15.083259911894274,-0.4713255787852944
15.116629955947138,-0.48649158009415466
15.15,-0.39887009308134364
15.183370044052865,-0.20863655910698864
15.216740088105727,0.044140565426132115
15.250110132158591,0.29165005026081514
15.283480176211455,0.4645536438975068
15.316850220264318,0.5204280274483024
15.350220264317182,0.4605208554075897
15.383590308370044,0.3265048090241652
15.416960352422908,0.17936861942087767
15.450330396475772,0.07191606465349293
15.483700440528635,0.02905124815807522
15.517070484581499,0.044634010571907086
15.550440528634361,0.09372685358687918
15.583810572687225,0.15073419086202022
15.61718061674009,0.2020773704180697
15.650550660792952,0.24712042219577862
15.683920704845816,0.2892453008206841
15.717290748898678,0.32496590527448216
15.750660792951543,0.33938129227471187
15.784030837004407,0.3114589787518295
15.817400881057269,0.22605675915075182
15.850770925110133,0.08534675984827082
15.884140969162996,-0.08733789523603386
15.91751101321586,-0.2538968191696096
15.950881057268724,-0.3752303616068595
15.984251101321586,-0.42581025574081344
16.01762114537445,-0.40233221071532144
16.050991189427315,-0.32292455958693167
16.084361233480177,-0.21809417461588293
16.11773127753304,-0.11834051275621163
16.151101321585905,-0.04429901481036512
16.184471365638768,-0.003121742095787814
16.21784140969163,0.008956794015865308
16.251211453744492,0.0009907991031885446
16.284581497797358,-0.017522971655659154
16.31795154185022,-0.03851997792252515
16.351321585903083,-0.05469502848097785
16.38469162995595,-0.058481829896834626
16.41806167400881,-0.04282954003807079
16.451431718061674,-0.004310212834649818
16.48480176211454,0.05290545578104489
16.518171806167402,0.11481433837770982
16.551541850220264,0.15937148211410876
16.584911894273127,0.16293132226950963
16.618281938325993,0.1096738620607019
16.651651982378855,0.0003809464639429821
16.685022026431717,-0.1437156044465417
16.718392070484583,-0.2849222108056629
16.751762114537446,-0.38061073353721736
16.785132158590308,-0.398283427724771
16.818502202643174,-0.3279690013769479
16.851872246696036,-0.1864915706509793
16.8852422907489,-0.011702648444555663
16.91861233480176,0.15071124919733217
16.951982378854627,0.26215352077548787
16.98535242290749,0.30195777671063256
17.01872246696035,0.27088456210094447
17.052092511013218,0.18754188487271817
17.08546255506608,0.08056710270970317
17.118832599118942,-0.01993858531427661
17.152202643171808,-0.08918382981339734
17.18557268722467,-0.11167389520807461
17.218942731277533,-0.08263889655240232
