Frequency (Hz),Amplitude
0.0,1.4716773057708048
0.01978021978021978,1.4773686951510616
0.03956043956043956,1.49429062205395
0.05934065934065934,1.5220032992374264
0.07912087912087912,1.5598258817928154
0.0989010989010989,1.606901428188559
0.11868131868131868,1.66226693943638
0.13846153846153844,1.7249171808280641
0.15824175824175823,1.7938555078741971
0.17802197802197803,1.8681295408485736
0.1978021978021978,1.946852839450484
0.21758241758241756,2.0292153972916873
0.23736263736263735,2.114486160733767
0.2571428571428572,2.2020104234482787
0.2769230769230769,2.2912043065936243
0.2967032967032967,2.3815478776490355
0.31648351648351647,2.472577912832156
0.3362637362637363,2.5638809005791905
0.35604395604395606,2.6550866040146794
0.3758241758241758,2.745862320646768
0.3956043956043956,2.8359078690900206
0.4153846153846154,2.9249512719175845
0.4351648351648351,3.0127450734279853
0.45494505494505494,3.099063219220525
0.4747252747252747,3.1836984231592917
0.4945054945054945,3.266459951620091
0.5142857142857143,3.347171761850599
0.5340659340659341,3.4256709390810567
0.5538461538461538,3.5018063847354783
0.5736263736263736,3.575437715222305
0.5934065934065934,3.646434337122471
0.6131868131868132,3.7146746700916093
0.6329670329670329,3.7800454934871883
0.6527472527472528,3.8424413966956408
0.6725274725274726,3.901764316458405
0.6923076923076923,3.957923147270566
0.7120879120879121,4.010833413235391
0.7318681318681318,4.060416991678689
0.7516483516483516,4.1066018804231765
0.7714285714285715,4.149322001951562
0.7912087912087912,4.188517038793591
0.810989010989011,4.224132295397163
0.8307692307692308,4.256118582518277
0.8505494505494506,4.284432120816173
0.8703296703296702,4.309034460891514
0.8901098901098901,4.329892417473869
0.9098901098901099,4.34697801586694
0.9296703296703297,4.360268449107422
0.9494505494505494,4.369746044597743
0.9692307692307692,4.3753982392426725
0.989010989010989,4.377217562363272
1.0087912087912088,4.375201625885363
1.0285714285714287,4.369353121509931
1.0483516483516484,4.359679824775546
1.0681318681318681,4.346194606122719
1.087912087912088,4.328915449273331
1.1076923076923075,4.307865477449373
1.1274725274725275,4.283072988180483
1.1472527472527472,4.254571497695298
1.1670329670329669,4.222399796164071
1.1868131868131868,4.186602015367775
1.2065934065934065,4.147227710720457
1.2263736263736265,4.10433195997911
1.2461538461538462,4.057975481450018
1.2659340659340659,4.00822477505939
1.2857142857142858,3.9551522903169265
1.3054945054945055,3.898836625986688
1.3252747252747252,3.8393627672169233
1.3450549450549452,3.7768223670030854
1.3648351648351649,3.711314080204294
1.3846153846153846,3.6429439599514066
1.4043956043956045,3.571825928229955
1.4241758241758242,3.4980823347588124
1.443956043956044,3.421844621091911
1.4637362637362636,3.343254110228445
1.4835164835164834,3.2624629460165187
1.5032967032967033,3.1796352113630273
1.523076923076923,3.094948259787505
1.542857142857143,3.0085943012059
1.5626373626373626,2.9207822899365854
1.5824175824175823,2.8317401705525387
1.6021978021978023,2.7417175448325315
1.621978021978022,2.650988829662935
1.6417582417582417,2.559856979466092
1.6615384615384616,2.468657844438181
1.6813186813186813,2.377765222426081
1.7010989010989013,2.2875966295511665
1.720879120879121,2.1986197504243536
1.7406593406593405,2.1113594153181987
1.7604395604395604,2.0264047652661006
1.7802197802197801,1.9444159784195323
1.7999999999999998,1.866129515410412
1.8197802197802198,1.7923602884692356
1.8395604395604395,1.723998506921791
1.8593406593406594,1.6619983343935758
1.879120879120879,1.6073551949139069
1.8989010989010988,1.5610690415437387
1.9186813186813187,1.52409268413504
1.9384615384615385,1.4972676708071586
1.9582417582417584,1.4812548289659107
1.978021978021978,1.4764709060929058
1.9978021978021978,1.4830445105244847
2.0175824175824175,1.5008018853710159
2.0373626373626372,1.529286134268922
2.0571428571428574,1.5678050283618
2.076923076923077,1.6154961422130805
2.096703296703297,1.6713961321638062
2.1164835164835165,1.7345032763017543
2.1362637362637362,1.8038269101208537
2.1560439560439564,1.878421884363936
2.175824175824176,1.9574093235085213
2.195604395604396,2.039986515116829
2.215384615384615,2.125429083112791
2.2351648351648348,2.21308822566991
2.254945054945055,2.302385161922361
2.2747252747252746,2.3928042893965356
2.2945054945054943,2.4838860215092127
2.314285714285714,2.5752198799504575
2.3340659340659338,2.666438146621497
2.353846153846154,2.7572102063789954
2.3736263736263736,2.8472376073050127
2.3934065934065933,2.936249806791151
2.413186813186813,3.024000542626472
2.4329670329670328,3.1102647569638924
2.452747252747253,3.1948359999310876
2.4725274725274726,3.2775242439705936
2.4923076923076923,3.3581540468353475
2.512087912087912,3.436563008838147
2.5318681318681318,3.512600477522897
2.5516483516483515,3.586126459919813
2.5714285714285716,3.657010708765537
2.5912087912087913,3.7251319544652577
2.610989010989011,3.79037725918208
2.6307692307692307,3.852641473331998
2.6505494505494505,3.911826778029179
2.6703296703296706,3.967842299753906
2.6901098901098903,4.020603785787603
2.70989010989011,4.070033330849395
2.7296703296703297,4.116059146940842
2.7494505494505495,4.158615369714193
2.769230769230769,4.197641895770844
2.7890109890109893,4.233084246208789
2.808791208791209,4.264893452502685
2.8285714285714287,4.293025961444039
2.8483516483516484,4.317443556414121
2.8681318681318677,4.338113292725809
2.887912087912088,4.355007445169082
2.9076923076923076,4.368103466239459
2.9274725274725273,4.377383953830944
2.947252747252747,4.382836627443526
2.9670329670329667,4.384454312197892
2.986813186813187,4.382234930173512
3.0065934065934066,4.376181498796772
3.0263736263736263,4.366302136209106
3.046153846153846,4.352610073746383
3.0659340659340657,4.335123675865355
3.085714285714286,4.313866468066673
3.1054945054945056,4.288867173591777
3.1252747252747253,4.260159759919964
3.145054945054945,4.227783496368453
3.1648351648351647,4.191783024410953
3.184615384615385,4.152208442687575
3.2043956043956046,4.109115409092968
3.2241758241758243,4.06256526281236
3.243956043956044,4.012625169743165
3.2637362637362637,3.959368295410963
3.2835164835164834,3.9028740102866686
3.3032967032967036,3.8432281333626754
3.3230769230769233,3.7805232209834023
3.342857142857143,3.714858909288832
3.3626373626373627,3.6463423202655383
3.3824175824175824,3.575088543363038
3.4021978021978025,3.5012212069893374
3.4219780219780223,3.424873157020434
3.441758241758242,3.346187262825767
3.4615384615384617,3.265317375307558
3.481318681318681,3.182429466156201
3.501098901098901,3.097702982990584
3.520879120879121,3.011332461288259
3.5406593406593405,2.9235294409187564
3.5604395604395602,2.834524742397074
3.58021978021978,2.7445711650785944
3.5999999999999996,2.653946675300136
3.61978021978022,2.5629581549598517
3.6395604395604395,2.4719457769049136
3.659340659340659,2.381288057400676
3.679120879120879,2.291407599542497
3.6989010989010986,2.202777472268124
3.718681318681319,2.1159280499495536
3.7384615384615385,2.0314539441514774
3.758241758241758,1.9500203651722208
3.7780219780219784,1.8723678329563802
3.7978021978021976,1.7993136113146206
3.8175824175824173,1.7317476133879164
3.8373626373626375,1.670619964587413
3.8571428571428568,1.6169172028081833
3.876923076923077,1.5716246907710727
3.896703296703296,1.535674703377512
3.916483516483517,1.5098830648922748
3.936263736263736,1.494881657855062
3.956043956043956,1.491058093817168
3.9758241758241755,1.4985151442286806
3.9956043956043956,1.5170595694231825
4.015384615384615,1.5462231495581675
4.035164835164835,1.5853106811061215
4.054945054945055,1.633463889186809
4.0747252747252745,1.6897286582067481
4.094505494505494,1.753115356976401
4.114285714285715,1.822646371835853
4.134065934065934,1.8973891956272624
4.153846153846154,1.9764763625216997
4.173626373626373,2.059114955412773
4.193406593406594,2.1445887017128085
4.213186813186813,2.232255314679113
4.232967032967033,2.3215411325134205
4.252747252747253,2.4119344972571954
4.2725274725274724,2.5029788083425775
4.292307692307692,2.59426580855452
4.312087912087913,2.685429400765237
4.331868131868132,2.7761401263831718
4.351648351648352,2.8661003348722183
4.371428571428571,2.9550400164079322
4.391208791208792,3.042713240800069
4.410989010989011,3.1288951341818336
4.43076923076923,3.2133793233555865
4.450549450549451,3.295975781465954
4.4703296703296695,3.37650901501434
4.49010989010989,3.4548165394702326
4.50989010989011,3.5307475979467537
4.52967032967033,3.6041620841144133
4.549450549450549,3.6749296365173154
4.569230769230769,3.7429288766732247
4.589010989010989,3.8080467678082894
4.608791208791209,3.870178074862841
4.628571428571428,3.9292249095882448
4.648351648351649,3.9850963472192964
4.6681318681318675,4.037708103429753
4.687912087912088,4.08698226213165
4.707692307692308,4.132847046222644
4.7274725274725276,4.175236624672714
4.747252747252747,4.214090950416336
4.767032967032967,4.249355624415784
4.786813186813187,4.280981782016596
4.806593406593407,4.308925998353218
4.826373626373626,4.333150210102372
4.846153846153847,4.353621651342072
4.8659340659340655,4.370312801669698
4.885714285714286,4.383201345075789
4.905494505494506,4.392270138371591
4.9252747252747255,4.39750718823665
4.945054945054945,4.398905636195839
4.964835164835165,4.396463751059592
4.984615384615385,4.390184928573171
5.004395604395604,4.3800776982259215
5.024175824175824,4.366155737375149
5.043956043956045,4.348437893046965
5.0637362637362635,4.326948211993462
5.083516483516483,4.301715979817682
5.103296703296703,4.272775770231516
5.123076923076923,4.240167505793983
5.142857142857143,4.203936531796215
5.162637362637362,4.164133705324413
5.182417582417583,4.120815501954369
5.2021978021978015,4.074044143023555
5.221978021978022,4.0238877470052925
5.241758241758242,3.970420509193056
5.2615384615384615,3.9137229147134605
5.281318681318681,3.8538819908521402
5.301098901098901,3.7909916058287547
5.320879120879121,3.725152822535527
5.340659340659341,3.6564743174029015
5.36043956043956,3.5850728765302127
5.380219780219781,3.511073983579777
5.3999999999999995,3.434612516748139
5.41978021978022,3.3558335754723774
5.43956043956044,3.274893461475291
5.4593406593406595,3.191960843363709
5.479120879120879,3.1072181393027694
5.498901098901099,3.020863158267265
5.518681318681319,2.9331110468770714
5.538461538461538,2.844196595510249
5.558241758241758,2.7543769635671667
5.578021978021979,2.6639348881819958
5.5978021978021975,2.573182441201897
5.617582417582418,2.4824653923580593
5.637362637362637,2.3921682166518354
5.6571428571428575,2.3027197425384713
5.676923076923077,2.21459936201081
5.696703296703297,2.128343596869522
5.716483516483517,2.044552615328251
5.736263736263735,1.9638959955903605
5.756043956043956,1.887116619948668
5.775824175824176,1.815031059202775
5.795604395604395,1.7485242312358757
5.815384615384615,1.6885356442908168
5.835164835164835,1.6360344555312323
5.854945054945055,1.5919813084362469
5.874725274725275,1.5572768819322742
5.894505494505494,1.5327004178201236
5.914285714285715,1.5188456179292282
5.934065934065933,1.5160647364889015
5.953846153846154,1.5244324713578117
5.973626373626374,1.5437380944285923
5.993406593406593,1.5735077483113724
6.013186813186813,1.613051512204484
6.032967032967033,1.6615247481701751
6.052747252747253,1.7179920624279221
6.072527472527473,1.7814845256606848
6.092307692307692,1.8510448008059006
6.112087912087913,1.9257586926346157
6.131868131868131,2.004774318548129
6.151648351648352,2.0873114220508686
6.171428571428572,2.172663629376209
6.191208791208791,2.2601961329714317
6.210989010989011,2.349340735744649
6.230769230769231,2.439589627924459
6.2505494505494505,2.530488796055648
6.270329670329671,2.62163160867215
6.29010989010989,2.712652876299011
6.309890109890111,2.8032235221557005
6.329670329670329,2.893045900676245
6.349450549450549,2.9818497439365848
6.36923076923077,3.069388686416802
6.3890109890109885,3.1554373057996936
6.408791208791209,3.2397886147502977
6.428571428571428,3.322251941357873
6.4483516483516485,3.402651141378308
6.468131868131868,3.4808230919342624
6.487912087912088,3.5566164229705883
6.507692307692308,3.6298904490239607
6.527472527472527,3.7005142695135813
6.547252747252747,3.7683660107169046
6.567032967032967,3.833332186865779
6.5868131868131865,3.895307161436148
6.606593406593407,3.9541926927757842
6.626373626373626,4.009897550795931
6.6461538461538465,4.062337193613097
6.665934065934065,4.1114334948340545
6.685714285714286,4.157114513686013
6.705494505494506,4.199314301455635
6.725274725274725,4.2379727387563575
6.745054945054945,4.273035399029654
6.764835164835165,4.304453434431121
6.7846153846153845,4.3321834808825335
6.804395604395605,4.3561875796056455
6.824175824175824,4.376433112911103
6.8439560439560445,4.39289275240931
6.863736263736263,4.4055444181530605
6.883516483516484,4.41437124752292
6.903296703296704,4.41936157293588
6.923076923076923,4.420508907702042
6.942857142857143,4.417811939580958
6.962637362637362,4.411274531803433
6.9824175824175825,4.400905731533293
7.002197802197802,4.386719785950702
7.021978021978022,4.368736166350734
7.041758241758242,4.346979600872586
7.061538461538461,4.321480116712748
7.081318681318681,4.292273092935212
7.101098901098901,4.2593993252814375
7.1208791208791204,4.222905104709417
7.140659340659341,4.182842311765527
7.16043956043956,4.139268529324862
7.1802197802197805,4.0922471767394155
7.199999999999999,4.041847669024013
7.21978021978022,3.9881456054063165
7.23956043956044,3.9312229923914037
7.259340659340659,3.871168507470404
7.279120879120879,3.8080778107676063
7.298901098901099,3.7420539133091943
7.318681318681318,3.673207612251808
7.338461538461539,3.601658005382126
7.358241758241758,3.527533099544392
7.3780219780219785,3.450970530433841
7.397802197802197,3.372118414471839
7.417582417582418,3.2911363573115726
7.437362637362638,3.2081966479493365
7.457142857142857,3.123485672437258
7.476923076923077,3.037205586732092
7.496703296703297,2.9495762940623487
7.516483516483516,2.860837777914973
7.536263736263736,2.771252846519857
7.556043956043957,2.6811103471359927
7.575824175824176,2.590728906176017
7.595604395604395,2.5004612405024687
7.615384615384615,2.4106990603032683
7.635164835164835,2.3218785361877745
7.654945054945055,2.2344862202809597
7.674725274725275,2.149065176769489
7.694505494505494,2.0662208718117965
7.7142857142857135,1.9866260762761119
7.734065934065935,1.9110236366214102
7.753846153846154,1.8402254850380118
7.7736263736263735,1.775105760515794
7.793406593406592,1.7165855602345965
7.813186813186814,1.6656069159996154
7.832967032967034,1.6230944665851967
7.852747252747252,1.5899053037803499
7.872527472527472,1.566770616763725
7.892307692307693,1.554236406946846
7.912087912087912,1.5526133090719452
7.931868131868132,1.5619457726905797
7.951648351648351,1.5820076148539228
7.971428571428572,1.6123249919567522
7.991208791208791,1.652221449545766
8.010989010989011,1.7008754439661966
8.03076923076923,1.7573798929320876
8.05054945054945,1.8207954416496266
8.07032967032967,1.8901926761987333
8.09010989010989,1.9646819236127806
8.10989010989011,2.043431665253476
8.129670329670331,2.1256777939358935
8.149450549450549,2.21072623046684
8.169230769230769,2.2979511623897984
8.189010989010988,2.386790692711112
8.20879120879121,2.476741187024851
8.22857142857143,2.567351179270936
8.248351648351647,2.658215368721951
8.268131868131867,2.7489690088636816
8.287912087912087,2.839282834476642
8.307692307692308,2.9288585761836803
8.327472527472528,3.017425054438114
8.347252747252746,3.104734813879645
8.367032967032966,3.1905612445141855
8.386813186813187,3.274696131701299
8.406593406593407,3.356947578153407
8.426373626373627,3.4371382453444252
8.446153846153845,3.5151038672302937
8.465934065934066,3.590691995029163
8.485714285714286,3.6637609374566202
8.505494505494505,3.7341788659923556
8.525274725274725,3.801823059358078
8.545054945054945,3.8665792653929376
8.564835164835165,3.928341161951864
8.584615384615384,3.9870099013762315
8.604395604395604,4.042493725557722
8.624175824175826,4.094707640696173
8.643956043956043,4.143573142598743
8.663736263736263,4.18901798483343
8.683516483516483,4.230975983279459
8.703296703296704,4.269386851650049
8.723076923076924,4.304196063432736
8.742857142857142,4.335354736426159
8.762637362637362,4.362819536674703
8.782417582417583,4.386552599132116
8.802197802197803,4.406521462839641
8.821978021978023,4.422699018796629
8.84175824175824,4.43506346904434
8.86153846153846,4.443598295785794
8.881318681318682,4.448292239635866
8.901098901098901,4.449139286342618
8.920879120879121,4.446138661550431
8.940659340659339,4.439294833394174
8.96043956043956,4.4286175229256495
8.98021978021978,4.414121722586454
9.0,4.395827723158491
9.01978021978022,4.373761149851577
9.03956043956044,4.347953008432308
9.05934065934066,4.318439742566167
9.079120879120879,4.285263303842816
9.098901098901099,4.248471236290889
9.11868131868132,4.2081167775734984
9.138461538461538,4.164258979498599
9.158241758241758,4.116962850994752
9.178021978021977,4.06629952730559
9.197802197802199,4.012346469865773
9.217582417582419,3.9551877021578514
9.237362637362637,3.8949140878390582
9.257142857142856,3.8316236586000736
9.276923076923078,3.765422000608004
9.296703296703297,3.6964227100343923
9.316483516483517,3.6247479301195376
9.336263736263735,3.5505289845261845
9.356043956043957,3.4739071244380257
9.375824175824176,3.3950344100079692
9.395604395604396,3.314074750391363
9.415384615384616,3.231205130716855
9.435164835164835,3.146617058905459
9.454945054945055,3.0605182701071976
9.474725274725275,2.973134731386403
9.494505494505495,2.8847129935962745
9.514285714285714,2.7955229401761112
9.534065934065934,2.7058609822818176
9.553846153846154,2.61605374366784
9.573626373626373,2.5264622631259317
9.593406593406593,2.4374867111438006
9.613186813186815,2.3495715622804134
9.632967032967032,2.263211073963581
9.652747252747252,2.1789547813217376
9.672527472527472,2.0974125099374903
9.692307692307693,2.0192581204400466
9.712087912087913,1.9452308292394367
9.731868131868131,1.876132526339603
9.75164835164835,1.8128191163976166
9.771428571428572,1.7561837072475281
9.791208791208792,1.7071297176289515
9.810989010989012,1.6665329789864092
9.83076923076923,1.635193881796177
9.850549450549451,1.6137834545887788
9.87032967032967,1.6027902946389523
9.89010989010989,1.6024772761803843
9.90989010989011,1.6128566512480595
9.92967032967033,1.6336889867835274
9.94945054945055,1.6645061706950055
9.96923076923077,1.7046534191346596
9.989010989010989,1.7533418287506177
10.008791208791209,1.8097024764958087
10.028571428571428,1.8728349290233635
10.048351648351648,1.9418460190898992
10.068131868131868,2.0158776309813837
10.08791208791209,2.0941242920399876
10.107692307692307,2.1758424442384294
10.127472527472527,2.2603535681359874
10.147252747252747,2.347043156565148
10.167032967032966,2.435357150021482
10.186813186813188,2.52479702157223
10.206593406593406,2.6149143241574766
10.226373626373626,2.7053052187420192
10.246153846153845,2.795605288175005
10.265934065934067,2.885484795816074
10.285714285714286,2.9746444537165786
10.305494505494504,3.0628117075398062
10.325274725274724,3.149737512625722
10.345054945054946,3.23519355893378
10.364835164835165,3.3189698959451195
10.384615384615385,3.4008729078889566
10.404395604395603,3.4807235922292143
10.424175824175824,3.558356098543879
10.443956043956044,3.6336164897448304
10.463736263736264,3.706361692436451
10.483516483516484,3.776458607783022
10.503296703296703,3.843783358396505
10.523076923076923,3.9082206504153114
10.542857142857143,3.969663233123126
10.562637362637362,4.028011441187514
10.582417582417584,4.083172806924578
10.602197802197802,4.135061731969694
10.621978021978022,4.1835992094022485
10.641758241758241,4.228712588780294
10.661538461538463,4.270335377728753
10.681318681318682,4.308407074727419
10.7010989010989,4.342873028593162
10.72087912087912,4.373684320869699
10.740659340659342,4.400797667950163
