Frequency (Hz),Amplitude
0.0,1.4509382211139228
0.04,1.451563843325861
0.08,1.453436645663957
0.12,1.4565444970356656
0.16,1.4608673826635061
0.19999999999999998,1.4663777017853752
0.24,1.4730406692551412
0.27999999999999997,1.480814807086466
0.32,1.4896525095981257
0.36,1.4995006644075983
0.39999999999999997,1.5103013110854506
0.44,1.5219923197511547
0.48,1.5345080731253522
0.52,1.5477801373779785
0.5599999999999999,1.5617379093333636
0.6,1.5763092300225805
0.64,1.5914209570398126
0.6799999999999999,1.6069994905232936
0.72,1.622971249737533
0.76,1.639263099113234
0.7999999999999999,1.655802724168133
0.84,1.6725189589774312
0.88,1.689342067798703
0.9199999999999999,1.706203984110678
0.96,1.7230385107340773
1.0,1.739781484905947
1.04,1.75637091221748
1.0799999999999998,1.772747073237181
1.1199999999999999,1.7888526064609338
1.1600000000000001,1.8046325709874695
1.2,1.8200344920363711
1.24,1.835008392125554
1.28,1.8495068104210666
1.3199999999999998,1.8634848124751247
1.3599999999999999,1.8768999922862668
1.4,1.8897124683532698
1.44,1.9018848751551207
1.48,1.9133823512738892
1.52,1.9241725251860888
1.5599999999999998,1.9342254995801267
1.5999999999999999,1.9435138349114154
1.64,1.9520125327809958
1.68,1.9596990196161566
1.72,1.9665531310405673
1.76,1.972557097245065
1.7999999999999998,1.977695529606387
1.8399999999999999,1.9819554087481601
1.88,1.9853260741947703
1.92,1.9877992157325963
1.9599999999999997,1.9893688665633773
2.0,1.9900313983095983
2.0399999999999996,1.9897855179108013
2.08,1.9886322664312808
2.12,1.986575019782836
2.1599999999999997,1.9836194913498792
2.2,1.9797737364874806
2.2399999999999998,1.9750481588444637
2.28,1.969455518442842
2.3200000000000003,1.9630109414201138
2.36,1.955731931311474
2.4,1.9476383817132241
2.44,1.938752590125493
2.48,1.929099272720129
2.5199999999999996,1.9187055797168893
2.56,1.9076011109759725
2.6,1.8958179313259285
2.6399999999999997,1.883390585041015
2.68,1.8703561087594969
2.7199999999999998,1.8567540419923083
2.76,1.8426264342084973
2.8,1.828017847298612
2.84,1.8129753520092284
2.88,1.7975485167111
2.92,1.7817893866116137
2.96,1.7657524512519431
2.9999999999999996,1.7494945978458774
3.04,1.7330750477278734
3.08,1.7165552728935598
3.1199999999999997,1.699998889350811
3.16,1.683471523772417
3.1999999999999997,1.667040649775558
3.2399999999999998,1.6507753900766908
3.28,1.6347462808155804
3.32,1.6190249945450785
3.36,1.603684018782024
3.4,1.588796287646737
3.44,1.5744347650180015
3.4799999999999995,1.5606719788219705
3.52,1.547579507568676
3.5599999999999996,1.5352274220401578
3.5999999999999996,1.5236836870855952
3.64,1.5130135307265602
3.6799999999999997,1.5032787901219367
3.7199999999999998,1.4945372462562698
3.76,1.4868419613387374
3.7999999999999994,1.4802406346550996
3.84,1.4747749938211006
3.88,1.4704802388766327
3.9199999999999995,1.4673845563053993
3.96,1.465508718790597
4.0,1.4648657843211783
4.04,1.4654609052246903
4.079999999999999,1.4672912539807161
4.12,1.4703460684916179
4.16,1.4746068151301748
4.199999999999999,1.4800474636410679
4.24,1.4866348641274374
4.28,1.4943292131454413
4.319999999999999,1.5030845935347437
4.36,1.5128495711283072
4.4,1.523567830926393
4.4399999999999995,1.5351788356277924
4.4799999999999995,1.547618490466857
4.5200000000000005,1.5608197999481568
4.56,1.5747135041222455
4.6,1.5892286843271861
4.640000000000001,1.6042933306670646
4.68,1.6198348657738573
4.72,1.6357806214971824
4.76,1.6520582670162578
4.8,1.6685961884289284
4.84,1.6853238211305934
4.88,1.7021719372582336
4.92,1.7190728911641882
4.96,1.7359608263328274
5.0,1.7527718473978235
5.039999999999999,1.7694441609963458
5.08,1.7859181891457898
5.12,1.8021366586819694
5.159999999999999,1.8180446700836992
5.2,1.833589748752058
5.24,1.8487218815325108
5.279999999999999,1.8633935409801694
5.319999999999999,1.8775596995839952
5.36,1.8911778358929208
5.3999999999999995,1.904207934231363
5.4399999999999995,1.9166124794564707
5.48,1.9283564479967306
5.52,1.9394072962213127
5.56,1.9497349470216734
5.6,1.9593117753400555
5.64,1.9681125932523884
5.68,1.9761146351038035
5.72,1.9832975431018942
5.76,1.9896433536939364
5.8,1.9951364849879922
5.84,1.999763725422185
5.879999999999999,2.00351422383999
5.92,2.006379481090734
5.96,2.008353343241839
5.999999999999999,2.0094319964620477
6.04,2.009613963610917
6.08,2.00890010254899
6.119999999999999,2.0072936061633952
6.16,2.0048000040847187
6.2,2.00142716605152
6.239999999999999,1.9971853068578895
6.279999999999999,1.9920869927959792
6.32,1.986147149478294
6.359999999999999,1.979383070892736
6.3999999999999995,1.9718144295056172
6.44,1.9634632871829651
6.4799999999999995,1.9543541066470327
6.52,1.9445137631215728
6.56,1.9339715557447852
6.6,1.9227592182412792
6.64,1.9109109282423753
6.68,1.89846331452643
6.72,1.8854554613158472
6.76,1.87192890861453
6.8,1.8579276473976531
6.84,1.8434981082751256
6.88,1.828689142041569
6.92,1.8135519903013042
6.959999999999999,1.798140244119868
7.0,1.7825097884098275
7.04,1.7667187295153373
7.08,1.7508273032279278
7.119999999999999,1.734897760258809
7.16,1.7189942260278954
7.199999999999999,1.7031825315276872
7.239999999999999,1.6875300120056582
7.28,1.6721052703098136
7.32,1.6569779019885122
7.359999999999999,1.6422181796586708
7.3999999999999995,1.6278966947851723
7.4399999999999995,1.6140839558738358
7.4799999999999995,1.6008499431870065
7.52,1.5882636214488741
7.5600000000000005,1.5763924136034335
7.599999999999999,1.56530164048699
7.64,1.5550539332194142
7.68,1.5457086271177007
7.719999999999999,1.5373211478805477
7.76,1.5299424025509758
7.800000000000001,1.523618189190815
7.839999999999999,1.518388640150623
7.88,1.5142877141597395
7.92,1.5113427520930018
7.959999999999999,1.509574110137387
8.0,1.5089948821860437
8.040000000000001,1.50961072069498
8.08,1.5114197620788752
8.12,1.5144126591806586
8.159999999999998,1.518572719646516
8.2,1.5238761454115446
8.24,1.5302923651815314
8.28,1.5377844489825843
8.32,1.5463095916925877
8.36,1.5558196510560418
8.399999999999999,1.566261725041398
8.44,1.5775787534913486
8.48,1.5897101297556462
8.52,1.6025923092606336
8.56,1.6161594036179383
8.6,1.6303437507605218
8.639999999999999,1.6450764535799451
8.68,1.6602878815050102
8.72,1.675908131313883
8.76,1.691867445140112
8.8,1.7080965850747667
8.84,1.7245271649612752
8.879999999999999,1.7410919409249204
8.92,1.7577250628876995
8.959999999999999,1.7743622898135283
9.0,1.7909411717364947
9.040000000000001,1.8074012017767007
9.079999999999998,1.8236839413741448
9.12,1.8397331219002642
9.16,1.8554947256642291
9.2,1.870917049139551
9.24,1.8859507510140887
9.280000000000001,1.9005488874281242
9.32,1.9146669365224176
9.36,1.9282628141795468
9.399999999999999,1.9412968826136128
9.44,1.9537319532497726
9.48,1.9655332851382685
9.52,1.9766685799692503
9.559999999999999,1.9871079745946665
9.6,1.9968240318216754
9.639999999999999,2.0057917301172803
9.68,2.013988452755315
9.72,2.021393976842638
9.76,2.0279904625805467
9.8,2.033762443047814
9.84,2.0386968147325786
9.879999999999999,2.0427828289894956
9.92,2.046012084555232
9.959999999999999,2.0483785212179497
10.0,2.0498784147038545
10.04,2.050510372814772
10.079999999999998,2.050275332824427
10.12,2.0491765601160283
10.16,2.047219648019427
10.2,2.0444125187812032
10.24,2.0407654255746808
10.280000000000001,2.036290955428261
10.319999999999999,2.0310040329182737
10.36,2.024921924436197
10.4,2.0180642427981663
10.44,2.010452951916524
10.48,2.002112371197307
10.52,1.99306917926328
10.559999999999999,1.983352416528165
10.6,1.9729934860630993
10.639999999999999,1.9620261521003137
10.68,1.9504865354105596
10.72,1.9384131046697717
10.76,1.925846662796388
10.799999999999999,1.9128303270942892
10.84,1.8994095018783654
10.879999999999999,1.885631842092276
10.92,1.8715472062539562
10.96,1.8572075968883754
11.0,1.8426670864347277
11.04,1.827981726454631
11.08,1.8132094378289658
11.12,1.7984098795259096
11.16,1.7836442934660097
11.2,1.7689753230189131
11.24,1.7544668027590347
11.28,1.7401835173042406
11.319999999999999,1.7261909273830869
11.36,1.7125548617411444
11.4,1.6993411741222058
11.44,1.6866153653566376
11.48,1.6744421715599502
11.52,1.6628851205829225
11.559999999999999,1.6520060601392048
11.6,1.6418646624319335
11.64,1.632517911554564
11.68,1.6240195813841805
11.72,1.6164197130347926
11.759999999999998,1.6097641020997608
11.799999999999999,1.604093806789591
11.84,1.599444688570503
11.879999999999999,1.5958469969512945
11.92,1.5933250095952838
11.96,1.5918967379268756
11.999999999999998,1.5915737068729547
12.04,1.5923608153836
12.08,1.594256282008828
12.12,1.597251677195389
12.16,1.60133204125937
12.200000000000001,1.6064760843441563
12.239999999999998,1.612656462241538
12.28,1.6198401198688936
12.32,1.6279886925592804
12.36,1.6370589541977878
12.4,1.6470033006496625
12.44,1.657770256857376
12.479999999999999,1.669304996385546
12.52,1.681549862989376
12.559999999999999,1.6944448848835747
12.6,1.7079282736977306
12.64,1.7219369015262433
12.68,1.7364067509308716
12.719999999999999,1.7512733341596987
12.76,1.7664720791522535
12.799999999999999,1.7819386810672524
12.84,1.7976094190734797
12.88,1.8134214389757535
12.92,1.8293130029078102
12.959999999999999,1.8452237078219351
12.999999999999998,1.8610946748563708
13.04,1.876868711884724
13.08,1.8924904516666468
13.12,1.9079064680462985
13.16,1.9230653726030789
13.2,1.937917894065388
13.239999999999998,1.9524169426673728
13.28,1.9665176614735393
13.32,1.980177466527056
13.36,1.993356077502915
13.4,2.00601554037285
13.44,2.018120243420081
13.479999999999999,2.0296369277815387
13.52,2.0405346935454967
13.559999999999999,2.0507850022945986
13.6,2.060361676858818
13.64,2.069240898929584
13.68,2.0774012050851347
13.719999999999999,2.0848234816869615
13.76,2.091490959027563
13.799999999999999,2.0973892050392773
13.84,2.102506118811876
13.88,2.106831924111705
13.919999999999998,2.1103591630464895
13.959999999999999,2.1130826899762645
14.0,2.1149996657314425
14.04,2.116109552162685
14.08,2.116414107013116
14.120000000000001,2.1159173790705754
14.16,2.114625703525355
14.2,2.1125476974260424
14.239999999999998,2.1096942550923146
14.28,2.106078543307726
14.32,2.10171599607706
14.36,2.096624308691037
14.399999999999999,2.0908234307952513
14.44,2.084335558109768
14.479999999999999,2.0771851223900546
14.52,2.0693987791585426
14.56,2.0610053926687932
14.6,2.052036017490682
14.64,2.042523876025505
14.68,2.0325043311744393
14.719999999999999,2.022014853293489
14.76,2.0110949804736133
14.799999999999999,1.9997862710881364
14.84,1.988132247452924
14.879999999999999,1.976178329351225
14.919999999999998,1.963971756088472
14.959999999999999,1.951561495667386
15.0,1.9389981396164213
15.04,1.9263337819714828
15.079999999999998,1.9136218809101146
15.120000000000001,1.900917101577306
15.159999999999998,1.8882751387323553
15.199999999999998,1.8757525179963426
15.24,1.863406374699298
15.28,1.8512942096236908
15.319999999999999,1.839473621323474
15.36,1.8280020151700205
15.399999999999999,1.8169362898385415
15.439999999999998,1.8063325025970232
15.48,1.796245515484387
15.52,1.7867286252488683
15.559999999999999,1.7778331807378474
15.600000000000001,1.7696081922550715
15.639999999999999,1.7620999381932043
15.679999999999998,1.7553515749653126
15.72,1.7494027568526562
15.76,1.7442892728114368
15.799999999999999,1.7400427074955167
15.84,1.7366901337198863
15.879999999999999,1.7342538432868444
15.919999999999998,1.7327511225138157
15.96,1.732194077945627
16.0,1.7325895166304601
16.04,1.73393888403008
16.080000000000002,1.736238261179042
16.12,1.7394784211733492
16.16,1.743644943531209
16.200000000000003,1.7487183835023203
16.24,1.754674492077028
16.279999999999998,1.76148448132156
16.319999999999997,1.7691153287844168
16.36,1.7775301141088249
16.4,1.7866883806556015
16.439999999999998,1.7965465148820046
16.48,1.8070581364118832
16.52,1.8181744921364742
16.56,1.8298448482612553
16.6,1.8420168749166466
16.64,1.8546370187327734
16.68,1.8676508595979555
16.72,1.8810034486386864
16.759999999999998,1.8946396252442776
16.799999999999997,1.9085043116872722
16.84,1.9225427845443244
16.88,1.9367009226907896
16.919999999999998,1.9509254321212661
16.96,1.96516404823803
17.0,1.9793657165538598
17.04,1.9934807529816234
17.080000000000002,2.007460985038978
17.12,2.0212598753916855
17.16,2.0348326292030494
17.2,2.048136286759244
17.24,2.061129802809296
17.279999999999998,2.0737741140022408
17.32,2.086032195729214
17.36,2.097869109590925
17.4,2.1092520426157835
17.44,2.120150339255093
17.48,2.130535527081892
17.52,2.1403813370219833
17.56,2.1496637188508014
17.6,2.1583608525993125
17.64,2.166453156426919
17.68,2.1739232914395843
17.72,2.1807561638572595
17.759999999999998,2.1869389248660993
17.799999999999997,2.1924609684274636
17.84,2.197313927257154
17.88,2.201491667133948
17.919999999999998,2.2049902796461276
17.96,2.2078080734373153
18.0,2.209945563968613
18.04,2.211405461771486
18.080000000000002,2.2121926591253325
18.12,2.2123142150540898
18.159999999999997,2.2117793384974522
18.2,2.2105993694740214
18.24,2.208787758015241
18.279999999999998,2.2063600406106136
18.32,2.2033338138658247
18.36,2.1997287050362857
18.4,2.1955663390591296
18.44,2.190870301667323
18.48,2.185666098130222
18.52,2.1799811071267245
18.560000000000002,2.1738445292204176
18.6,2.167287329371947
18.64,2.160342172893544
18.679999999999996,2.1530433542254297
18.72,2.1454267178956012
18.759999999999998,2.1375295710152775
18.799999999999997,2.1293905866639964
18.84,2.1210496975337976
18.88,2.1125479792335717
18.919999999999998,2.1039275227051606
18.96,2.095231295275045
19.0,2.086502989962078
19.04,2.0777868627849783
19.080000000000002,2.0691275579652992
19.119999999999997,2.0605699211032364
19.159999999999997,2.0521588006159384
19.2,2.043938837969261
19.24,2.035954247502819
19.279999999999998,2.028248586940483
19.32,2.020864519988885
19.36,2.013843572747321
19.4,2.0072258859752528
19.44,2.0010499655764225
19.48,1.9953524339502773
19.52,1.9901677851177855
19.560000000000002,1.985528146736788
19.6,1.9814630522680003
19.639999999999997,1.97799922662494
19.68,1.9751603886288
19.72,1.9729670734858729
19.759999999999998,1.971436478306419
19.8,1.970582333390651
19.84,1.9704148016249627
19.88,1.970940407868848
19.919999999999998,1.972161999684553
19.96,1.9740787401845126
20.0,1.9766861331665448
20.04,1.9799760800954547
20.08,1.9839369678944558
20.119999999999997,1.9885537859518403
20.159999999999997,1.9938082702469382
20.2,1.9996790720704634
20.24,2.0061419484698546
20.279999999999998,2.0131699712978284
20.32,2.020733751584924
20.36,2.028801675892963
20.4,2.037340151330959
20.44,2.046313856018839
20.48,2.0556859919570933
20.52,2.065418537488743
20.560000000000002,2.075472496810467
20.599999999999998,2.085808144289303
20.639999999999997,2.0963852616562426
20.68,2.1071633664677667
20.72,2.1181019305398228
20.759999999999998,2.12916058735813
20.8,2.1402993277474147
20.84,2.1514786833352697
20.88,2.1626598975710962
20.92,2.17380508425527
20.96,2.184877373698
21.0,2.1958410467622183
21.04,2.2066616571515625
21.08,2.2173061423854867
21.119999999999997,2.227742923960935
21.159999999999997,2.2379419972367045
21.2,2.247875011595308
21.24,2.2575153414404983
21.279999999999998,2.266838148579061
21.32,2.2758204365156045
21.36,2.284441097160849
21.4,2.2926809504192005
21.44,2.3005227770820396
21.48,2.307951345410345
21.52,2.3149534317453
21.56,2.3215178354395016
21.599999999999998,2.327635388354852
21.639999999999997,2.3332989591271462
21.68,2.338503452352029
21.72,2.343245802803108
21.759999999999998,2.347524964750648
21.8,2.351341896409018
21.84,2.3546995395030113
21.88,2.357602793907724
21.92,2.3600584872839647
21.96,2.362075339601672
22.0,2.363663922417655
22.04,2.364836612751672
22.08,2.3656075413867166
22.119999999999997,2.365992535405869
22.16,2.3660090547697443
22.2,2.365676122735962
22.24,2.365014249925613
22.28,2.36404535185243
22.32,2.3627926597483526
22.36,2.3612806245455844
22.4,2.3595348139103023
22.44,2.3575818022676183
22.48,2.355449053811522
22.519999999999996,2.353164798557778
22.56,2.350757901572077
22.599999999999998,2.348257725590147
22.639999999999997,2.3456939873404288
22.68,2.343096607982931
22.72,2.340495558188373
22.759999999999998,2.3379206984988414
22.8,2.335401615732488
22.84,2.3329674563182436
22.88,2.3306467575694705
22.92,2.3284672780245677
22.96,2.3264558280946157
23.0,2.3246381023596894
23.04,2.3230385149424078
23.08,2.3216800394565493
23.119999999999997,2.3205840550760453
23.16,2.319770200292829
23.2,2.3192562359278006
23.24,2.319057918926001
23.28,2.3191888884035294
23.32,2.31966056531992
23.36,2.320482067026187
23.400000000000002,2.3216601377875214
23.44,2.3231990962036124
23.479999999999997,2.325100800252388
23.519999999999996,2.3273646304695026
23.56,2.329987491551237
23.599999999999998,2.3329638324384088
23.639999999999997,2.3362856847093463
23.68,2.3399427188867783
23.72,2.3439223180522837
23.759999999999998,2.3482096679677467
23.8,2.352787862730455
23.84,2.3576380248406275
23.88,2.3627394384397022
23.92,2.368069694386273
23.96,2.3736048457746537
23.999999999999996,2.37931957246809
24.04,2.3851873532135417
24.08,2.391180643925379
24.119999999999997,2.397271060768703
24.16,2.403429566736222
24.2,2.409626660492087
24.24,2.415832566348321
24.28,2.422017424340827
24.32,2.4281514794789523
24.36,2.4342052693519665
24.400000000000002,2.4401498093845015
24.439999999999998,2.445956775138402
24.479999999999997,2.451598681158276
24.52,2.4570490559502636
24.56,2.4622826127666313
24.599999999999998,2.467275415941552
24.64,2.4720050425846516
24.68,2.4764507394882975
24.72,2.4805935751411057
24.759999999999998,2.4844165867639956
24.8,2.4879049222956664
24.84,2.4910459772517917
24.88,2.4938295263663393
24.92,2.496247849894097
24.959999999999997,2.498295854411141
24.999999999999996,2.499971187894026
25.04,2.501274348789622
25.08,2.5022087887052664
25.119999999999997,2.5027810082539395
25.16,2.5030006454814564
25.2,2.5028805561828276
25.24,2.5024368852837973
25.28,2.501689128322038
25.32,2.5006601819123855
25.36,2.49937638192378
25.4,2.4978675279351656
25.439999999999998,2.4961668923773086
25.479999999999997,2.4943112126117786
25.52,2.4923406640532297
25.56,2.490298812313321
25.599999999999998,2.488232542242583
25.64,2.4861919616795602
25.68,2.4842302776952043
25.72,2.4824036431563266
25.76,2.480770971537067
25.8,2.4793937180937404
25.84,2.47833562579792
25.880000000000003,2.47766243480512
25.919999999999998,2.4774415547296695
25.959999999999997,2.4777416996042803
25.999999999999996,2.4786324861246865
26.04,2.4801839966085484
26.08,2.482466309019858
26.119999999999997,2.4855489974033658
26.16,2.489500607108477
26.2,2.4943881102206484
26.24,2.5002763476163254
26.28,2.5072274649651933
26.32,2.515300350769249
26.36,2.5245500851011387
26.4,2.5350274080379753
26.439999999999998,2.5467782168442645
26.479999999999997,2.559843100713549
26.52,2.5742569213233915
26.56,2.5900484466005502
26.599999999999998,2.6072400439587433
26.64,2.6258474379039134
26.68,2.6458795353594966
26.72,2.66733832041611
26.76,2.6902188185312834
26.8,2.7145091285713048
26.84,2.7401905195694973
26.88,2.7672375877349626
26.919999999999998,2.795618468130815
26.959999999999997,2.8252950945836037
27.0,2.856223500801772
27.04,2.888354155370212
27.08,2.921632323235462
27.119999999999997,2.955998446475885
27.16,2.9913885375278197
27.2,3.027734578572703
27.24,3.0649649214393553
27.28,3.103004683099051
27.32,3.141776132590724
27.36,3.18119906597658
27.4,3.2211911666669577
27.439999999999998,3.261668349146222
27.479999999999997,3.3025450847633526
27.52,3.3437347088119185
27.56,3.385149708609318
27.599999999999998,3.4267019926938946
27.64,3.468303141592537
27.68,3.5098646408761827
27.72,3.5512980974215487
27.76,3.592515439942482
27.8,3.63342910495067
27.839999999999996,3.6739522093608246
27.88,3.713998710977251
27.919999999999998,3.753483558093555
27.959999999999997,3.792322829411328
28.0,3.8304338654423518
28.04,3.8677353925067215
28.08,3.9041476403804136
28.12,3.939592454583343
28.16,3.97399340423546
28.2,4.007275886346263
28.240000000000002,4.039367227343672
