Time (s),Filtered Signal
0.0,0.057555276347550165
0.03337004405286344,0.11823813782667308
0.06674008810572687,0.25411683853272987
0.10011013215859031,0.5129152232365792
0.13348017621145375,0.893055810122721
0.16685022026431717,1.3406738359164585
0.20022026431718062,1.7647506864291493
0.23359030837004408,2.065263090459195
0.2669603524229075,2.1644000407177644
0.3003303964757709,2.0298120969464386
0.33370044052863435,1.6822819279513788
0.3670704845814978,1.1866375966518217
0.40044052863436125,0.6310460458268414
0.43381057268722467,0.10312015149301304
0.46718061674008815,-0.3294154475373815
0.5005506607929515,-0.629150937236594
0.533920704845815,-0.7899916948921414
0.5672907488986785,-0.8308553139857372
0.6006607929515418,-0.7853698167910089
0.6340308370044053,-0.6911001235413
0.6674008810572687,-0.581416073563883
0.7007709251101322,-0.48193271911682756
0.7341409691629956,-0.41142706833062204
0.767511013215859,-0.3848456257030799
0.8008810572687225,-0.41469295416394997
0.834251101321586,-0.5078898061620337
0.8676211453744493,-0.6582383248520999
0.9009911894273128,-0.8385417863610903
0.9343612334801763,-0.9987616961060641
0.9677312775330397,-1.0752623266191008
1.001101321585903,-1.0110218958984625
1.0344713656387665,-0.7800555005306044
1.06784140969163,-0.40501849040541416
1.1012114537444935,0.042017342688556024
1.134581497797357,0.4591730231739563
1.1679515418502202,0.7492836116123525
1.2013215859030837,0.8564447599164652
1.2346916299559472,0.7893502382222821
1.2680616740088106,0.6202213899585464
1.3014317180616741,0.4573991698855992
1.3348017621145374,0.40088152102327723
1.3681718061674009,0.4986166026958219
1.4015418502202643,0.7228377334227034
1.4349118942731278,0.9783383948737936
1.4682819383259913,1.14080959032555
1.5016519823788548,1.1094237296492302
1.535022026431718,0.8506885145539886
1.5683920704845815,0.4140936933917753
1.601762114537445,-0.08713453760698325
1.6351321585903085,-0.520867490465492
1.668502202643172,-0.7858958842271144
1.7018722466960352,-0.8451457826771761
1.7352422907488987,-0.7301327464364855
1.7686123348017622,-0.5188309770898722
1.8019823788546256,-0.30054465683803977
1.8353524229074891,-0.1445224414246375
1.8687224669603526,-0.08382690718114877
1.9020925110132159,-0.11655899920707158
1.9354625550660793,-0.21834760077865625
1.9688325991189428,-0.3567368127533845
2.002202643171806,-0.500350236674295
2.0355726872246698,-0.6212284856603233
2.068942731277533,-0.6938132077744903
2.1023127753303967,-0.6956257642861062
2.13568281938326,-0.6121573399167857
2.1690528634361232,-0.44400097413288636
2.202422907488987,-0.21115454253079413
2.23579295154185,0.050067139655365224
2.269162995594714,0.29817939532127424
2.302533039647577,0.5014306618007561
2.3359030837004404,0.6490385140433288
2.369273127753304,0.7521167278019927
2.4026431718061674,0.8324825373670383
2.436013215859031,0.904328657339052
2.4693832599118943,0.9588391421888502
2.5027533039647576,0.9617848114468224
2.5361233480176213,0.8679996383677288
2.5694933920704845,0.6471407411616161
2.6028634361233483,0.3075966701082575
2.6362334801762115,-0.09533439574365273
2.6696035242290748,-0.47368998287824543
2.7029735682819385,-0.738709065974306
2.7363436123348017,-0.8360371090345458
2.7697136563876654,-0.7677437534377806
2.8030837004405287,-0.590698976415274
2.8364537444933924,-0.3919079397460756
2.8698237885462556,-0.25190540308719345
2.903193832599119,-0.21246955990362462
2.9365638766519826,-0.2626803922491624
2.969933920704846,-0.34889516939304266
3.0033039647577096,-0.4032686354887443
3.036674008810573,-0.3768735889506575
3.070044052863436,-0.2614143038078262
3.1034140969162998,-0.08939872542092156
3.136784140969163,0.08607880757700502
3.1701541850220267,0.2199391488160647
3.20352422907489,0.29590882561688175
3.2368942731277532,0.32849658464985065
3.270264317180617,0.34677335807452786
3.30363436123348,0.3715229955066852
3.337004405286344,0.40086781683595124
3.370374449339207,0.4135473831701206
3.4037444933920704,0.3874568640228604
3.437114537444934,0.3209559448416554
3.4704845814977974,0.24195003608356205
3.503854625550661,0.1965093704964284
3.5372246696035243,0.22123120759990889
3.5705947136563876,0.3146329632643974
3.6039647577092513,0.42578174836222565
3.6373348017621145,0.47043465379510885
3.6707048458149782,0.3697573876438421
3.7040748898678415,0.09271437252435118
3.737444933920705,-0.32082587426901754
3.7708149779735685,-0.7700749505757825
3.8041850220264317,-1.1326077963681633
3.8375550660792954,-1.3133304526264116
3.8709251101321587,-1.278808743170914
3.9042951541850224,-1.0616045910267353
3.9376651982378856,-0.7361690821794952
3.971035242290749,-0.38242672485431123
4.004405286343612,-0.05724180664237442
4.037775330396476,0.2137893094316707
4.0711453744493395,0.42548344738840743
4.104515418502203,0.5753659420095739
4.137885462555066,0.6534137464656323
4.171255506607929,0.6465113330536724
4.2046255506607935,0.5538095349669379
4.237995594713657,0.4010571714623621
4.27136563876652,0.24162959472266615
4.304735682819383,0.13950362185995577
4.3381057268722465,0.1404252160615235
4.371475770925111,0.2457141424528965
4.404845814977974,0.40380406282762665
4.438215859030837,0.5269236734538977
4.4715859030837,0.5278572614281105
4.504955947136564,0.36077818910161563
4.538325991189428,0.04664898409559263
4.571696035242291,-0.3300067230733449
4.605066079295154,-0.652768604659111
4.638436123348018,-0.8194399258152517
4.671806167400881,-0.7816193538246798
4.705176211453745,-0.5602113863003069
4.738546255506608,-0.23151789438237416
4.7719162995594715,0.10716519276891759
4.805286343612335,0.37468110379968683
4.838656387665198,0.5290234184272297
4.872026431718062,0.5687968090322865
4.905396475770925,0.5178234339073954
4.938766519823789,0.4055389016679805
4.972136563876652,0.2554991381070645
5.005506607929515,0.0865662818482716
5.038876651982379,-0.07862476744127485
5.072246696035243,-0.20891420916516634
5.105616740088106,-0.2718844300678657
5.138986784140969,-0.25197087571725324
5.172356828193832,-0.16830581307010556
5.2057268722466965,-0.07797011937262684
5.23909691629956,-0.05693689023638838
5.272466960352423,-0.16410370300369773
5.305837004405286,-0.4056194859517997
5.3392070484581495,-0.7197099300562966
5.372577092511014,-0.9936920097736536
5.405947136563877,-1.108661548531766
5.43931718061674,-0.9919672254777532
5.4726872246696034,-0.6518362927433141
5.506057268722468,-0.17639914604251491
5.539427312775331,0.30275250724452496
5.572797356828194,0.6642169566273581
5.606167400881057,0.8413697768611916
5.639537444933921,0.8381614239366418
5.672907488986785,0.7131202638872008
5.706277533039648,0.5450120543330189
5.739647577092511,0.4001736429885952
5.7730176211453745,0.31562540788939386
5.806387665198238,0.29935567737899105
5.839757709251102,0.33909428179486656
5.873127753303965,0.40975622685408714
5.9064977973568284,0.4765223699527257
5.939867841409692,0.498299686238384
5.973237885462555,0.43794685490504287
6.006607929515419,0.2794811456831645
6.039977973568282,0.04357411705466901
6.073348017621146,-0.21111763593268953
6.106718061674009,-0.4073592620661388
6.140088105726872,-0.483266465278991
6.173458149779736,-0.4233963931478635
6.2068281938325995,-0.26860932152404027
6.240198237885463,-0.09740644570960663
6.273568281938326,0.011876150389114937
6.306938325991189,0.017304761940375748
6.3403083700440535,-0.07115399247421261
6.373678414096917,-0.20294871872829648
6.40704845814978,-0.3155580479341901
6.440418502202643,-0.3628750990968542
6.4737885462555065,-0.3294188477193028
6.507158590308371,-0.227506169715549
6.540528634361234,-0.08471742420097689
6.573898678414097,0.06795999654100172
6.60726872246696,0.20131514990673913
6.640638766519824,0.28756764991740225
6.674008810572688,0.3000693396365506
6.707378854625551,0.21789012878793323
6.740748898678414,0.035562972399706703
6.774118942731278,-0.22668435952466695
6.807488986784141,-0.5190888928339547
6.840859030837005,-0.7699569304477778
6.874229074889868,-0.9047686739577472
6.9075991189427315,-0.8710681218821408
6.940969162995595,-0.6597003859799272
6.974339207048458,-0.31321869641701167
7.007709251101322,0.0833794954893767
7.041079295154185,0.42780097935923195
7.074449339207049,0.6334894766693817
7.107819383259912,0.6590839634093811
7.141189427312775,0.5233706153317756
7.174559471365639,0.29930338652865407
7.207929515418503,0.08796420646099183
7.241299559471366,-0.018909714393296577
7.274669603524229,0.026007818243765884
7.308039647577092,0.20693981539165787
7.3414096916299565,0.4509934651939648
7.37477973568282,0.6574848538513642
7.408149779735683,0.7393974315394262
7.441519823788546,0.6599147063236658
7.47488986784141,0.4480509732545831
7.508259911894274,0.18573892667114822
7.541629955947137,-0.02859681989413439
7.575,-0.12353371624975305
7.608370044052863,-0.08464964000339184
7.641740088105728,0.04326992401145867
7.675110132158591,0.18197938363540278
7.708480176211454,0.2591859727585792
7.741850220264317,0.24085546257462517
7.775220264317181,0.140794255856547
7.808590308370045,0.005257211749736554
7.841960352422908,-0.1162623357184538
7.875330396475771,-0.19697286727959043
7.9087004405286345,-0.2423269218116853
7.942070484581498,-0.2804733400407211
7.975440528634362,-0.3414017575850296
8.008810572687224,-0.43757046368263697
8.042180616740088,-0.5564791622487538
8.075550660792953,-0.6680802309851481
8.108920704845815,-0.7415637326871435
8.142290748898679,-0.7612716841762166
8.175660792951541,-0.73254632243919
8.209030837004406,-0.6744262954396246
8.24240088105727,-0.6039445807078854
8.275770925110132,-0.5220591519760795
8.309140969162996,-0.4108344326417702
8.342511013215859,-0.24519000429024912
8.375881057268723,-0.013529917346119634
8.409251101321587,0.26495162067947253
8.44262114537445,0.5381907642747819
8.475991189427313,0.7385503349268545
8.509361233480176,0.812418755858247
8.54273127753304,0.746924219330205
8.576101321585904,0.5787734425910817
8.609471365638766,0.37915424528873903
8.64284140969163,0.22146382532155287
8.676211453744493,0.14810993838661946
8.709581497797357,0.15348199581209113
8.742951541850221,0.19196850035819837
8.776321585903084,0.2069534789988653
8.809691629955948,0.16564885791900122
8.84306167400881,0.08101565448561102
8.876431718061674,0.008010616513983689
8.909801762114538,0.014482875662708916
8.9431718061674,0.1408704962699297
8.976541850220265,0.36997955403150257
9.009911894273127,0.6241621798550667
9.043281938325991,0.7937361932314196
9.076651982378856,0.7845597398067943
9.110022026431718,0.5627130475326563
9.143392070484582,0.17517346439180784
9.176762114537445,-0.2637344627436869
9.210132158590309,-0.6150630552474525
9.243502202643173,-0.7694211510312993
9.276872246696035,-0.6900782521473734
9.3102422907489,-0.4272597433983778
9.343612334801762,-0.09815084583263646
9.376982378854626,0.15845676451919916
9.41035242290749,0.23376561945711785
9.443722466960352,0.0863574411382432
9.477092511013216,-0.24741157000587857
9.510462555066079,-0.670492380395275
9.543832599118943,-1.05976173522671
9.577202643171807,-1.304147713524738
9.61057268722467,-1.3345707230734631
9.643942731277534,-1.1394006507861965
9.677312775330396,-0.763937517624922
9.71068281938326,-0.29537225455084326
9.744052863436124,0.16312731881619424
9.777422907488987,0.5228372317988867
9.81079295154185,0.7353069783134017
9.844162995594713,0.8040585198759683
9.877533039647577,0.7764977187093901
9.910903083700441,0.7181956122219998
9.944273127753304,0.6801396334011207
9.977643171806168,0.6740409263351824
10.01101321585903,0.6681472266021914
10.044383259911895,0.6066477115553021
10.077753303964759,0.4438981184101837
10.111123348017621,0.17643336356093411
10.144493392070485,-0.14426990989586336
10.177863436123348,-0.4265508733981467
10.211233480176212,-0.5756622562804482
10.244603524229076,-0.5365486205817024
10.277973568281938,-0.32198217889257424
10.311343612334802,-0.01196140855900835
10.344713656387665,0.2764414948910151
10.378083700440529,0.4357150576321859
10.411453744493393,0.41030308075260136
10.444823788546255,0.2163194273311924
10.47819383259912,-0.06894922784224597
10.511563876651982,-0.34133007755166384
10.544933920704846,-0.5113299037704294
10.57830396475771,-0.5348959540086692
10.611674008810573,-0.42224624319379606
10.645044052863437,-0.22477547175263246
10.678414096916299,-0.009362181440576165
10.711784140969163,0.16723150246753227
10.745154185022027,0.27408813689708783
10.77852422907489,0.30851755065129044
10.811894273127754,0.28763014879175436
10.845264317180618,0.2350776832622201
10.87863436123348,0.16947351724331183
10.912004405286345,0.09928909037754298
10.945374449339207,0.02577397328606783
10.978744493392071,-0.04851915686246655
11.012114537444935,-0.11132023781841852
11.045484581497798,-0.13888020004006835
11.078854625550662,-0.10456016208357523
11.112224669603524,0.004454964284118244
11.145594713656388,0.17078280152117034
11.178964757709252,0.34191642092747704
11.212334801762115,0.44411173316010827
11.245704845814979,0.4129329899829931
11.279074889867841,0.22754277869052156
11.312444933920705,-0.06964443518609871
11.34581497797357,-0.3818337817302122
11.379185022026432,-0.5954009659859154
11.412555066079296,-0.6301445147685509
11.445925110132158,-0.4773369371788201
11.479295154185023,-0.2053017344822999
11.512665198237887,0.07121116566500128
11.546035242290749,0.24239465844081645
11.579405286343613,0.24946867544871082
11.612775330396476,0.10350028099298567
11.64614537444934,-0.12930643457534843
11.679515418502204,-0.3644485174682285
11.712885462555066,-0.5370966573447016
11.74625550660793,-0.6229610026276101
11.779625550660793,-0.635560568303001
11.812995594713657,-0.6062830993026954
11.846365638766521,-0.5606335700649344
11.879735682819383,-0.5030173844009959
11.913105726872248,-0.4159506133861678
11.94647577092511,-0.27221516732801176
11.979845814977974,-0.05331871709568933
12.013215859030838,0.23439602362999284
12.0465859030837,0.5536762315822692
12.079955947136565,0.8442924897451424
12.113325991189427,1.0432038270465336
12.146696035242291,1.109288943505521
12.180066079295155,1.0417517328157984
12.213436123348018,0.8828999951320756
12.246806167400882,0.7023659441408451
12.280176211453744,0.5683882140364989
12.313546255506608,0.5184646132265439
12.346916299559473,0.5430090156561163
12.380286343612335,0.5904460446939185
12.413656387665199,0.5923834401783382
12.447026431718061,0.4974997463933577
12.480396475770926,0.2976108860138075
12.51376651982379,0.03229269653028993
12.547136563876652,-0.23115722862228105
12.580506607929516,-0.4325958028843559
12.613876651982379,-0.5502802745137898
12.647246696035243,-0.6110497466646841
12.680616740088107,-0.6728601879963442
12.71398678414097,-0.7882110071092752
12.747356828193833,-0.9680929326963563
12.780726872246696,-1.166812181423468
12.81409691629956,-1.2976932317728112
12.847466960352424,-1.2736007220867418
12.880837004405286,-1.0528917151876636
12.91420704845815,-0.6677022217548606
12.947577092511013,-0.21922017384668666
12.980947136563877,0.1600112792081838
13.014317180616741,0.3609668059492367
13.047687224669604,0.3456068844507709
13.081057268722468,0.164744159228175
13.11442731277533,-0.06305217397018605
13.147797356828194,-0.2031322472408228
13.181167400881058,-0.1641254200095357
13.21453744493392,0.06215076886667073
13.247907488986785,0.3988278460689674
13.281277533039647,0.7209899622039285
13.314647577092511,0.9136467880813732
13.348017621145376,0.9224590881661251
13.381387665198238,0.7727754799619343
13.414757709251102,0.5490134257338528
13.448127753303964,0.3471377613124052
13.481497797356829,0.22667192267996242
13.514867841409693,0.1876324307205818
13.548237885462555,0.1826662777736704
13.58160792951542,0.1543750147350477
13.614977973568282,0.07420713870696287
13.648348017621146,-0.039920021508923424
13.68171806167401,-0.13605215401013165
13.715088105726872,-0.1611394956533682
13.748458149779736,-0.09351923990483599
13.781828193832599,0.044098136322197105
13.815198237885463,0.19694903916097853
13.848568281938327,0.30610462592547216
13.88193832599119,0.33421729921197
13.915308370044054,0.27538676350414387
13.948678414096916,0.14751808505897304
13.98204845814978,-0.023148962244717193
14.015418502202644,-0.21277941050366558
14.048788546255507,-0.39998388986430505
14.08215859030837,-0.5594507939405078
14.115528634361233,-0.6593613839338958
14.148898678414097,-0.669947013799402
14.182268722466961,-0.5810990424334685
14.215638766519824,-0.4177482955194845
14.249008810572688,-0.23970076216135783
14.28237885462555,-0.12014041053146304
14.315748898678414,-0.11022584277987921
14.349118942731279,-0.2080450313081481
14.382488986784141,-0.3511396718249897
14.415859030837005,-0.4408024405649193
14.449229074889868,-0.3887908872078263
14.482599118942732,-0.1632388701116785
14.515969162995596,0.19078117721464466
14.549339207048458,0.5678763852847755
14.582709251101322,0.848288685521095
14.616079295154185,0.9499437891718922
14.649449339207049,0.8607033479256614
14.682819383259913,0.6360578002719941
14.716189427312775,0.36593753202233775
14.74955947136564,0.13002017343414124
14.782929515418502,-0.03442649312831665
14.816299559471366,-0.13678511597091536
14.84966960352423,-0.21094329386462196
14.883039647577093,-0.28353779036591087
14.916409691629957,-0.35377738796766367
14.94977973568282,-0.3969979292402722
14.983149779735683,-0.3875886831620892
15.016519823788547,-0.3238165328196319
15.04988986784141,-0.23597384624257198
15.083259911894274,-0.17079561393332332
15.116629955947138,-0.16147426227217235
15.15,-0.20290039036382815
15.183370044052865,-0.2491080836409793
15.216740088105727,-0.2360748628023892
15.250110132158591,-0.11716253804374945
15.283480176211455,0.10916728757429098
15.316850220264318,0.3946972718544834
15.350220264317182,0.661412098124258
15.383590308370044,0.8342030160915359
15.416960352422908,0.8692525726035538
15.450330396475772,0.7658415379398796
15.483700440528635,0.5596873323762344
15.517070484581499,0.30500289002622444
15.550440528634361,0.05556934667559953
15.583810572687225,-0.14797845397726928
15.61718061674009,-0.2832679244442042
15.650550660792952,-0.3464539272334569
15.683920704845816,-0.35050598029448143
15.717290748898678,-0.32163528838531336
15.750660792951543,-0.29178893463975
15.784030837004407,-0.286377715414951
15.817400881057269,-0.3108505516295335
15.850770925110133,-0.3438831698698346
15.884140969162996,-0.3444796028997785
15.91751101321586,-0.2735647359437835
15.950881057268724,-0.12082698664613069
15.984251101321586,0.07877039901667275
16.01762114537445,0.25166303891808467
16.050991189427315,0.3164780625294734
16.084361233480177,0.22514252160880202
16.11773127753304,-0.007776947729061091
16.151101321585905,-0.3052818559631916
16.184471365638768,-0.5600332799824624
16.21784140969163,-0.6827731057255919
16.251211453744492,-0.6418877125680121
16.284581497797358,-0.4734929785670316
16.31795154185022,-0.25759479202850294
16.351321585903083,-0.07423703185877197
16.38469162995595,0.03633617856946418
16.41806167400881,0.08891453685458837
16.451431718061674,0.13776749081120493
16.48480176211454,0.2409077985750741
16.518171806167402,0.4245783640253908
16.551541850220264,0.6663792894143391
16.584911894273127,0.9038751965245242
16.618281938325993,1.0617467506592468
16.651651982378855,1.0823948521470244
16.685022026431717,0.9459681748094587
16.718392070484583,0.6738001251806165
16.751762114537446,0.3182859253292582
16.785132158590308,-0.05304378295192839
16.818502202643174,-0.3725940153382313
16.851872246696036,-0.584548830430477
16.8852422907489,-0.6543527982151681
16.91861233480176,-0.576449450278476
16.951982378854627,-0.37827254892165124
16.98535242290749,-0.11686809050761501
17.01872246696035,0.13365580546041123
17.052092511013218,0.3012199249221945
17.08546255506608,0.33507003334174756
17.118832599118942,0.21878310285656213
17.152202643171808,-0.026285834645577565
17.18557268722467,-0.34651109414954584
17.218942731277533,-0.6679524564899317
17.2523127753304,-0.9125494883980825
17.28568281938326,-1.0168369928876513
17.319052863436124,-0.9502396177348883
17.352422907488986,-0.727420199548677
17.385792951541852,-0.4079188453356033
