Frequency (Hz),Amplitude
0.0,3.580383087347265
0.019823788546255508,3.5786415171928874
0.039647577092511016,3.5734185962183327
0.059471365638766524,3.5647196918906654
0.07929515418502203,3.552553746675914
0.09911894273127755,3.53693327313146
0.11894273127753305,3.5178743471591045
0.13876651982378857,3.4953965995474836
0.15859030837004406,3.469523205975982
0.17841409691629956,3.440280875702623
0.1982378854625551,3.407699839214729
0.2180616740088106,3.3718138351897062
0.2378854625550661,3.3326600971933784
0.25770925110132165,3.290279340639805
0.27753303964757714,3.2447157506569604
0.29735682819383263,3.196016971647265
0.31718061674008813,3.1442340995155846
0.3370044052863437,3.089421677765726
0.3568281938325991,3.031637698955555
0.37665198237885467,2.9709436133707428
0.3964757709251102,2.907404347251112
0.41629955947136565,2.841088333518668
0.4361233480176212,2.772067558759807
0.4559471365638767,2.7004176312719563
0.4757709251101322,2.626217876392195
0.49559471365638774,2.549551467211784
0.5154185022026433,2.470505601336591
0.5352422907488987,2.3891717378518087
0.5550660792951543,2.3056459134878677
0.5748898678414097,2.2200291637577703
0.5947136563876653,2.132428084430693
0.6145374449339208,2.0429555824796832
0.6343612334801763,1.9517318856868366
0.6541850220264318,1.8588859097018922
0.6740088105726874,1.7645571257900714
0.6938325991189428,1.6688981403316656
0.7136563876651982,1.57207830250893
0.7334801762114539,1.4742888234246023
0.7533039647577093,1.375750159142343
0.7731277533039648,1.2767228534206492
0.7929515418502204,1.1775237799186646
0.8127753303964759,1.0785509939933602
0.8325991189427313,0.9803225988631671
0.8524229074889869,0.8835388205160237
0.8722466960352424,0.7891828426237227
0.8920704845814978,0.6986855590723219
0.9118942731277534,0.6141890869267913
0.931718061674009,0.5389320204888529
0.9515418502202644,0.4776637905242764
0.9713656387665199,0.4365996520605528
0.9911894273127755,0.4218600559892138
1.0110132158590308,0.43617997980406303
1.0308370044052866,0.47689873877061256
1.0506607929515421,0.5379200318169802
1.0704845814977975,0.6130136856773135
1.090308370044053,0.6974061603604147
1.1101321585903086,0.7878393635303542
1.1299559471365639,0.8821580919919019
1.1497797356828194,0.9789231575377062
1.1696035242290752,1.0771461560047704
1.1894273127753305,1.1761235287411087
1.209251101321586,1.2753349954402953
1.2290748898678416,1.3743810402856897
1.248898678414097,1.4729437822936362
1.2687224669603525,1.570761963072922
1.288546255506608,1.667614604998685
1.3083700440528636,1.7633101052989826
1.3281938325991192,1.857678812087799
1.3480176211453747,1.950567878191213
1.36784140969163,2.041837635230676
1.3876651982378856,2.1313590016225312
1.4074889867841411,2.2190116061184493
1.4273127753303965,2.3046824145877327
1.4471365638766522,2.388264716001037
1.4669603524229078,2.469657368288275
1.4867841409691631,2.548764234529797
1.5066079295154187,2.6254937600997854
1.5264317180616742,2.6997586552277606
1.5462555066079295,2.771475657090383
1.5660792951541853,2.840565352351922
1.5859030837004409,2.90695204593529
1.6057268722466962,2.9705636653196374
1.6255506607929517,3.03133169222833
1.6453744493392073,3.08919111546635
1.6651982378854626,3.1440804000789075
1.6850220264317182,3.1959414690656245
1.7048458149779737,3.244719694691234
1.7246696035242293,3.2903638970511193
1.7444933920704848,3.332826348026276
1.7643171806167404,3.3720627791329623
1.7841409691629957,3.408032392062897
1.8039647577092512,3.440697870939437
1.8237885462555068,3.470025395498393
1.8436123348017623,3.495984654548944
1.863436123348018,3.5185488591895933
1.8832599118942732,3.5376947553516533
1.9030837004405288,3.5534026353237746
1.9229074889867843,3.5656563479786803
1.9427312775330399,3.5744433074813404
1.9625550660792954,3.57975450030749
1.982378854625551,3.5815844904461183
2.002202643171806,3.579931422699065
2.0220264317180616,3.5747970240284443
2.041850220264317,3.5661866029382807
2.061674008810573,3.5541090469115533
2.0814977973568287,3.5385768179600605
2.1013215859030843,3.5196059463820686
2.1211453744493394,3.4972160228631224
2.140969162995595,3.4714301891011723
2.1607929515418505,3.442275127187771
2.180616740088106,3.4097810480369684
2.2004405286343616,3.3739816792229975
2.220264317180617,3.334914252671754
2.2400881057268722,3.2926194927511436
2.2599118942731278,3.2471416054293623
2.2797356828193833,3.1985282693214936
2.299559471365639,3.146830629634241
2.319383259911895,3.092103296255823
2.3392070484581504,3.0344043475381945
2.3590308370044055,2.9737953417014675
2.378854625550661,2.910341338282351
2.3986784140969166,2.8441109326847824
2.418502202643172,2.7751763077231124
2.4383259911894277,2.7036133071424477
2.4581497797356833,2.629501537555623
2.4779735682819384,2.5529245071854434
2.497797356828194,2.4739698124393374
2.5176211453744495,2.3927293869514634
2.537444933920705,2.3092998327127368
2.5572687224669606,2.223782859879346
2.577092511013216,2.1362858717115287
2.5969162995594717,2.0469227452290033
2.6167400881057272,1.955814878707304
2.6365638766519828,1.8630926074212006
2.6563876651982383,1.7688971343870263
2.676211453744494,1.673383191887296
2.6960352422907494,1.5767227564889226
2.715859030837005,1.4791103089354283
2.73568281938326,1.380770401390383
2.7555066079295156,1.2819687385254535
2.775330396475771,1.18302871939288
2.7951541850220267,1.0843566409057948
2.8149779735682823,0.986480906514877
2.834801762114538,0.8901142279715407
2.854625550660793,0.7962537814115442
2.874449339207049,0.7063429271746609
2.8942731277533045,0.6225256295334135
2.91409691629956,0.548009224502073
2.9339207048458156,0.48743557696890355
2.953744493392071,0.44679387695788436
2.9735682819383262,0.4319248525858524
2.993392070484582,0.4454763013208095
3.0132158590308373,0.4850250191062129
3.033039647577093,0.5448078156403627
3.0528634361233484,0.6187942968757746
3.072687224669604,0.7022701727019866
3.092511013215859,0.7919677019399938
3.1123348017621146,0.8857015676387746
3.1321585903083706,0.9820018359179985
3.151982378854626,1.079854440896996
3.1718061674008817,1.178535812907741
3.1916299559471373,1.2775104198896923
3.2114537444933924,1.376367166234071
3.231277533039648,1.4747793358353125
3.2511013215859035,1.5724788683372288
3.270925110132159,1.6692394924250764
3.2907488986784146,1.7648654378251405
3.31057268722467,1.859183733557283
3.3303964757709252,1.9520388588687243
3.350220264317181,2.04328896798519
3.3700440528634363,2.132803187195741
3.389867841409692,2.2204596552124434
3.4096916299559474,2.306144086959311
3.4295154185022034,2.3897487113920213
3.4493392070484585,2.4711714801893767
3.469162995594714,2.5503154750114985
3.4889867841409696,2.627088461932523
3.508810572687225,2.7014025560366086
3.5286343612334807,2.773173969194797
3.5484581497797363,2.8423228211230938
3.5682819383259914,2.908772998886321
3.588105726872247,2.9724520536750814
3.6079295154185025,3.033291126359914
3.627753303964758,3.0912248953047095
3.6475770925110136,3.1461915413951007
3.667400881057269,3.1981327263477426
3.6872246696035247,3.2469935812085953
3.7070484581497802,3.2927227025930943
3.726872246696036,3.3352721547194966
3.7466960352422913,3.3745974756734367
3.7665198237885464,3.410657686646095
3.7863436123348024,3.4434153031283694
3.8061674008810575,3.472836347234749
3.8259911894273135,3.4988903604847104
3.8458149779735686,3.521550416493996
3.8656387665198246,3.540793133130699
3.8854625550660797,3.5565986837753365
3.905286343612335,3.568950807395713
3.925110132158591,3.5778368172075345
3.9449339207048464,3.5832476077445268
3.964757709251102,3.5851776602080334
3.9845814977973575,3.5836250460086854
4.004405286343612,3.578591428451409
4.024229074889869,3.5700820625532694
4.044052863436123,3.5581057930205975
4.06387665198238,3.5426750504500797
4.083700440528634,3.5238058458586683
4.103524229074891,3.5015177636905293
4.123348017621146,3.475833953497908
4.143171806167401,3.4467811205474437
4.162995594713657,3.4143895156676605
4.182819383259912,3.378692924728107
4.2026431718061685,3.3397286582307713
4.222466960352423,3.2975375416027712
4.242290748898679,3.252163906912097
4.262114537444934,3.203655586891829
4.28193832599119,3.1520639123620824
4.301762114537445,3.097443714394201
4.321585903083701,3.0398533328850137
4.3414096916299565,2.979354633620319
4.361233480176212,2.9160130364354693
4.381057268722468,2.8498975577643084
4.400881057268723,2.781080871760032
4.420704845814979,2.7096393953442264
4.440528634361234,2.6356534040965087
4.46035242290749,2.559207187979869
4.4801762114537445,2.4803892587115954
4.500000000000001,2.399292624430338
4.5198237885462555,2.3160151526082955
4.539647577092512,2.230660049546333
4.559471365638767,2.143336495218581
4.579295154185023,2.0541604871362193
4.599118942731278,1.963255968484631
4.618942731277533,1.8707563474909732
4.63876651982379,1.776806562246766
4.658590308370044,1.6815659167968504
4.678414096916301,1.5852120245268326
4.6982378854625555,1.4879463674955025
4.718061674008811,1.3900022553941664
4.737885462555067,1.2916564134895239
4.757709251101322,1.1932461622126957
4.777533039647578,1.095195371533964
4.797356828193833,0.9980544110726997
4.817180616740089,0.9025626699652987
4.837004405286344,0.8097474357038831
4.856828193832599,0.7210797128758034
4.876651982378855,0.6387110301687468
4.896475770925111,0.5657933310738658
4.9162995594713665,0.5067694375903038
4.936123348017622,0.46720761103567826
4.955947136563877,0.4524147679572337
4.975770925110133,0.46482192826134844
4.995594713656388,0.5023753354008809
5.015418502202644,0.5599129676749449
5.035242290748899,0.6318109098000978
5.055066079295155,0.7135072031555844
5.07488986784141,0.8017440741819668
5.094713656387666,0.894294577013476
5.114537444933921,0.9896378677622979
5.134361233480177,1.0867143411314788
5.154185022026432,1.1847635284487574
5.174008810572688,1.283221074568935
5.193832599118943,1.3816536246360882
5.213656387665199,1.4797172692776932
5.2334801762114544,1.5771305909305098
5.25330396475771,1.6736568530322857
5.2731277533039655,1.7690920063175553
5.292951541850221,1.863256464149492
5.312775330396477,1.9559893659634515
5.332599118942731,2.0471445135715487
5.352422907488988,2.136587452038254
5.372246696035242,2.224193346661071
5.392070484581499,2.309845422237382
5.4118942731277535,2.393433805150293
5.43171806167401,2.4748546578266004
5.451541850220265,2.5540095279558996
5.47136563876652,2.630804857184561
5.491189427312777,2.7051516093952284
5.511013215859031,2.7769649894434973
5.530837004405288,2.8461642308397908
5.550660792951542,2.9126724363200815
5.570484581497798,2.976416459200601
5.5903083700440535,3.03732681630428
5.610132158590309,3.095337625385796
5.6299559471365646,3.1503865615786073
5.64977973568282,3.202414828590369
5.669603524229076,3.2513671412867255
5.689427312775331,3.29719171700415
5.709251101321586,3.339840273472895
5.729074889867842,3.3792680316527828
5.748898678414098,3.415433722114474
5.768722466960353,3.4482995938605354
5.788546255506609,3.4778314246888495
5.808370044052864,3.503998532368412
5.82819383259912,3.5267737860334525
5.848017621145375,3.546133617313409
5.867841409691631,3.562058030808191
5.887665198237886,3.5745306135961137
5.907488986784142,3.5835385435276925
5.927312775330397,3.589072596115715
5.9471365638766525,3.5911271498833037
5.966960352422908,3.589700190077032
5.986784140969164,3.5847933106960683
6.00660792951542,3.5764117148288013
6.026431718061675,3.564564213330203
6.04625550660793,3.549263221914726
6.066079295154186,3.5305247567839984
6.085903083700441,3.508368428956948
6.105726872246697,3.482817437523429
6.125550660792952,3.453898562103802
6.145374449339208,3.421642154867699
6.1651982378854635,3.3860821325490096
6.185022026431718,3.347255968994129
6.204845814977975,3.3052046889015565
6.224669603524229,3.2599728635587533
6.244493392070486,3.2116086095644616
6.264317180616741,3.1601635917515227
6.284140969162996,3.105693031809515
6.303964757709252,3.0482557244652266
6.323788546255507,2.9879140635363313
6.3436123348017635,2.9247340807590945
6.363436123348018,2.858785501048012
6.3832599118942746,2.790141818830992
6.403083700440529,2.718880401397416
6.422907488986785,2.645082626909392
6.44273127753304,2.568834067013723
6.462555066079296,2.4902247270750206
6.482378854625551,2.409349361245518
6.502202643171807,2.3263078853548205
6.5220264317180625,2.241205918617729
6.541850220264318,2.1541554964231833
6.561674008810574,2.065276012491818
6.581497797356829,1.9746954717730651
6.601321585903085,1.8825521691524563
6.62114537444934,1.7889969589268373
6.640969162995596,1.6941963549384684
6.6607929515418505,1.5983368155060858
6.680616740088107,1.5016307441325294
6.700440528634362,1.4043250147683357
6.720264317180618,1.3067132727490294
6.740088105726873,1.209153974404879
6.759911894273129,1.1120972794521056
6.779735682819384,1.0161257580200769
6.799559471365639,0.9220167433232488
6.819383259911895,0.8308382051528834
6.83920704845815,0.7440941589876819
6.859030837004407,0.6639338717275537
6.8788546255506615,0.5934105082453865
6.898678414096917,0.5366674593111141
6.918502202643173,0.49868978415443577
6.938325991189428,0.48407889367784357
6.958149779735684,0.49496857687816465
6.977973568281939,0.529751546485215
6.997797356828195,0.5840573151611416
7.01762114537445,0.6528528265650898
7.037444933920705,0.7318370337477722
7.0572687224669615,0.817802090505314
7.077092511013216,0.9084815020432795
7.096916299559473,1.002290369609223
7.116740088105728,1.0981066142503935
7.136563876651983,1.1951167929610063
7.156387665198239,1.2927139705418977
7.176211453744494,1.3904312581642895
7.19603524229075,1.487898476692937
7.215859030837005,1.5848135855769085
7.235682819383261,1.6809235625999541
7.255506607929516,1.7760113979059775
7.275330396475772,1.8698871015287841
7.295154185022027,1.9623813880212728
7.314977973568283,2.053341176177851
7.334801762114538,2.1426263392407274
7.354625550660794,2.230107329898932
7.374449339207049,2.31566342616737
7.394273127753305,2.3991814239274336
7.4140969162995605,2.480554654851883
7.433920704845816,2.559682244122668
7.453744493392072,2.63646854674644
7.473568281938327,2.7108227181741515
7.493392070484583,2.782658386791693
7.513215859030838,2.8518934042727992
7.533039647577093,2.9184496558370974
7.552863436123348,2.9822529168518783
7.572687224669605,3.043232745441305
7.59251101321586,3.101322403156305
7.612334801762115,3.1564587975459375
7.6321585903083715,3.208582441818943
7.651982378854627,3.257637427810945
7.671806167400882,3.3035714092595003
7.691629955947137,3.3463355929979786
7.711453744493394,3.3858847361538857
7.731277533039649,3.4221771478096032
7.751101321585904,3.4551746938782006
7.7709251101321595,3.484842804182846
7.790748898678416,3.511150480916593
7.81057268722467,3.5340703078138533
7.830396475770926,3.553578459490071
7.850220264317182,3.5696547105110064
7.870044052863436,3.5822824438401173
7.889867841409693,3.5914486583881473
7.909691629955948,3.5971439754526546
7.929515418502204,3.5993626438942967
7.9493392070484585,3.598102543947504
7.969162995594715,3.5933651896129537
7.9889867841409705,3.585155729625846
8.008810572687224,3.5734829470407825
8.02863436123348,3.558359257521889
8.048458149779737,3.5398007064774295
8.068281938325994,3.517826965233367
8.088105726872246,3.492461326501728
8.107929515418503,3.463730699469433
8.12775330396476,3.4316656049150267
8.147577092511014,3.3963001708565437
8.167400881057269,3.3576721293479346
8.187224669603525,3.3158228151812987
8.207048458149782,3.2707971674203704
8.226872246696036,3.222643734900126
8.246696035242293,3.1714146870862856
8.266519823788547,3.117165832013394
8.286343612334802,3.0599566434287384
8.306167400881058,2.999850299789901
8.325991189427315,2.936913738428832
8.345814977973568,2.871217729052533
8.365638766519824,2.802836971864979
8.38546255506608,2.731850227052258
8.405286343612337,2.658340484297717
8.42511013215859,2.582395183553826
8.444933920704846,2.5041065017355124
8.464757709251103,2.423571724657553
8.484581497797357,2.3408937299112584
8.504405286343614,2.256181615183408
8.524229074889869,2.1695515188245222
8.544052863436125,2.0811276968527532
8.56387665198238,1.991043945418863
8.583700440528636,1.8994454936874159
8.60352422907489,1.8064915447179346
8.623348017621145,1.712358720002121
8.643171806167402,1.617245780609887
8.662995594713658,1.521380176280367
8.682819383259913,1.4250272480558979
8.702643171806168,1.3285033352325355
8.722466960352424,1.232194698661137
8.74229074889868,1.1365851942049805
8.762114537444935,1.0422971684516107
8.78193832599119,0.9501522085686397
8.801762114537446,0.8612608711897007
8.821585903083701,0.7771515359470664
8.841409691629957,0.6999416484677282
8.861233480176212,0.6325223114223347
8.881057268722468,0.5786366296073542
8.900881057268723,0.5425739047017851
8.92070484581498,0.5281528074820158
8.940528634361234,0.5371790266599773
8.960352422907489,0.5685064182097427
8.980176211453745,0.6186491936253424
9.000000000000002,0.6833094031771889
9.019823788546258,0.7585681873969908
9.039647577092511,0.8413347610057882
9.059471365638768,0.9293268806086593
9.079295154185024,1.020895474166668
9.099118942731279,1.1148456434984126
9.118942731277533,1.2102976566788137
9.13876651982379,1.3065889640482362
9.158590308370046,1.4032075952229615
9.1784140969163,1.499747319175893
9.198237885462555,1.5958773568991929
9.218061674008812,1.6913217270905565
9.237885462555067,1.7858449845683997
9.257709251101323,1.8792422388414542
9.27753303964758,1.9713320728826271
9.297356828193834,2.0619514534224175
9.317180616740089,2.1509520276705554
9.337004405286345,2.238197398399828
9.356828193832602,2.323561098531544
9.376651982378855,2.406925072113399
9.396475770925111,2.4881785262131944
9.416299559471367,2.567217057483167
9.436123348017622,2.6439419841920846
9.455947136563877,2.718259833391824
9.475770925110133,2.790081946207936
9.49559471365639,2.8593241737564523
9.515418502202644,2.925906643055884
9.5352422907489,2.9897535773099557
9.555066079295155,3.050793158624411
9.57488986784141,3.1089574239617765
9.594713656387666,3.1641821871936884
9.614537444933923,3.2164069816652336
9.634361233480178,3.265575018871399
9.654185022026432,3.311633159757577
9.674008810572689,3.3545318958617365
9.693832599118945,3.394225338067348
9.713656387665198,3.4306712111694044
9.733480176211454,3.463830852799305
9.75330396475771,3.493669215528405
9.773127753303967,3.5201548711913437
9.792951541850222,3.5432600166488424
9.812775330396477,3.562960480357421
9.832599118942733,3.579235729235008
9.852422907488988,3.5920688754142045
9.872246696035244,3.6014466825620555
9.892070484581499,3.6073595715213957
9.911894273127754,3.609801625095913
9.93171806167401,3.6087705918622346
9.951541850220266,3.604267888949694
9.971365638766521,3.5962986037831564
9.991189427312776,3.5848714948392564
10.011013215859032,3.56999899152231
10.030837004405289,3.5516971933256993
10.050660792951543,3.5299858685091845
10.070484581497798,3.5048884525945136
10.090308370044054,3.4764320470641983
10.11013215859031,3.444647418743598
10.129955947136565,3.4095690004589887
10.14977973568282,3.3712348936988743
10.169603524229077,3.3296868741680767
10.189427312775331,3.284970401322066
10.209251101321588,3.237134633212723
10.229074889867842,3.1862324482786164
10.248898678414099,3.1323204760901042
10.268722466960353,3.0754591395339963
10.28854625550661,3.0157127115237596
10.308370044052865,2.9531493900880768
10.32819383259912,2.887841396675612
10.348017621145376,2.8198651037889046
10.367841409691632,2.749301199721799
10.387665198237887,2.676234900358097
10.407488986784141,2.600756220879193
10.427312775330398,2.5229603240868093
10.447136563876654,2.4429479672425565
10.466960352422909,2.3608260763840674
10.486784140969164,2.2767084867557257
10.50660792951542,2.1907169013921037
10.526431718061675,2.1029821386296392
10.546255506607931,2.0136457657926683
10.566079295154186,1.9228622540835016
10.585903083700442,1.83080184419855
10.605726872246697,1.7376543915721596
10.625550660792953,1.6436345768584
10.645374449339208,1.5489890401786057
10.665198237885463,1.4540062551220214
10.685022026431719,1.3590303417774106
