Time (s),Filtered Signal
0.0,0.05233712134942185
0.03337008452774715,-0.3379548131623414
0.0667401690554943,-0.6507382295106628
0.10011025358324147,-0.8250319618456347
0.1334803381109886,-0.8306082920748398
0.16685042263873576,-0.6750674415000713
0.20022050716648293,-0.40167822229782135
0.23359059169423008,-0.07756567385454591
0.2669606762219772,0.22490795162292548
0.30033076074972437,0.4478157392202184
0.3337008452774715,0.5617862526987702
0.36707092980521866,0.5699206799944769
0.40044101433296586,0.5008774076533292
0.433811098860713,0.39475814536874987
0.46718118338846015,0.28801232520221043
0.5005512679162073,0.20335940729364627
0.5339213524439544,0.14786619012346355
0.5672914369717016,0.11818094153711212
0.6006615214994487,0.1085406568215011
0.6340316060271959,0.11625490086146982
0.667401690554943,0.1414226409529677
0.7007717750826902,0.1815513551069157
0.7341418596104373,0.22531033773960232
0.7675119441381845,0.25071752309731704
0.8008820286659317,0.23079641150339317
0.8342521131936789,0.14523613803305516
0.867622197721426,-0.00760417315388496
0.9009922822491732,-0.20527304692407972
0.9343623667769203,-0.4065722564827912
0.9677324513046675,-0.566351270981097
1.0011025358324146,-0.653161893654221
1.0344726203601617,-0.6612226520457624
1.0678427048879089,-0.6107942941421513
1.101212789415656,-0.5370024361456295
1.1345828739434032,-0.4730842467368984
1.1679529584711503,-0.43665670016958796
1.2013230429988975,-0.42548814012090325
1.2346931275266446,-0.423706876157944
1.2680632120543918,-0.41361450673512296
1.301433296582139,-0.38553003157142157
1.334803381109886,-0.3398284100383612
1.3681734656376332,-0.28046656366694395
1.4015435501653803,-0.2048307765519536
1.4349136346931275,-0.09747179088437193
1.4682837192208746,0.06647711383111518
1.5016538037486218,0.3078910621307085
1.535023888276369,0.626235068055203
1.568393972804116,0.9876726541683919
1.6017640573318634,1.3268007762441762
1.6351341418596106,1.5640111247173114
1.6685042263873577,1.6326228151734907
1.7018743109151049,1.504386000731731
1.735244395442852,1.2018042545344199
1.7686144799705992,0.7913311256458251
1.8019845644983463,0.36017665546025524
1.8353546490260935,-0.013169367042898023
1.8687247335538406,-0.28224327693606643
1.9020948180815878,-0.44097617689907936
1.935464902609335,-0.5158909005328729
1.968834987137082,-0.5481971863069386
2.002205071664829,-0.5752924961982344
2.0355751561925763,-0.6194683733948448
2.0689452407203235,-0.6863518487448793
2.1023153252480706,-0.7701207267282435
2.1356854097758178,-0.8599125494439681
2.169055494303565,-0.9431708541141609
2.202425578831312,-1.005483101522561
2.235795663359059,-1.0298427667936705
2.2691657478868064,-0.9988057594759306
2.3025358324145535,-0.9004260393608928
2.3359059169423007,-0.7351526140537786
2.369276001470048,-0.5189162553745439
2.402646085997795,-0.2791105836872871
2.436016170525542,-0.04434471618738448
2.4693862550532892,0.16698601293923696
2.5027563395810364,0.35294589383188174
2.5361264241087835,0.5253437290625848
2.5694965086365307,0.6992995125855562
2.602866593164278,0.8807418451262748
2.636236677692025,1.0586461213390044
2.669606762219772,1.2061698430186245
2.7029768467475193,1.290081881905445
2.7363469312752664,1.2837674466689912
2.7697170158030135,1.1777025530401253
2.8030871003307607,0.9830122892897801
2.836457184858508,0.7273295368101845
2.869827269386255,0.4456858202885094
2.903197353914002,0.1709018600400214
2.9365674384417493,-0.07275469667872067
2.9699375229694964,-0.27135770752222466
3.0033076074972436,-0.41991509410232764
3.0366776920249907,-0.5202905650694378
3.070047776552738,-0.5800735993545472
3.103417861080485,-0.6119471005467495
3.136787945608232,-0.6316692671692069
3.1701580301359793,-0.6533346470355964
3.203528114663727,-0.6829049366181688
3.236898199191474,-0.7133840982455594
3.270268283719221,-0.7254253295446336
3.3036383682469683,-0.6947915360334231
3.3370084527747155,-0.6041058789786539
3.3703785373024626,-0.45322277955786094
3.4037486218302098,-0.26251988165710666
3.437118706357957,-0.06680163498317175
3.470488790885704,0.09755938421936386
3.503858875413451,0.20607806319351704
3.5372289599411983,0.2539844550535775
3.5705990444689455,0.25548674885832184
3.6039691289966926,0.2359901493115445
3.63733921352444,0.22174138538007793
3.670709298052187,0.2314006963098475
3.704079382579934,0.2717686858307122
3.7374494671076812,0.3372647146899707
3.7708195516354284,0.4115672032647934
3.8041896361631755,0.47050624158752763
3.8375597206909227,0.48670722464532307
3.87092980521867,0.43687394527136797
3.904299889746417,0.3110564562447089
3.937669974274164,0.12060241645741795
3.9710400588019112,-0.10006863625541668
4.004410143329658,-0.30123152427699884
4.0377802278574055,-0.433965938419987
4.071150312385153,-0.46825648770081785
4.1045203969129,-0.404485374711192
4.137890481440647,-0.272410213423309
4.171260565968394,-0.11811292150354834
4.204630650496141,0.014354065993696801
4.238000735023888,0.09764278854707686
4.2713708195516356,0.12601082063684968
4.304740904079383,0.11023633395377883
4.33811098860713,0.06746980769081916
4.371481073134877,0.01252931206290022
4.404851157662624,-0.045141636388321964
4.438221242190371,-0.09888130534467579
4.471591326718118,-0.1401325879667061
4.504961411245866,-0.15614406320740098
4.538331495773613,-0.13257193221771763
4.57170158030136,-0.060047144539128385
4.605071664829107,0.05909056842801675
4.638441749356854,0.20821287085526374
4.671811833884601,0.3601153806565283
4.7051819184123485,0.4855758002447155
4.738552002940096,0.5625551836005855
4.771922087467843,0.5816382202081681
4.80529217199559,0.5457068934407872
4.838662256523337,0.465190014942909
4.872032341051084,0.35236531146551453
4.905402425578831,0.21792300191322114
4.9387725101065785,0.07081190831919233
4.972142594634326,-0.08006991383227967
5.005512679162073,-0.22487810551442705
5.03888276368982,-0.3541904978741336
5.072252848217567,-0.46226808068620084
5.105622932745314,-0.5498059866524818
5.138993017273061,-0.6234508555634298
5.1723631018008085,-0.6910816022047284
5.205733186328556,-0.7547336783941537
5.239103270856303,-0.805294966468783
5.27247335538405,-0.8230304058709217
5.305843439911797,-0.7851803113073936
5.339213524439544,-0.6776839876328584
5.372583608967291,-0.5050208277455058
5.4059536934950385,-0.29234994647977175
5.439323778022786,-0.07779495035070638
5.472693862550533,0.10209832387892649
5.50606394707828,0.2269745009445642
5.539434031606027,0.30043096105866435
5.572804116133774,0.3474033130815009
5.606174200661521,0.4026053121010907
5.6395442851892685,0.4953148026041571
5.672914369717016,0.6368159818591984
5.706284454244763,0.8149870630135491
5.73965453877251,0.9972660195053751
5.773024623300257,1.1402420166035523
5.806394707828004,1.2024237513263283
5.839764792355751,1.1563909561856287
5.873134876883499,0.9970673727006686
5.906504961411246,0.7438513708012532
5.939875045938993,0.4357463652154926
5.97324513046674,0.12053711100751946
6.006615214994487,-0.15879925069978285
6.039985299522234,-0.37575980339744736
6.073355384049981,-0.525631555244277
6.106725468577729,-0.6224633492084807
6.140095553105476,-0.6893681641539786
6.173465637633223,-0.7467710148454435
6.20683572216097,-0.8037479209305806
6.240205806688717,-0.8555286871450212
6.273575891216464,-0.8869884260230441
6.3069459757442115,-0.879504680297843
6.340316060271959,-0.8180462072087672
6.373686144799706,-0.6964656112326417
6.407056229327454,-0.5204209163477796
6.440426313855201,-0.3080289229973079
6.473796398382948,-0.08808509631224223
6.507166482910695,0.10476156567359997
6.540536567438442,0.23812073679398035
6.5739066519661895,0.2919637494635153
6.607276736493937,0.26742806660677626
6.640646821021684,0.19002638994614013
6.674016905549431,0.10415115588539513
6.707386990077178,0.059161828136403985
6.740757074604925,0.09149179375601328
6.774127159132672,0.20988912029360962
6.8074972436604195,0.3904088411436929
6.840867328188167,0.5839866002864138
6.874237412715914,0.7339774741157558
6.907607497243661,0.7965192652385871
6.940977581771408,0.7552162052525476
6.974347666299155,0.6242190949906202
7.007717750826902,0.4391702194789902
7.0410878353546495,0.24108105249646666
7.074457919882397,0.061183487650230954
7.107828004410144,-0.08640520989818659
7.141198088937891,-0.20205167512056257
7.174568173465638,-0.2914030156180431
7.207938257993385,-0.35628937419160295
7.241308342521132,-0.3916372302425593
7.27467842704888,-0.39003704167816355
7.308048511576627,-0.3504676593217789
7.341418596104374,-0.28477317868559715
7.374788680632121,-0.2166195722880685
7.408158765159868,-0.1722491240253019
7.441528849687615,-0.16770778824863225
7.4748989342153624,-0.20003490430118692
7.50826901874311,-0.24820551321794418
7.541639103270857,-0.2841000877490938
7.575009187798604,-0.28762569816131106
7.608379272326351,-0.2571823094833744
7.641749356854098,-0.20903196214850842
7.675119441381845,-0.1655958049551246
7.7084895259095925,-0.13943027450402654
7.74185961043734,-0.12251190310150686
7.775229694965087,-0.08769913403606673
7.808599779492834,-0.002439408084742464
7.841969864020581,0.1521112623276879
7.875339948548328,0.36652686870311435
7.908710033076075,0.6008827952745722
7.9420801176038225,0.7965460348320913
7.97545020213157,0.89706025619144
8.008820286659317,0.8693156542854571
8.042190371187063,0.7164714905409916
8.075560455714811,0.4778105778472405
8.108930540242557,0.21582257349642486
8.142300624770305,-0.004722669994598393
8.175670709298052,-0.13842848610892416
8.2090407938258,-0.1742245604793014
8.242410878353546,-0.1383110036782729
8.275780962881294,-0.08368345205511746
8.30915104740904,-0.06955621147096899
8.342521131936788,-0.13802837990333164
8.375891216464534,-0.29692524334685266
8.409261300992283,-0.5158042948722988
8.442631385520029,-0.7370363897585465
8.476001470047777,-0.8976478666591071
8.509371554575523,-0.9529931826496494
8.542741639103271,-0.8924940705819362
8.57611172363102,-0.7411221654877993
8.609481808158765,-0.546544350611838
8.642851892686513,-0.35810342697957254
8.67622197721426,-0.2072153339326121
8.709592061742008,-0.0977236880673279
8.742962146269754,-0.009736117533183528
8.776332230797502,0.08607683742260948
8.809702315325248,0.21152812652870323
8.843072399852996,0.3697484678289096
8.876442484380743,0.5445594477139921
8.90981256890849,0.7092857180279873
8.943182653436237,0.8391692067437004
8.976552737963985,0.9204351982703395
9.009922822491731,0.9519062827078933
9.04329290701948,0.9398930354129672
9.076662991547225,0.8908887861412759
9.110033076074973,0.8071800554500302
9.14340316060272,0.687818257268794
9.176773245130468,0.5334661938397223
9.210143329658214,0.35104281797318254
9.243513414185962,0.15439683798354853
9.276883498713708,-0.03993454467109159
9.310253583241456,-0.21940946832176147
9.343623667769203,-0.3803113892984609
9.37699375229695,-0.5272999966090849
9.410363836824697,-0.6672861514110345
9.443733921352445,-0.8006775160793144
9.477104005880191,-0.9149935001054681
9.51047409040794,-0.9852208730509548
9.543844174935685,-0.9822709191400238
9.577214259463434,-0.8868319115078972
9.61058434399118,-0.70264951213781
9.643954428518928,-0.46244205311328407
9.677324513046674,-0.22197189071788753
9.710694597574422,-0.04262931247477417
9.744064682102168,0.031631256863108255
9.777434766629916,-0.006455765422361424
9.810804851157663,-0.12115369979324175
9.84417493568541,-0.2447042327350544
9.877545020213157,-0.3024560594528279
9.910915104740905,-0.24220582126236653
9.944285189268651,-0.05525235495130315
9.9776552737964,0.22005670037763123
10.011025358324146,0.5137595815542844
10.044395442851894,0.7517142767164684
10.07776552737964,0.8830242607319663
10.111135611907388,0.8961386975398346
10.144505696435134,0.8180185721461796
10.177875780962882,0.6983997363353456
10.211245865490628,0.587107781471876
10.244615950018376,0.5142622357514195
10.277986034546123,0.48088586704053954
10.31135611907387,0.46248243436093817
10.344726203601617,0.4228046359482805
10.378096288129365,0.3312917750072794
10.411466372657111,0.17675203963283903
10.44483645718486,-0.02798906431255094
10.478206541712606,-0.251521911321413
10.511576626240354,-0.4560255723206718
10.5449467107681,-0.6103451521442876
10.578316795295848,-0.6986151570597965
10.611686879823594,-0.7219599170749306
10.645056964351342,-0.6942823107961092
10.678427048879088,-0.6353204046210803
10.711797133406836,-0.5641988301120544
10.745167217934583,-0.4952372270166743
10.77853730246233,-0.43613864321512186
10.811907386990077,-0.3878583099540509
10.845277471517825,-0.34551721991993206
10.878647556045571,-0.3000873397598907
10.91201764057332,-0.24068947548354708
10.945387725101066,-0.157160147430152
10.978757809628814,-0.04239846726796099
11.01212789415656,0.10582354918906435
11.045497978684308,0.2835304902041296
11.078868063212054,0.47949935630764257
11.112238147739802,0.6747270979560374
11.145608232267548,0.8433713089068395
11.178978316795297,0.9563930423145984
11.212348401323043,0.9882137381709133
11.24571848585079,0.9247517165313179
11.279088570378537,0.769468976091663
11.312458654906285,0.5440735804025589
11.345828739434031,0.28281022985571524
11.37919882396178,0.022640217706414653
11.412568908489526,-0.20616440134961095
11.445938993017274,-0.3850129296031052
11.47930907754502,-0.5065347118619223
11.512679162072768,-0.5709522381480767
11.546049246600514,-0.5829714988540086
11.579419331128262,-0.5514773368802839
11.612789415656009,-0.4913001041487599
11.646159500183757,-0.42397063862361556
11.679529584711503,-0.3744852166814049
11.71289966923925,-0.36368994824314077
11.746269753766997,-0.39924420595627985
11.779639838294745,-0.4699492150079264
11.813009922822491,-0.5472088485523989
11.84638000735024,-0.5940131511717719
11.879750091877986,-0.5780374362624978
11.913120176405734,-0.48335402385631476
11.94649026093348,-0.31590090676526045
11.979860345461228,-0.10073271136972636
12.013230429988974,0.1273694619690844
12.046600514516722,0.3357807265396679
12.079970599044469,0.5036232079552593
12.113340683572217,0.6256032109807995
12.146710768099963,0.7092089768994255
12.180080852627711,0.7671548040185997
12.213450937155457,0.8088597206853251
12.246821021683205,0.8350076400889852
12.280191106210951,0.8376616507289889
12.3135611907387,0.8056099240148478
12.346931275266446,0.7319185192587746
12.380301359794194,0.6194936891761736
12.41367144432194,0.4815294648466522
12.447041528849688,0.33649780055506107
12.480411613377434,0.20028503750091042
12.513781697905182,0.07956775611601884
12.547151782432929,-0.030185509768078
12.580521866960677,-0.14110782783767403
12.613891951488423,-0.2655285900561645
12.647262036016171,-0.40836259068514763
12.680632120543917,-0.5628984544362512
12.714002205071665,-0.7119094265047905
12.747372289599411,-0.8334711024587692
12.78074237412716,-0.908694140603353
12.814112458654908,-0.9278217803559529
12.847482543182654,-0.892169159717861
12.880852627710402,-0.8116294182714134
12.914222712238148,-0.699691572268211
12.947592796765896,-0.5688631806195401
12.980962881293642,-0.42859071117926856
13.01433296582139,-0.2858374482724872
13.047703050349137,-0.14672548449762807
13.081073134876885,-0.017210124507700195
13.114443219404631,0.09815818680395158
13.147813303932379,0.1985424707434872
13.181183388460125,0.28815093469135095
13.214553472987873,0.374800381138425
13.24792355751562,0.4655475122130273
13.281293642043368,0.5612339012899835
13.314663726571114,0.6529163377662868
13.348033811098862,0.7226198251418874
13.381403895626608,0.7488354357812733
13.414773980154356,0.714751339983216
13.448144064682102,0.6157015300812608
13.48151414920985,0.46257696748685073
13.514884233737597,0.27978165814689104
13.548254318265345,0.09867347127841258
13.581624402793091,-0.0509255119183517
13.614994487320839,-0.14828976317210765
13.648364571848585,-0.18644196461144805
13.681734656376333,-0.17315678060365822
13.71510474090408,-0.12846327476127029
13.748474825431828,-0.07918355908547264
13.781844909959574,-0.05135951561973331
13.815214994487322,-0.062096441801063856
13.848585079015068,-0.11327157313618152
13.881955163542816,-0.18993847879870254
13.915325248070562,-0.26522257559503243
13.94869533259831,-0.3109024686107496
13.982065417126057,-0.30976006547840396
14.015435501653805,-0.26399863513891436
14.048805586181551,-0.1950353985718985
14.082175670709299,-0.13374514071227367
14.115545755237045,-0.10504391435113553
14.148915839764793,-0.11405588413687413
14.18228592429254,-0.141103556864274
14.215656008820288,-0.14910749130527853
14.249026093348034,-0.1011571471549991
14.282396177875782,0.01933276290369504
14.315766262403528,0.19564879186536624
14.349136346931276,0.379324479916299
14.382506431459023,0.5071827056760381
14.41587651598677,0.527353908953714
14.449246600514517,0.4228113439295465
14.482616685042265,0.22131532967462114
14.515986769570011,-0.013520286335859905
14.54935685409776,-0.20669349744671967
14.582726938625505,-0.301238625791235
14.616097023153253,-0.27979298298095956
14.649467107681,-0.16928131779741007
14.682837192208748,-0.027544642898503058
14.716207276736494,0.08125829303847125
14.749577361264242,0.11128438845767753
14.782947445791988,0.049556661534699634
14.816317530319736,-0.08411811856117897
14.849687614847483,-0.2494147820066114
14.88305769937523,-0.4025865260959141
14.916427783902977,-0.5103969801851389
14.949797868430725,-0.5562142480512177
14.983167952958471,-0.5384795947918364
15.01653803748622,-0.4652840529432949
15.049908122013965,-0.34929563892459187
15.083278206541713,-0.2052198805321459
15.11664829106946,-0.04923934623320707
15.150018375597208,0.10163848035617874
15.183388460124954,0.2319519100912404
15.216758544652702,0.33172423066261464
15.250128629180448,0.4000669243534168
15.283498713708196,0.44600197543545844
15.316868798235943,0.48512520005253634
15.35023888276369,0.532840895045277
15.383608967291437,0.59684564662477
15.416979051819185,0.6721829446904924
15.450349136346931,0.7411602620761635
15.48371922087468,0.7783400952859433
15.517089305402425,0.7588210829855975
15.550459389930174,0.6669683144179516
15.58382947445792,0.5027717436097785
15.617199558985668,0.2837523088481165
15.650569643513414,0.04147580697596514
15.683939728041162,-0.186780353013982
15.717309812568908,-0.3689197278376644
15.750679897096656,-0.48773977698087295
15.784049981624403,-0.5455222617404359
15.81742006615215,-0.5612654169221988
15.850790150679897,-0.5615270451747082
15.884160235207645,-0.5689809448010469
15.917530319735391,-0.5940073304309854
15.95090040426314,-0.6330664708566331
15.984270488790886,-0.6739947753323339
16.017640573318634,-0.7046862409358864
16.05101065784638,-0.7199273963022353
16.084380742374126,-0.7224138758376654
16.117750826901876,-0.7175374903666545
16.151120911429622,-0.7054051595651327
16.18449099595737,-0.6754514929319947
16.217861080485115,-0.6076827292183545
16.251231165012864,-0.4806812706778566
16.28460124954061,-0.2823009820960089
16.317971334068357,-0.017108982192353333
16.351341418596103,0.29363804487409184
16.384711503123853,0.6193110462557011
16.4180815876516,0.9300055650900005
16.451451672179346,1.2033794051097646
16.484821756707092,1.4245485251237222
16.51819184123484,1.5801932385375146
16.551561925762588,1.652260742657499
16.584932010290334,1.617431063797387
16.61830209481808,1.45506823574983
16.65167217934583,1.1606421582677013
16.685042263873576,0.7571470322115902
16.718412348401323,0.29684819371296756
16.75178243292907,-0.14980434076991647
16.78515251745682,-0.5145584138782069
16.818522601984565,-0.7525074726684488
16.85189268651231,-0.8549814689585433
16.885262771040058,-0.8491729363539363
16.918632855567807,-0.7854758434036708
16.952002940095554,-0.7182756373287151
16.9853730246233,-0.687574265456851
17.018743109151046,-0.7074548761642842
17.052113193678796,-0.7643187894932492
17.085483278206542,-0.8244760888092697
17.11885336273429,-0.8479418930389275
17.15222344726204,-0.8036505265982259
17.185593531789785,-0.6810278801711275
17.21896361631753,-0.49407343317878843
17.252333700845277,-0.27658746947953755
17.285703785373027,-0.07026751287096225
17.319073869900773,0.08995930663762608
17.35244395442852,0.18787708323130076
