Frequency (Hz),Amplitude
0.0,1.2278919604898269
0.019823788546255508,1.2357080295409935
0.039647577092511016,1.2588347449239847
0.059471365638766524,1.2963647038988613
0.07929515418502203,1.3469533507620401
0.09911894273127755,1.4090066874994183
0.11894273127753305,1.4808552443825225
0.13876651982378857,1.5608832404779673
0.15859030837004406,1.6476062715507624
0.17841409691629956,1.7397062131163674
0.1982378854625551,1.8360370732699156
0.2180616740088106,1.9356142607827287
0.2378854625550661,2.037596218661996
0.25770925110132165,2.1412639324963894
0.27753303964757714,2.246001273344157
0.29735682819383263,2.351277511861899
0.31718061674008813,2.456632415617725
0.3370044052863437,2.561663868454773
0.3568281938325991,2.6660177422976794
0.37665198237885467,2.7693796861542412
0.3964757709251102,2.8714685019234105
0.41629955947136565,2.9720308118420857
0.4361233480176212,3.070836767096966
0.4559471365638767,3.1676765912478277
0.4757709251101322,3.262357791423327
0.49559471365638774,3.354702903468554
0.5154185022026433,3.4445476644552895
0.5352422907488987,3.531739527884546
0.5550660792951543,3.6161364543656163
0.5748898678414097,3.697605924367838
0.5947136563876653,3.7760241305380764
0.6145374449339208,3.851275315664563
0.6343612334801763,3.923251229139406
0.6541850220264318,3.9918506801197533
0.6740088105726874,4.056979169821188
0.6938325991189428,4.118548588737553
0.7136563876651982,4.17647696725888
0.7334801762114539,4.230688270299297
0.7533039647577093,4.281112228265233
0.7731277533039648,4.3276841980791145
0.7929515418502204,4.37034504909568
0.8127753303964759,4.409041069660961
0.8325991189427313,4.443723890810589
0.8524229074889869,4.474350424219404
0.8722466960352424,4.500882812023335
0.8920704845814978,4.523288386560007
0.9118942731277534,4.541539638433127
0.931718061674009,4.555614191610635
0.9515418502202644,4.565494784530437
0.9713656387665199,4.5711692564180355
0.9911894273127755,4.572630538226657
1.0110132158590308,4.569876647798668
1.0308370044052866,4.562910689022762
1.0506607929515421,4.551740854930965
1.0704845814977975,4.536380434846965
1.090308370044053,4.51684782586817
1.1101321585903086,4.493166549143673
1.1299559471365639,4.4653652716039085
1.1497797356828194,4.433477834011415
1.1696035242290752,4.397543286443748
1.1894273127753305,4.3576059325962415
1.209251101321586,4.313715384614678
1.2290748898678416,4.26592663054829
1.248898678414097,4.214300116965965
1.2687224669603525,4.158901849822414
1.288546255506608,4.099803517318963
1.3083700440528636,4.0370826393050425
1.3281938325991192,3.9708227487475156
1.3480176211453747,3.9011136120038254
1.36784140969163,3.8280514961295973
1.3876651982378856,3.751739493309005
1.4074889867841411,3.6722879148152536
1.4273127753303965,3.5898147698128025
1.4471365638766522,3.504446347966093
1.4669603524229078,3.4163179294272714
1.4867841409691631,3.325574651605102
1.5066079295154187,3.23237256950805
1.5264317180616742,3.136879955837066
1.5462555066079295,3.0392788989168875
1.5660792951541853,2.9397672716580217
1.5859030837004409,2.838561163815744
1.6057268722466962,2.7358978937247933
1.6255506607929517,2.6320397452901636
1.6453744493392073,2.527278611894027
1.6651982378854626,2.421941770844191
1.6850220264317182,2.316399058046198
1.7048458149779737,2.2110717569884994
1.7246696035242293,2.106443545888264
1.7444933920704848,2.0030738355668394
1.7643171806167404,1.9016137285121912
1.7841409691629957,1.8028245484836984
1.8039647577092512,1.7075982849037408
1.8237885462555068,1.6169781524779783
1.8436123348017623,1.532175521486587
1.863436123348018,1.4545765406627136
1.8832599118942732,1.3857280754374586
1.9030837004405288,1.3272893846295528
1.9229074889867843,1.280936274934573
1.9427312775330399,1.2482128357910975
1.9625550660792954,1.2303453003130838
1.982378854625551,1.2280585199427152
2.002202643171806,1.2414521866878998
2.0220264317180616,1.2699831156150283
2.041850220264317,1.3125606551820956
2.061674008810573,1.3677183608628445
2.0814977973568287,1.433804624833902
2.1013215859030843,1.5091448951565236
2.1211453744493394,1.592153348277938
2.140969162995595,1.6813942477981016
2.1607929515418505,1.7756047897113802
2.180616740088106,1.8736934605335047
2.2004405286343616,1.9747253847228512
2.220264317180617,2.0779023915778425
2.2400881057268722,2.1825423163622446
2.2599118942731278,2.2880598214094983
2.2797356828193833,2.393949668116587
2.299559471365639,2.499772630346159
2.319383259911895,2.605143879931872
2.3392070484581504,2.7097235306177576
2.3590308370044055,2.813208994750822
2.378854625550661,2.9153288279483776
2.3986784140969166,3.0158377786646198
2.418502202643172,3.114512805873551
2.4383259911894277,3.2111498715164317
2.4581497797356833,3.305561352070987
2.4779735682819384,3.397573944988857
2.497797356828194,3.487026971240546
2.5176211453744495,3.5737709956074677
2.537444933920705,3.6576667025440437
2.5572687224669606,3.738583978209792
2.577092511013216,3.8164011593375333
2.5969162995594717,3.8910044175317404
2.6167400881057272,3.9622872538418763
2.6365638766519828,4.030150083392579
2.6563876651982383,4.094499893763361
2.676211453744494,4.1552499639169
2.6960352422907494,4.212319632952143
2.715859030837005,4.2656341099409305
2.73568281938326,4.315124317699813
2.7555066079295156,4.360726764634779
2.775330396475771,4.402383439839834
2.7951541850220267,4.440041727479923
2.8149779735682823,4.473654337186106
2.834801762114538,4.503179247765186
2.854625550660793,4.528579662003233
2.874449339207049,4.549823970742638
2.8942731277533045,4.5668857247495165
2.91409691629956,4.579743613177753
2.9339207048458156,4.588381447686412
2.953744493392071,4.592788151487974
2.9735682819383262,4.592957752803727
2.993392070484582,4.588889382385152
3.0132158590308373,4.580587274932819
3.033039647577093,4.568060774412011
3.0528634361233484,4.551324343431637
3.072687224669604,4.530397577026344
3.092511013215859,4.50530522136465
3.1123348017621146,4.47607719810545
3.1321585903083706,4.442748635347358
3.151982378854626,4.405359906367258
3.1718061674008817,4.36395667763541
3.1916299559471373,4.318589967935306
3.2114537444933924,4.269316220819146
3.231277533039648,4.216197393112003
3.2511013215859035,4.159301062758418
3.270925110132159,4.098700560009663
3.2907488986784146,4.034475126810699
3.31057268722467,3.9667101103024924
3.3303964757709252,3.8954971976596426
3.350220264317181,3.820934701101318
3.3700440528634363,3.7431279039283254
3.389867841409692,3.662189480960785
3.4096916299559474,3.5782400099172933
3.4295154185022034,3.491408594268204
3.4493392070484585,3.4018336231440665
3.469162995594714,3.309663700282411
3.4889867841409696,3.215058782133365
3.508810572687225,3.118191575598621
3.5286343612334807,3.019249259054746
3.5484581497797363,2.918435607048626
3.5682819383259914,2.8159736202216235
3.588105726872247,2.7121087885779795
3.6079295154185025,2.607113149073867
3.627753303964758,2.5012903382286407
3.6475770925110136,2.3949818866104926
3.667400881057269,2.2885750519160815
3.6872246696035247,2.1825125335549136
3.7070484581497802,2.077304437723592
3.726872246696036,1.9735428348650121
3.7466960352422913,1.871919109256264
3.7665198237885464,1.7732439347208955
3.7863436123348024,1.678468945389485
3.8061674008810575,1.588707753934558
3.8259911894273135,1.5052516164304723
3.8458149779735686,1.4295716181894567
3.8656387665198246,1.3632952303818537
3.8854625550660797,1.308142316109852
3.905286343612335,1.2658080345197862
3.925110132158591,1.2377925761541384
3.9449339207048464,1.2252017852271793
3.964757709251102,1.2285696113604405
3.9845814977973575,1.2477630763899894
4.004405286343612,1.2820071631609122
4.024229074889869,1.3300194604304727
4.044052863436123,1.390203684058217
4.06387665198238,1.4608419027610438
4.083700440528634,1.5402446012433062
4.103524229074891,1.6268453836728762
4.123348017621146,1.719246869119268
4.143171806167401,1.8162322015149082
4.162995594713657,1.9167563058801549
4.182819383259912,2.0199274078854264
4.2026431718061685,2.12498543411342
4.222466960352423,2.231280914732123
4.242290748898679,2.338256068957822
4.262114537444934,2.445428635553971
4.28193832599119,2.5523784329366968
4.301762114537445,2.658736374576608
4.321585903083701,2.764175579232211
4.3414096916299565,2.8684042149959645
4.361233480176212,2.971159752803303
4.381057268722468,3.072204353790681
4.400881057268723,3.171321163592865
4.420704845814979,3.268311330221784
4.440528634361234,3.362991598977648
4.46035242290749,3.4551923679716605
4.4801762114537445,3.544756112038475
4.500000000000001,3.631536102034035
4.5198237885462555,3.715395361679426
4.539647577092512,3.796205816039183
4.559471365638767,3.87384759509595
4.579295154185023,3.948208463252536
4.599118942731278,4.019183351395573
4.618942731277533,4.0866739727363575
4.63876651982379,4.150588507271328
4.658590308370044,4.210841342586242
4.678414096916301,4.267352861026508
4.6982378854625555,4.320049265095545
4.718061674008811,4.368862434423216
4.737885462555067,4.413729808841475
4.757709251101322,4.45459429307442
4.777533039647578,4.491404179342457
4.797356828193833,4.524113084829753
4.817180616740089,4.5526799015013
4.837004405286344,4.577068756203069
4.856828193832599,4.597248979353772
4.876651982378855,4.613195080855254
4.896475770925111,4.624886732121431
4.9162995594713665,4.632308753364513
4.936123348017622,4.635451105487792
4.955947136563877,4.634308886126028
4.975770925110133,4.628882329551906
4.995594713656388,4.619176810336046
5.015418502202644,4.605202850814357
5.035242290748899,4.5869761325841125
5.055066079295155,4.564517512425143
5.07488986784141,4.537853043229455
5.094713656387666,4.5070140007279615
5.114537444933921,4.472036917033696
5.134361233480177,4.432963622283695
5.154185022026432,4.389841295968008
5.174008810572688,4.342722529893663
5.193832599118943,4.291665405158664
5.213656387665199,4.236733586024993
5.2334801762114544,4.177996434199042
5.25330396475771,4.115529147783947
5.2731277533039655,4.049412930093538
5.292951541850221,3.9797351946572026
5.312775330396477,3.906589814156753
5.332599118942731,3.83007742279113
5.352422907488988,3.75030578375952
5.372246696035242,3.6673902363063897
5.392070484581499,3.5814542402416127
5.4118942731277535,3.4926300402376267
5.43171806167401,3.4010594777754277
5.451541850220265,3.3068949857007763
5.47136563876652,3.210300809396569
5.491189427312777,3.111454510131644
5.511013215859031,3.010548820906714
5.530837004405288,2.9077939439439557
5.550660792951542,2.803420402869332
5.570484581497798,2.697682592737667
5.5903083700440535,2.590863208412757
5.610132158590309,2.483278777077789
5.6299559471365646,2.3752865732323034
5.64977973568282,2.2672932510478723
5.669603524229076,2.1597655802117206
5.689427312775331,2.053243696890444
5.709251101321586,1.9483572398586222
5.729074889867842,1.845844555565269
5.748898678414098,1.7465746889952507
5.768722466960353,1.6515709111507466
5.788546255506609,1.5620327626087278
5.808370044052864,1.4793506941911538
5.82819383259912,1.4051032937782946
5.848017621145375,1.3410226208254195
5.867841409691631,1.28891100013721
5.887665198237886,1.250497806122953
5.907488986784142,1.2272426815378779
5.927312775330397,1.22012137571351
5.9471365638766525,1.2294572721619563
5.966960352422908,1.254861519432139
5.986784140969164,1.2953064971974346
6.00660792951542,1.3493022686851173
6.026431718061675,1.4151112349097819
6.04625550660793,1.4909400247433726
6.066079295154186,1.5750759630628586
6.085903083700441,1.6659642975562083
6.105726872246697,1.762238715784471
6.125550660792952,1.8627217659164481
6.145374449339208,1.966409180942317
6.1651982378854635,2.0724476071279656
6.185022026431718,2.1801112709798134
6.204845814977975,2.2887803620649456
6.224669603524229,2.3979222454452307
6.244493392070486,2.5070757204322214
6.264317180616741,2.6158381149493555
6.284140969162996,2.723854839101648
6.303964757709252,2.8308109895847045
6.323788546255507,2.936424625793636
6.3436123348017635,3.040441390540592
6.363436123348018,3.1426302042772
6.3832599118942746,3.2427798132839802
6.403083700440529,3.3406960164513326
6.422907488986785,3.4361994316282978
6.44273127753304,3.5291236917544873
6.462555066079296,3.6193139841902884
6.482378854625551,3.7066258649239674
6.502202643171807,3.7909242936535033
6.5220264317180625,3.872082846950568
6.541850220264318,3.9499830754912173
6.561674008810574,4.0245139782199075
6.581497797356829,4.095571571722736
6.601321585903085,4.163058537349628
6.62114537444934,4.226883931997979
6.640969162995596,4.286962951147705
6.6607929515418505,4.343216734872887
6.680616740088107,4.395572209263721
6.700440528634362,4.443961957067632
6.720264317180618,4.488324112468748
6.740088105726873,4.52860227582789
6.759911894273129,4.564745444941327
6.779735682819384,4.596707959983464
6.799559471365639,4.624449459798323
6.819383259911895,4.647934847624016
6.83920704845815,4.667134264684965
6.859030837004407,4.68202307038681
6.8788546255506615,4.6925818281065705
6.898678414096917,4.698796295796618
6.918502202643173,4.700657420823111
6.938325991189428,4.698161338643117
6.958149779735684,4.691309375097639
6.977973568281939,4.680108052262606
6.997797356828195,4.664569097965517
7.01762114537445,4.644709459241973
7.037444933920705,4.62055132018428
7.0572687224669615,4.592122124824278
7.077092511013216,4.559454605904478
7.096916299559473,4.522586820630326
7.116740088105728,4.481562194771022
7.136563876651983,4.436429576797972
7.156387665198239,4.387243304128909
7.176211453744494,4.334063283999402
7.19603524229075,4.276955092028901
7.215859030837005,4.2159900922123565
7.235682819383261,4.151245582877981
7.255506607929516,4.082804974147927
7.275330396475772,4.010758003669901
7.295154185022027,3.935200998917847
7.314977973568283,3.8562371962698854
7.334801762114538,3.7739771294683506
7.354625550660794,3.6885391030866854
7.374449339207049,3.6000497704485137
7.394273127753305,3.508644840299576
7.4140969162995605,3.414469942723102
7.433920704845816,3.3176816927069477
7.453744493392072,3.218448999925574
7.473568281938327,3.116954686343654
7.493392070484583,3.0133974900106977
7.513215859030838,2.907994554927944
7.533039647577093,2.800984534365939
7.552863436123348,2.6926314698796956
7.572687224669605,2.5832296518721622
7.59251101321586,2.473109720787598
7.612334801762115,2.3626463303466494
7.6321585903083715,2.252267761748477
7.651982378854627,2.14246793938196
7.671806167400882,2.0338213290313103
7.691629955947137,1.9270011469994537
7.711453744493394,1.8228010744293879
7.731277533039649,1.7221600810643003
7.751101321585904,1.6261887358745668
7.7709251101321595,1.5361931292436175
7.790748898678416,1.4536888686646559
7.81057268722467,1.3803925596833604
7.830396475770926,1.3181730719213907
7.850220264317182,1.2689436059981165
7.870044052863436,1.2344848359378886
7.889867841409693,1.2162148929358814
7.909691629955948,1.2149587083048878
7.929515418502204,1.2307942892997739
7.9493392070484585,1.263038548412977
7.969162995594715,1.3103787330519527
7.9889867841409705,1.3710946255918581
8.008810572687224,1.44329317734425
8.02863436123348,1.5250968590433347
8.048458149779737,1.614763769798547
8.068281938325994,1.7107458550414316
8.088105726872246,1.8117034740478901
8.107929515418503,1.9164946294059033
8.12775330396476,2.0241523927219776
8.147577092511014,2.133858866112571
8.167400881057269,2.2449200967517413
8.187224669603525,2.35674388703824
8.207048458149782,2.4688210656251024
8.226872246696036,2.580710104589762
8.246696035242293,2.6920246847884735
8.266519823788547,2.8024237342500298
8.286343612334802,2.9116034838373523
8.306167400881058,3.0192911419887993
8.325991189427315,3.125239857227887
8.345814977973568,3.2292247002959646
8.365638766519824,3.3310394523358604
8.38546255506608,3.4304940305517952
8.405286343612337,3.52741241889878
8.42511013215859,3.621630999910964
8.444933920704846,3.712997206152245
8.464757709251103,3.801368427219883
8.484581497797357,3.8866111218131034
8.504405286343614,3.968600094951591
8.524229074889869,4.047217908672228
8.544052863436125,4.122354400973682
8.56387665198238,4.193906292828858
8.583700440528636,4.261776867057053
8.60352422907489,4.3258757059856405
8.623348017621145,4.386118477318513
8.643171806167402,4.4424267596111005
8.662995594713658,4.494727900336749
8.682819383259913,4.542954900805504
8.702643171806168,4.587046323225925
8.722466960352424,4.626946216038398
8.74229074889868,4.6626040543326885
8.762114537444935,4.693974692725202
8.78193832599119,4.721018328537682
8.801762114537446,4.743700473509081
8.821585903083701,4.761991932600725
8.841409691629957,4.77586878873559
8.861233480176212,4.785312392555582
8.881057268722468,4.790309356494583
8.900881057268723,4.790851552657323
8.92070484581498,4.7869361141704845
8.940528634361234,4.778565439840165
8.960352422907489,4.76574720211095
8.980176211453745,4.748494358485637
9.000000000000002,4.726825166731138
9.019823788546258,4.700763204375519
9.039647577092511,4.670337393194945
9.059471365638768,4.635582029606486
9.079295154185024,4.596536822130594
9.099118942731279,4.553246937372878
9.118942731277533,4.505763056311726
9.13876651982379,4.454141443078031
9.158590308370046,4.398444028892947
9.1784140969163,4.3387385144106245
9.198237885462555,4.275098494420335
9.218061674008812,4.207603609731319
9.237885462555067,4.136339732135718
9.257709251101323,4.061399189676133
9.27753303964758,3.9828810411047644
9.297356828193834,3.9008914105044865
9.317180616740089,3.8155438956669174
9.337004405286345,3.726960067146471
9.356828193832602,3.635270079137193
9.376651982378855,3.540613418720121
9.396475770925111,3.4431398269555618
9.416299559471367,3.3430104342117906
9.436123348017622,3.2403991636343936
9.455947136563877,3.135494471558507
9.475770925110133,3.028501512964813
9.49559471365639,2.9196448450633046
9.515418502202644,2.809171814329011
9.5352422907489,2.6973568136345123
9.555066079295155,2.584506648414196
9.57488986784141,2.470967315516316
9.594713656387666,2.357132575442269
9.614537444933923,2.243454783961331
9.634361233480178,2.130458529772131
9.654185022026432,2.0187576701891934
9.674008810572689,1.9090763015674626
9.693832599118945,1.802273918098897
9.713656387665198,1.699374271912964
9.733480176211454,1.6015958729587065
9.75330396475771,1.510379135455427
9.773127753303967,1.427400390439948
9.792951541850222,1.3545564777771293
9.812775330396477,1.2938975164990925
9.832599118942733,1.2474855476129036
9.852422907488988,1.2171723056876462
9.872246696035244,1.204326089900264
9.892070484581499,1.2095834205936769
9.911894273127754,1.2327205844162465
9.93171806167401,1.2727021681540973
9.951541850220266,1.3278841659348664
9.971365638766521,1.3962866047510885
9.991189427312776,1.4758453759998371
10.011013215859032,1.5645916710938508
10.030837004405289,1.660751257402165
10.050660792951543,1.7627811012393473
10.070484581497798,1.869366871184073
10.090308370044054,1.9794006513839075
10.11013215859031,2.0919514564327506
10.129955947136565,2.2062354897052923
10.14977973568282,2.321589358680277
10.169603524229077,2.437447336999516
10.189427312775331,2.55332269554482
10.209251101321588,2.668792666198433
10.229074889867842,2.7834864608980063
10.248898678414099,2.8970757769142073
10.268722466960353,3.009267287635615
10.28854625550661,3.1197967025823887
10.308370044052865,3.2284240612470763
10.32819383259912,3.3349299953049933
10.348017621145376,3.4391127511691506
10.367841409691632,3.54078581067866
10.387665198237887,3.639775983652345
10.407488986784141,3.7359218739772815
10.427312775330398,3.8290726425130175
10.447136563876654,3.919087006782662
10.466960352422909,4.005832430313954
10.486784140969164,4.0891844644696524
10.50660792951542,4.169026213346808
10.526431718061675,4.245247898349537
10.546255506607931,4.317746503748752
10.566079295154186,4.386425488236636
10.585903083700442,4.4511945503964245
10.605726872246697,4.5119694383133035
10.625550660792953,4.568671795387091
10.645374449339208,4.621229035874055
10.665198237885463,4.669574244863744
10.685022026431719,4.713646098349032
10.704845814977975,4.753388799821453
10.724669603524232,4.788752030456168
10.744493392070485,4.81969091047196
10.764317180616741,4.846165969683299
