Frequency (Hz),Amplitude
0.0,2.186684293882616
0.019823788546255508,2.1862309752603073
0.039647577092511016,2.184872241010639
0.059471365638766524,2.1826117565348317
0.07929515418502203,2.1794556326524233
0.09911894273127755,2.1754124282794827
0.11894273127753305,2.170493154079807
0.13876651982378857,2.1647112769865946
0.15859030837004406,2.1580827254571324
0.17841409691629956,2.1506258952826425
0.1982378854625551,2.142361655730283
0.2180616740088106,2.1333133557414454
0.2378854625550661,2.1235068298504243
0.25770925110132165,2.112970403417427
0.27753303964757714,2.1017348966901626
0.29735682819383263,2.0898336271160836
0.31718061674008813,2.077302409223723
0.3370044052863437,2.064179551272877
0.3568281938325991,2.0505058477421723
0.37665198237885467,2.036324566575439
0.3964757709251102,2.0216814299482144
0.41629955947136565,2.0066245871412804
0.4361233480176212,1.991204577923431
0.4559471365638767,1.9754742846520137
0.4757709251101322,1.959488871102556
0.49559471365638774,1.9433057058447405
0.5154185022026433,1.9269842677982842
0.5352422907488987,1.9105860314408805
0.5550660792951543,1.894174329014215
0.5748898678414097,1.8778141869988223
0.5947136563876653,1.8615721341236824
0.6145374449339208,1.8455159782622774
0.6343612334801763,1.8297145497662854
0.6541850220264318,1.814237409124273
0.6740088105726874,1.7991545173284165
0.6938325991189428,1.7845358680053216
0.7136563876651982,1.7704510812332608
0.7334801762114539,1.7569689600303087
0.7533039647577093,1.7441570117510021
0.7731277533039648,1.7320809380508664
0.7929515418502204,1.7208040986295012
0.8127753303964759,1.7103869555865603
0.8325991189427313,1.7008865068423888
0.8524229074889869,1.6923557185948963
0.8722466960352424,1.6848429680975168
0.8920704845814978,1.6783915090416934
0.9118942731277534,1.6730389724024728
0.931718061674009,1.668816915667163
0.9515418502202644,1.6657504328499046
0.9713656387665199,1.663857836571023
0.9911894273127755,1.6631504217656707
1.0110132158590308,1.6636323183439836
1.0308370044052866,1.665300437464039
1.0506607929515421,1.6681445131432773
1.0704845814977975,1.6721472378965063
1.090308370044053,1.6772844881280355
1.1101321585903086,1.6835256322961905
1.1299559471365639,1.6908339125601473
1.1497797356828194,1.6991668888255578
1.1696035242290752,1.708476932897026
1.1894273127753305,1.7187117598442327
1.209251101321586,1.7298149836728027
1.2290748898678416,1.741726684900128
1.248898678414097,1.754383978582738
1.2687224669603525,1.7677215726195918
1.288546255506608,1.7816723076542793
1.3083700440528636,1.7961676715108539
1.3281938325991192,1.8111382827273321
1.3480176211453747,1.8265143393179213
1.36784140969163,1.8422260303391464
1.3876651982378856,1.8582039091144242
1.4074889867841411,1.8743792280627323
1.4273127753303965,1.89068423597076
1.4471365638766522,1.9070524392481865
1.4669603524229078,1.9234188292254193
1.4867841409691631,1.9397200779102337
1.5066079295154187,1.9558947048369033
1.5264317180616742,1.971883217741517
1.5462555066079295,1.9876282298032077
1.5660792951541853,2.003074556124088
1.5859030837004409,2.0181692919999654
1.6057268722466962,2.0328618753761627
1.6255506607929517,2.0471041357007436
1.6453744493392073,2.060850331193896
1.6651982378854626,2.0740571763541302
1.6850220264317182,2.0866838613272
1.7048458149779737,2.098692064576667
1.7246696035242293,2.110045960118692
1.7444933920704848,2.120712220420611
1.7643171806167404,2.130660015913763
1.7841409691629957,2.1398610119365027
1.8039647577092512,2.148289363802974
1.8237885462555068,2.155921710586464
1.8436123348017623,2.162737168112309
1.863436123348018,2.1687173215728746
1.8832599118942732,2.173846218105687
1.9030837004405288,2.1781103596132185
1.9229074889867843,2.1814986960489087
1.9427312775330399,2.184002619346503
1.9625550660792954,2.1856159581289343
1.982378854625551,2.1863349732957666
2.002202643171806,2.1861583545557792
2.0220264317180616,2.185087217940652
2.041850220264317,2.183125104307044
2.061674008810573,2.1802779788063353
2.0814977973568287,2.1765542312728936
2.1013215859030843,2.1719646774520225
2.1211453744493394,2.1665225609567904
2.140969162995595,2.1602435558078716
2.1607929515418505,2.1531457693709144
2.180616740088106,2.145249745461468
2.2004405286343616,2.1365784673362573
2.220264317180617,2.1271573602314042
2.2400881057268722,2.117014293041102
2.2599118942731278,2.1061795786540847
2.2797356828193833,2.094685972378353
2.299559471365639,2.0825686677862727
2.319383259911895,2.069865289202202
2.3392070484581504,2.056615879931787
2.3590308370044055,2.0428628851970108
2.378854625550661,2.0286511285935545
2.3986784140969166,2.014027780728603
2.418502202643172,1.999042318530029
2.4383259911894277,1.9837464735445147
2.4581497797356833,1.9681941673673826
2.4779735682819384,1.9524414321767913
2.497797356828194,1.9365463141874106
2.5176211453744495,1.9205687577029396
2.537444933920705,1.9045704673465211
2.5572687224669606,1.8886147459960676
2.577092511013216,1.8727663059656474
2.5969162995594717,1.8570910510723975
2.6167400881057272,1.8416558274302184
2.6365638766519828,1.8265281411381342
2.6563876651982383,1.8117758414998615
2.676211453744494,1.7974667690389992
2.6960352422907494,1.7836683683718184
2.715859030837005,1.7704472669698226
2.73568281938326,1.757868821980035
2.7555066079295156,1.7459966385522734
2.775330396475771,1.7348920645142516
2.7951541850220267,1.7246136676858448
2.8149779735682823,1.7152167035655528
2.834801762114538,1.70675258247416
2.854625550660793,1.6992683464097253
2.874449339207049,1.6928061667597278
2.8942731277533045,1.6874028745368397
2.91409691629956,1.6830895348755444
2.9339207048458156,1.6798910770911881
2.953744493392071,1.6778259906335422
2.9735682819383262,1.6769060957759558
2.993392070484582,1.677136395919458
3.0132158590308373,1.6785150160482607
3.033039647577093,1.6810332292723305
3.0528634361233484,1.684675570679824
3.072687224669604,1.6894200350529458
3.092511013215859,1.695238352527597
3.1123348017621146,1.7020963341343471
3.1321585903083706,1.709954277451629
3.151982378854626,1.718767421400031
3.1718061674008817,1.7284864385384113
3.1916299559471373,1.7390579530778054
3.2114537444933924,1.7504250731633593
3.231277533039648,1.7625279267172707
3.2511013215859035,1.7753041911988199
3.270925110132159,1.7886896089253197
3.2907488986784146,1.8026184810157238
3.31057268722467,1.81702413447918
3.3303964757709252,1.831839358400282
3.350220264317181,1.8469968065117766
3.3700440528634363,1.8624293646524737
3.389867841409692,1.8780704826553187
3.4096916299559474,1.8938544710868244
3.4295154185022034,1.9097167639617214
3.4493392070484585,1.9255941490949764
3.469162995594714,1.9414249681400768
3.4889867841409696,1.9571492886166586
3.508810572687225,1.9727090503712412
3.5286343612334807,1.9880481889624317
3.5484581497797363,2.003112738435668
3.5682819383259914,2.0178509158699622
3.588105726872247,2.0322131899556997
3.6079295154185025,2.0461523357115916
3.627753303964758,2.059623477281427
3.6475770925110136,2.0725841205757627
3.667400881057269,2.0849941773476646
3.6872246696035247,2.096815982119207
3.7070484581497802,2.1080143032113856
3.726872246696036,2.1185563489756487
3.7466960352422913,2.1284117701834098
3.7665198237885464,2.1375526593994425
3.7863436123348024,2.1459535480481264
3.8061674008810575,2.153591401776226
3.8259911894273135,2.1604456146226076
3.8458149779735686,2.166498002422502
3.8656387665198246,2.171732795801518
3.8854625550660797,2.1761366330505387
3.905286343612335,2.179698553116699
3.925110132158591,2.182409988896183
3.9449339207048464,2.1842647609712182
3.964757709251102,2.1852590718941136
3.9845814977973575,2.185391501086269
4.004405286343612,2.1846630003871415
4.024229074889869,2.183076890257091
4.044052863436123,2.1806388566080863
4.06387665198238,2.177356948205658
4.083700440528634,2.1732415745547295
4.103524229074891,2.168305504148302
4.123348017621146,2.1625638629228834
4.143171806167401,2.1560341327244554
4.162995594713657,2.1487361495456274
4.182819383259912,2.140692101244956
4.2026431718061685,2.131926524404239
4.222466960352423,2.1224662999173676
4.242290748898679,2.1123406468337764
4.262114537444934,2.10158111390143
4.28193832599119,2.0902215681662932
4.301762114537445,2.0782981798885567
4.321585903083701,2.0658494029295102
4.3414096916299565,2.052915949647696
4.361233480176212,2.039540759219311
4.381057268722468,2.02576895816731
4.400881057268723,2.0116478117488312
4.420704845814979,1.9972266647134491
4.440528634361234,1.9825568698114084
4.46035242290749,1.9676917023047957
4.4801762114537445,1.9526862586245013
4.500000000000001,1.937597337228945
4.5198237885462555,1.9224832996679644
4.539647577092512,1.907403909848132
4.559471365638767,1.8924201495479709
4.579295154185023,1.877594008356531
4.599118942731278,1.8629882464223535
4.618942731277533,1.8486661287152668
4.63876651982379,1.834691129935094
4.658590308370044,1.821126609758102
4.678414096916301,1.8080354588004044
4.6982378854625555,1.7954797164967733
4.718061674008811,1.7835201630343012
4.737885462555067,1.7722158885247377
4.757709251101322,1.7616238437174014
4.777533039647578,1.7517983777045545
4.797356828193833,1.7427907692004918
4.817180616740089,1.734648759021693
4.837004405286344,1.7274160922894557
4.856828193832599,1.7211320795471603
4.876651982378855,1.715831186363898
4.896475770925111,1.7115426610273106
4.9162995594713665,1.7082902095700663
4.936123348017622,1.7060917266069195
4.955947136563877,1.7049590892917934
4.975770925110133,1.7048980201728787
4.995594713656388,1.7059080228931858
5.015418502202644,1.707982392643104
5.035242290748899,1.7111083011273254
5.055066079295155,1.7152669536749536
5.07488986784141,1.7204338141144473
5.094713656387666,1.726578891257051
5.114537444933921,1.7336670793686357
5.134361233480177,1.741658543920171
5.154185022026432,1.7505091432223276
5.174008810572688,1.760170876273218
5.193832599118943,1.7705923472558098
5.213656387665199,1.7817192375687376
5.2334801762114544,1.7934947770005294
5.25330396475771,1.8058602065936606
5.2731277533039655,1.818755226819926
5.292951541850221,1.8321184258341945
5.312775330396477,1.845887683727982
5.332599118942731,1.8600005498177539
5.352422907488988,1.8743945910344522
5.372246696035242,1.8890077104040925
5.392070484581499,1.9037784354072935
5.4118942731277535,1.918646176670353
5.43171806167401,1.9335514579746804
5.451541850220265,1.9484361189794521
5.47136563876652,1.9632434923473985
5.491189427312777,1.9779185571575233
5.511013215859031,1.992408070597032
5.530837004405288,2.0066606799624487
5.550660792951542,2.0206270169805136
5.570484581497798,2.03425977639701
5.5903083700440535,2.047513780686795
5.610132158590309,2.06034603262162
5.6299559471365646,2.0727157573015673
5.64977973568282,2.0845844351184137
5.669603524229076,2.0959158269796654
5.689427312775331,2.1066759929848224
5.709251101321586,2.1168333056134063
5.729074889867842,2.1263584583594524
5.748898678414098,2.1352244706307832
5.768722466960353,2.1434066896242197
5.788546255506609,2.1508827897900815
5.808370044052864,2.15763277041071
5.82819383259912,2.163638951738167
5.848017621145375,2.168885970064732
5.867841409691631,2.173360772036013
5.887665198237886,2.1770526084595136
5.907488986784142,2.179953027810375
5.927312775330397,2.182055869590036
5.9471365638766525,2.1833572576521996
5.966960352422908,2.183855593571763
5.986784140969164,2.1835515500974445
6.00660792951542,2.1824480646946154
6.026431718061675,2.1805503331524037
6.04625550660793,2.1778658031966764
6.066079295154186,2.1744041680175927
6.085903083700441,2.1701773595865776
6.105726872246697,2.165199541601393
6.125550660792952,2.1594871018597503
6.145374449339208,2.153058643820204
6.1651982378854635,2.1459349770634715
6.185022026431718,2.138139106317603
6.204845814977975,2.129696218655686
6.224669603524229,2.1206336684145515
6.244493392070486,2.1109809593175535
6.264317180616741,2.100769723213084
6.284140969162996,2.090033694763557
6.303964757709252,2.0788086813373687
6.323788546255507,2.0671325272696337
6.3436123348017635,2.055045071567416
6.363436123348018,2.042588098042912
6.3832599118942746,2.029805276766573
6.403083700440529,2.0167420956441346
6.422907488986785,2.0034457808396193
6.44273127753304,1.9899652046976517
6.462555066079296,1.9763507797654214
6.482378854625551,1.9626543374860592
6.502202643171807,1.948928990137579
6.5220264317180625,1.9352289746331157
6.541850220264318,1.9216094768876006
6.561674008810574,1.9081264356031198
6.581497797356829,1.8948363245379356
6.601321585903085,1.8817959126108457
6.62114537444934,1.8690620015608146
6.640969162995596,1.8566911413333949
6.6607929515418505,1.844739323903989
6.680616740088107,1.8332616568663804
6.700440528634362,1.822312018806964
6.720264317180618,1.8119426992322891
6.740088105726873,1.8022040265996508
6.759911894273129,1.793143988787037
6.779735682819384,1.7848078510946548
6.799559471365639,1.7772377775551884
6.819383259911895,1.7704724619001109
6.83920704845815,1.7645467749412984
6.859030837004407,1.7594914353399111
6.8788546255506615,1.755332710714818
6.898678414096917,1.7520921557656022
6.918502202643173,1.7497863935421152
6.938325991189428,1.7484269451880434
6.958149779735684,1.7480201124425325
6.977973568281939,1.7485669159421957
6.997797356828195,1.7500630909769177
7.01762114537445,1.7524991408841364
7.037444933920705,1.755860446785278
7.0572687224669615,1.7601274309497428
7.077092511013216,1.765275769780039
7.096916299559473,1.771276651306409
7.116740088105728,1.7780970712025903
7.136563876651983,1.7857001607150242
7.156387665198239,1.7940455395464432
7.176211453744494,1.8030896866456136
7.19603524229075,1.812786322008119
7.215859030837005,1.8230867929576098
7.235682819383261,1.8339404589124573
7.255506607929516,1.8452950693075256
7.275330396475772,1.8570971300885373
7.295154185022027,1.8692922549872606
7.314977973568283,1.8818254985808587
7.334801762114538,1.8946416689068935
7.354625550660794,1.9076856181226158
7.374449339207049,1.9209025103445718
7.394273127753305,1.934238066371838
7.4140969162995605,1.9476387854777282
7.433920704845816,1.9610521448491554
7.453744493392072,1.9744267775647242
7.473568281938327,1.9877126302366988
7.493392070484583,2.0008611016067146
7.513215859030838,2.0138251634894546
7.533039647577093,2.0265594655111268
7.552863436123348,2.0390204251000794
7.572687224669605,2.0511663041638113
7.59251101321586,2.062957273836691
7.612334801762115,2.0743554686148804
7.6321585903083715,2.0853250311122458
7.651982378854627,2.095832148581517
7.671806167400882,2.1058450822495085
7.691629955947137,2.11533419042006
7.711453744493394,2.124271946202934
7.731277533039649,2.132632950636066
7.751101321585904,2.1403939418803595
7.7709251101321595,2.14753380108486
7.790748898678416,2.154033555442828
7.81057268722467,2.159876378888601
7.830396475770926,2.1650475908198668
7.850220264317182,2.1695346531700745
7.870044052863436,2.173327166100825
7.889867841409693,2.1764168625343747
7.909691629955948,2.1787976016997637
7.929515418502204,2.1804653618243077
7.9493392070484585,2.181418232062191
7.969162995594715,2.1816564037153
7.9889867841409705,2.1811821607662676
8.008810572687224,2.1799998697096976
8.02863436123348,2.178115968634832
8.048458149779737,2.1755389554798668
8.068281938325994,2.172279375345391
8.088105726872246,2.1683498067203937
8.107929515418503,2.1637648464397192
8.12775330396476,2.1585410931554874
8.147577092511014,2.152697129066515
8.167400881057269,2.146253499610122
8.187224669603525,2.13923269077759
8.207048458149782,2.1316591036702253
8.226872246696036,2.1235590258658097
8.246696035242293,2.114960599115983
8.266519823788547,2.1058937828448663
8.286343612334802,2.09639031286675
8.306167400881058,2.086483654689731
8.325991189427315,2.076208950720368
8.345814977973568,2.0656029606367317
8.365638766519824,2.054703994152642
8.38546255506608,2.0435518353586515
8.405286343612337,2.0321876577971816
8.42511013215859,2.0206539294130903
8.444933920704846,2.008994306521308
8.464757709251103,1.9972535159529847
8.484581497797357,1.9854772245852341
8.504405286343614,1.9737118955321966
8.524229074889869,1.9620046303794716
8.544052863436125,1.950402996986323
8.56387665198238,1.9389548425617327
8.583700440528636,1.9277080919462004
8.60352422907489,1.9167105313011692
8.623348017621145,1.9060095777223462
8.643171806167402,1.8956520356509494
8.662995594713658,1.885683841350468
8.682819383259913,1.8761497971417087
8.702643171806168,1.8670932975320758
8.722466960352424,1.8585560498246092
8.74229074889868,1.8505777922299889
8.762114537444935,1.8431960129129648
8.78193832599119,1.8364456737610384
8.801762114537446,1.830358942947932
8.821585903083701,1.8249649405547783
8.841409691629957,1.8202895015909557
8.861233480176212,1.8163549607071334
8.881057268722468,1.8131799627067797
8.900881057268723,1.810779302634191
8.92070484581498,1.8091637987509415
8.940528634361234,1.80834020111987
8.960352422907489,1.8083111378146186
8.980176211453745,1.8090750999884833
9.000000000000002,1.8106264662007154
9.019823788546258,1.8129555655435408
9.039647577092511,1.8160487782767294
9.059471365638768,1.819888671890445
9.079295154185024,1.8244541698143737
9.099118942731279,1.8297207493957128
9.118942731277533,1.8356606653008287
9.13876651982379,1.8422431941661006
9.158590308370046,1.849434896136743
9.1784140969163,1.8571998888847538
9.198237885462555,1.8655001297783864
9.218061674008812,1.8742957020707036
9.237885462555067,1.8835451012648037
9.257709251101323,1.8932055181770704
9.27753303964758,1.9032331156356983
9.297356828193834,1.913583296198365
9.317180616740089,1.9242109587312017
9.337004405286345,1.935070742143671
9.356828193832602,1.946117255007095
9.376651982378855,1.957305290186697
9.396475770925111,1.9685900239814564
9.416299559471367,1.9799271995862717
9.436123348017622,1.9912732949665402
9.455947136563877,2.002585675463778
9.475770925110133,2.0138227316363366
9.49559471365639,2.0249440029820427
9.515418502202644,2.035910288295113
9.5352422907489,2.0466837434816822
9.555066079295155,2.057227967700437
9.57488986784141,2.06750807871321
9.594713656387666,2.077490778327752
9.614537444933923,2.087144408795948
9.634361233480178,2.0964390009995717
9.654185022026432,2.105346315214149
9.674008810572689,2.1138398751938965
9.693832599118945,2.12189499626823
9.713656387665198,2.1294888080854677
9.733480176211454,2.1366002725834914
9.75330396475771,2.1432101977113422
9.773127753303967,2.1493012473713984
9.792951541850222,2.1548579479987353
9.812775330396477,2.1598666921437943
9.832599118942733,2.164315739376545
9.852422907488988,2.1681952147847205
9.872246696035244,2.171497105295774
9.892070484581499,2.174215254012238
9.911894273127754,2.176345352711783
9.93171806167401,2.1778849326280056
9.951541850220266,2.1788333535938773
9.971365638766521,2.1791917915979537
9.991189427312776,2.1789632247728092
10.011013215859032,2.178152417805859
10.030837004405289,2.1767659047343133
10.050660792951543,2.174811970058516
10.070484581497798,2.1723006280807016
10.090308370044054,2.1692436003498843
10.11013215859031,2.1656542910669248
10.129955947136565,2.1615477602779336
10.14977973568282,2.1569406946581946
10.169603524229077,2.1518513756632287
10.189427312775331,2.1462996447980784
10.209251101321588,2.1403068657317075
10.229074889867842,2.13389588295917
10.248898678414099,2.12709097669215
10.268722466960353,2.119917813637589
10.28854625550661,2.1124033933061637
10.308370044052865,2.104575989477482
10.32819383259912,2.0964650864381444
10.348017621145376,2.0881013096033496
10.367841409691632,2.079516350133642
10.387665198237887,2.070742883166825
10.407488986784141,2.0618144793028312
10.427312775330398,2.052765509007165
10.447136563876654,2.043631039638617
10.466960352422909,2.0344467248601084
10.486784140969164,2.0252486862596655
10.50660792951542,2.0160733870918714
10.526431718061675,2.006957498150628
10.546255506607931,1.9979377559013467
10.566079295154186,1.989050813134781
10.585903083700442,1.980333082555195
10.605726872246697,1.9718205738808445
10.625550660792953,1.9635487252125552
10.645374449339208,1.955552229613202
10.665198237885463,1.9478648580331424
10.685022026431719,1.9405192799095194
