Frequency (Hz),Amplitude
0.0,2.4478955644852247
0.019823788546255508,2.4467923475458293
0.039647577092511016,2.443484071144798
0.059471365638766524,2.43797485992238
0.07929515418502203,2.430271592957605
0.09911894273127755,2.420383910959608
0.11894273127753305,2.4083242266870233
0.13876651982378857,2.394107738959371
0.15859030837004406,2.3777524507461796
0.17841409691629956,2.359279191955523
0.1982378854625551,2.3387116476992302
0.2180616740088106,2.3160763929906087
0.2378854625550661,2.2914029350402467
0.25770925110132165,2.264723764562109
0.27753303964757714,2.2360744177965586
0.29735682819383263,2.2054935513092615
0.31718061674008813,2.173023032050271
0.3370044052863437,2.1387080456727317
0.3568281938325991,2.1025972267383684
0.37665198237885467,2.0647428152041263
0.3964757709251102,2.025200844525907
0.41629955947136565,1.9840313678735024
0.4361233480176212,1.9412987303811198
0.4559471365638767,1.8970718971252805
0.4757709251101322,1.8514248487113263
0.49559471365638774,1.8044370590622112
0.5154185022026433,1.7561940733628816
0.5352422907488987,1.7067882082663077
0.5550660792951543,1.6563194015805307
0.5748898678414097,1.6048962449090847
0.5947136563876653,1.5526372402807047
0.6145374449339208,1.4996723307942152
0.6343612334801763,1.446144765696338
0.6541850220264318,1.3922133717749035
0.6740088105726874,1.3380553145655976
0.6938325991189428,1.2838694426252641
0.7136563876651982,1.2298803120789747
0.7334801762114539,1.1763429796009026
0.7533039647577093,1.1235486174486176
0.7731277533039648,1.0718309235609103
0.7929515418502204,1.0215731411816362
0.8127753303964759,0.9732152207798566
0.8325991189427313,0.927260197049299
0.8524229074889869,0.8842781684002832
0.8722466960352424,0.8449053645951825
0.8920704845814978,0.8098348293718591
0.9118942731277534,0.7797946719056724
0.931718061674009,0.7555104655648234
0.9515418502202644,0.7376511903700619
0.9713656387665199,0.7267635768448067
0.9911894273127755,0.7232065486143835
1.0110132158590308,0.7271021523215151
1.0308370044052866,0.7383177716970291
1.0506607929515421,0.7564854657151268
1.0704845814977975,0.7810520897942644
1.090308370044053,0.8113451718359832
1.1101321585903086,0.8466382534600448
1.1299559471365639,0.8862042837316728
1.1497797356828194,0.9293524904745677
1.1696035242290752,0.9754495101497033
1.1894273127753305,1.023928262723336
1.209251101321586,1.0742886097304816
1.2290748898678416,1.1260932300320103
1.248898678414097,1.1789611850267907
1.2687224669603525,1.2325607511185968
1.288546255506608,1.286602422244531
1.3083700440528636,1.3408325342325096
1.3281938325991192,1.3950276875384258
1.3480176211453747,1.4489899905934895
1.36784140969163,1.5025430679439016
1.3876651982378856,1.5555287442777261
1.4074889867841411,1.6078043071514432
1.4273127753303965,1.659240255544554
1.4471365638766522,1.7097184512607397
1.4669603524229078,1.7591306018283432
1.4867841409691631,1.8073770149784205
1.5066079295154187,1.8543655751091013
1.5264317180616742,1.9000109010691106
1.5462555066079295,1.944233652093824
1.5660792951541853,1.986959954925432
1.5859030837004409,2.028120930215117
1.6057268722466962,2.067652300418743
1.6255506607929517,2.10549406472574
1.6453744493392073,2.1415902292471043
1.6651982378854626,2.175888582857301
1.6850220264317182,2.2083405108357694
1.7048458149779737,2.2389008398701127
1.7246696035242293,2.2675277091310244
1.7444933920704848,2.2941824630617194
1.7643171806167404,2.3188295622852815
1.7841409691629957,2.3414365096549634
1.8039647577092512,2.3619737889840295
1.8237885462555068,2.3804148144127257
1.8436123348017623,2.3967358887200207
1.863436123348018,2.4109161691795573
1.8832599118942732,2.422937639804236
1.9030837004405288,2.4327850890319973
1.9229074889867843,2.440446092083046
1.9427312775330399,2.4459109973730775
1.9625550660792954,2.4491729165025475
1.982378854625551,2.4502277174636458
2.002202643171806,2.4490740208170365
2.0220264317180616,2.4457131986946616
2.041850220264317,2.4401493765841353
2.061674008810573,2.432389437948733
2.0814977973568287,2.422443031836867
2.1013215859030843,2.410322583739139
2.1211453744493394,2.396043310063006
2.140969162995595,2.3796232367174364
2.1607929515418505,2.361083222437588
2.180616740088106,2.340446987635393
2.2004405286343616,2.3177411497429916
2.220264317180617,2.2929952662268875
2.2400881057268722,2.2662418867002545
2.2599118942731278,2.2375166158578406
2.2797356828193833,2.206858189314119
2.299559471365639,2.174308564854907
2.319383259911895,2.1399130321335718
2.3392070484581504,2.1037203444775163
2.3590308370044055,2.0657828772461797
2.378854625550661,2.026156818133894
2.3986784140969166,1.9849023959826337
2.418502202643172,1.9420841561155782
2.4383259911894277,1.8977712919905159
2.4581497797356833,1.8520380451863323
2.4779735682819384,1.8049641884792258
2.497797356828194,1.7566356101627987
2.5176211453744495,1.7071450219649744
2.537444933920705,1.6565928180830918
2.5572687224669606,1.6050881191760074
2.577092511013216,1.5527500427877232
2.5969162995594717,1.4997092507434102
2.6167400881057272,1.4461098345194785
2.6365638766519828,1.3921116110957392
2.6563876651982383,1.3378929133890372
2.676211453744494,1.2836539689599786
2.6960352422907494,1.2296209642190095
2.715859030837005,1.1760508814317632
2.73568281938326,1.1232371596309565
2.7555066079295156,1.0715161470444996
2.775330396475771,1.021274149376547
2.7951541850220267,0.972954589415752
2.8149779735682823,0.9270643236560866
2.834801762114538,0.8841774650582583
2.854625550660793,0.8449341512237567
2.874449339207049,0.8100307434221273
2.8942731277533045,0.7801974029418527
2.91409691629956,0.7561596944213178
2.9339207048458156,0.7385838025583172
2.953744493392071,0.7280105174606456
2.9735682819383262,0.7247899792010809
2.993392070484582,0.7290336648017577
3.0132158590308373,0.7405981695777494
3.033039647577093,0.7591061114510272
3.0528634361233484,0.7839973178919113
3.072687224669604,0.8145950450745664
3.092511013215859,0.850171043720859
3.1123348017621146,0.889998339473871
3.1321585903083706,0.9333874259305749
3.151982378854626,0.9797068197482768
3.1718061674008817,1.0283915245093889
3.1916299559471373,1.078943433276434
3.2114537444933924,1.1309270678916346
3.231277533039648,1.1839630872298859
3.2511013215859035,1.237721110227081
3.270925110132159,1.2919127342455035
3.2907488986784146,1.3462851865636463
3.31057268722467,1.4006157774748942
3.3303964757709252,1.4547071729821865
3.350220264317181,1.5083834293225264
3.3700440528634363,1.5614866997573291
3.389867841409692,1.6138745164540267
3.4096916299559474,1.665417554913098
3.4295154185022034,1.7159977984000594
3.4493392070484585,1.7655070314883174
3.469162995594714,1.8138456032090688
3.4889867841409696,1.8609214105803904
3.508810572687225,1.9066490621540513
3.5286343612334807,1.9509491886656454
3.5484581497797363,1.9937478740244894
3.5682819383259914,2.0349761849066206
3.588105726872247,2.0745697812952306
3.6079295154185025,2.1124685936144245
3.627753303964758,2.148616554767324
3.6475770925110136,2.1829613775412824
3.667400881057269,2.215454369580287
3.6872246696035247,2.246050279530544
3.7070484581497802,2.2747071691042353
3.726872246696036,2.301386306732706
3.7466960352422913,2.3260520792353927
3.7665198237885464,2.348671918548442
3.7863436123348024,2.369216241064545
3.8061674008810575,2.3876583975545858
3.8259911894273135,2.4039746319890587
3.8458149779735686,2.418144047867391
3.8656387665198246,2.4301485809073147
3.8854625550660797,2.4399729771531766
3.905286343612335,2.4476047757392076
3.925110132158591,2.4530342956973863
3.9449339207048464,2.4562546263349008
3.964757709251102,2.457261620827132
3.9845814977973575,2.456053892783051
4.004405286343612,2.452632815643536
4.024229074889869,2.4470025248732514
4.044052863436123,2.4391699230048633
4.06387665198238,2.429144687695324
4.083700440528634,2.4169392830584777
4.103524229074891,2.4025689746510963
4.123348017621146,2.386051848613144
4.143171806167401,2.3674088356013874
4.162995594713657,2.3466637403138626
4.182819383259912,2.3238432775849613
4.2026431718061685,2.2989771162446724
4.222466960352423,2.2720979321881343
4.242290748898679,2.243241472402068
4.262114537444934,2.212446632055512
4.28193832599119,2.1797555471975256
4.301762114537445,2.145213706131836
4.321585903083701,2.1088700831817544
4.3414096916299565,2.0707772993443068
4.361233480176212,2.0309918152974675
4.381057268722468,1.9895741634118957
4.400881057268723,1.9465892268839182
4.420704845814979,1.902106575918805
4.440528634361234,1.8562008731374802
4.46035242290749,1.8089523631595623
4.4801762114537445,1.7604474647581818
4.500000000000001,1.7107794882348069
4.5198237885462555,1.6600495058950124
4.539647577092512,1.6083674098987144
4.559471365638767,1.5558531994774543
4.579295154185023,1.5026385486643679
4.599118942731278,1.4488687162211966
4.618942731277533,1.3947048709974286
4.63876651982379,1.3403269175133534
4.658590308370044,1.2859369159564502
4.678414096916301,1.2317631938223694
4.6982378854625555,1.178065235487167
4.718061674008811,1.12513939790804
4.737885462555067,1.0733254138645105
4.757709251101322,1.023013475544892
4.777533039647578,0.9746513943972381
4.797356828193833,0.9287508525304606
4.817180616740089,0.8858910522190991
4.837004405286344,0.8467171517878131
4.856828193832599,0.8119299286697864
4.876651982378855,0.7822626097714346
4.896475770925111,0.75844159855929
4.9162995594713665,0.7411308922174151
4.936123348017622,0.7308656621411188
4.955947136563877,0.7279872944440451
4.975770925110133,0.7325964640104723
4.995594713656388,0.744538529696173
5.015418502202644,0.7634260483309229
5.035242290748899,0.7886910613937919
5.055066079295155,0.8196516875477786
5.07488986784141,0.8555769468382453
5.094713656387666,0.8957389658356104
5.114537444933921,0.9394485301678717
5.134361233480177,0.9860750966510355
5.154185022026432,1.0350548687148518
5.174008810572688,1.0858909564650014
5.193832599118943,1.1381489845781454
5.213656387665199,1.1914505429537225
5.2334801762114544,1.2454659961123342
5.25330396475771,1.299907511337123
5.2731277533039655,1.3545227305280478
5.292951541850221,1.409089246914701
5.312775330396477,1.4634099007807067
5.332599118942731,1.5173088346818568
5.352422907488988,1.5706282179995312
5.372246696035242,1.6232255436568939
5.392070484581499,1.674971404727066
5.4118942731277535,1.7257476687659112
5.43171806167401,1.7754459793567476
5.451541850220265,1.8239665257114224
5.47136563876652,1.8712170314003072
5.491189427312777,1.9171119220999024
5.511013215859031,1.9615716396475715
5.530837004405288,2.004522075804108
5.550660792951542,2.0458941041180743
5.570484581497798,2.085623192340288
5.5903083700440535,2.1236490811162594
5.610132158590309,2.159915517332496
5.6299559471365646,2.1943700326305153
5.64977973568282,2.2269637593292138
5.669603524229076,2.2576512773934345
5.689427312775331,2.286390487219219
5.709251101321586,2.313142503927309
5.729074889867842,2.3378715696071466
5.748898678414098,2.360544980568719
5.768722466960353,2.3811330271640063
5.788546255506609,2.39960894415758
5.808370044052864,2.415948869971271
5.82819383259912,2.4301318134173617
5.848017621145375,2.4421396267774877
5.867841409691631,2.451956984290939
5.887665198237886,2.4595713652925184
5.907488986784142,2.4649730413937063
5.927312775330397,2.468155067235921
5.9471365638766525,2.4691132744659408
5.966960352422908,2.4678462686942697
5.986784140969164,2.464355429301738
6.00660792951542,2.458644912059451
6.026431718061675,2.450721654626761
6.04625550660793,2.440595385092873
6.066079295154186,2.4282786338336937
6.085903083700441,2.413786749069271
6.105726872246697,2.397137916632161
6.125550660792952,2.3783531845976404
6.145374449339208,2.357456493586197
6.1651982378854635,2.334474713734349
6.185022026431718,2.3094376895463316
6.204845814977975,2.2823782940951927
6.224669603524229,2.253332494347282
6.244493392070486,2.2223394297501504
6.264317180616741,2.189441506665663
6.284140969162996,2.1546845117662
6.303964757709252,2.1181177481645364
6.323788546255507,2.0797941988467596
6.3436123348017635,2.0397707229571793
6.363436123348018,1.9981082916910142
6.3832599118942746,1.954872272039072
6.403083700440529,1.9101327684696405
6.422907488986785,1.863965034912037
6.44273127753304,1.8164499722296108
6.462555066079296,1.7676747298648028
6.482378854625551,1.7177334346550213
6.502202643171807,1.6667280751263454
6.5220264317180625,1.6147695760507443
6.541850220264318,1.5619791058684886
6.561674008810574,1.5084896688286902
6.581497797356829,1.4544480443269854
6.601321585903085,1.4000171475159504
6.62114537444934,1.3453788967721168
6.640969162995596,1.290737682764925
6.6607929515418505,1.2363245363294517
6.680616740088107,1.182402080208998
6.700440528634362,1.1292703094435497
6.720264317180618,1.0772731546132361
6.740088105726873,1.026805607451746
6.759911894273129,0.9783208823878459
6.779735682819384,0.9323365948176057
6.799559471365639,0.8894382148177158
6.819383259911895,0.850277127986226
6.83920704845815,0.8155596958300121
6.859030837004407,0.7860232513654106
6.8788546255506615,0.7623958507409003
6.898678414096917,0.7453398037702453
6.918502202643173,0.7353848018926068
6.938325991189428,0.7328632639004119
6.958149779735684,0.7378645576239558
6.977973568281939,0.750222093228553
6.997797356828195,0.7695375236441077
7.01762114537445,0.7952341847788466
7.037444933920705,0.8266240956109079
7.0572687224669615,0.8629725660061041
7.077092511013216,0.9035498500335603
7.096916299559473,0.947666080331911
7.116740088105728,0.9946907561753526
7.136563876651983,1.0440604438317835
7.156387665198239,1.0952787014124978
7.176211453744494,1.1479115573363619
7.19603524229075,1.2015809014474879
7.215859030837005,1.2559572763825273
7.235682819383261,1.3107529097986599
7.255506607929516,1.3657154004595402
7.275330396475772,1.4206222125274
7.295154185022027,1.4752759886899025
7.314977973568283,1.5295006210023472
7.334801762114538,1.583137988740972
7.354625550660794,1.6360452660852345
7.374449339207049,1.6880927075902536
7.394273127753305,1.7391618295975704
7.4140969162995605,1.7891439173913242
7.433920704845816,1.837938799233371
7.453744493392072,1.8854538385956534
7.473568281938327,1.931603104680396
7.493392070484583,1.976306688679601
7.513215859030838,2.0194901393024556
7.533039647577093,2.061083996065149
7.552863436123348,2.1010234028692447
7.572687224669605,2.1392477876568607
7.59251101321586,2.1757005965652176
7.612334801762115,2.2103290731303087
7.6321585903083715,2.2430840748081007
7.651982378854627,2.2739199204723235
7.671806167400882,2.3027942636760064
7.691629955947137,2.329667987380921
7.711453744493394,2.3545051166073088
7.731277533039649,2.377272746068849
7.751101321585904,2.3979409803610685
7.7709251101321595,2.416482884687494
7.790748898678416,2.43287444445291
7.81057268722467,2.447094532341587
7.830396475770926,2.4591248817408915
7.850220264317182,2.4689500655769567
7.870044052863436,2.4765574798055483
7.889867841409693,2.4819373309548096
7.909691629955948,2.48508262725192
7.929515418502204,2.4859891729871717
7.9493392070484585,2.4846555658802787
7.969162995594715,2.4810831973185943
7.9889867841409705,2.475276255437595
8.008810572687224,2.467241731114269
8.02863436123348,2.4569894270461186
8.048458149779737,2.4445319701955714
8.068281938325994,2.429884827994914
8.088105726872246,2.413066328833665
8.107929515418503,2.3940976874926894
8.12775330396476,2.3730030363519448
8.147577092511014,2.3498094633868942
8.167400881057269,2.32454705818921
8.187224669603525,2.297248967507576
8.207048458149782,2.267951462115646
8.226872246696036,2.2366940171863985
8.246696035242293,2.2035194088024537
8.266519823788547,2.168473829777535
8.286343612334802,2.1316070286292947
8.306167400881058,2.0929724763570756
8.325991189427315,2.0526275666765144
8.345814977973568,2.010633856591561
8.365638766519824,1.9670573557011746
8.38546255506608,1.9219688745124885
8.405286343612337,1.8754444443535332
8.42511013215859,1.8275658243526314
8.444933920704846,1.7784211145082747
8.464757709251103,1.72810549826378
8.484581497797357,1.67672214339639
8.504405286343614,1.6243832966101532
8.524229074889869,1.571211615147944
8.544052863436125,1.5173417881016527
8.56387665198238,1.462922510821439
8.583700440528636,1.4081188874663826
8.60352422907489,1.3531153481783222
8.623348017621145,1.2981191762271413
8.643171806167402,1.2433647422271772
8.662995594713658,1.189118528970367
8.682819383259913,1.1356849875424873
8.702643171806168,1.0834131704097352
8.722466960352424,1.0327039054310412
8.74229074889868,0.9840169584101379
8.762114537444935,0.937877125352605
8.78193832599119,0.8948774587424432
8.801762114537446,0.8556768961746258
8.821585903083701,0.8209886313405184
8.841409691629957,0.7915551621169087
8.861233480176212,0.7681069444291686
8.881057268722468,0.7513049349679646
8.900881057268723,0.7416732226608298
8.92070484581498,0.7395347151806805
8.940528634361234,0.7449666135113037
8.960352422907489,0.757789337584819
8.980176211453745,0.7775925295357788
9.000000000000002,0.8037897205474615
9.019823788546258,0.8356857711234854
9.039647577092511,0.8725412721326529
9.059471365638768,0.9136236486561518
9.079295154185024,0.9582414787330596
9.099118942731279,1.0057634610371424
9.118942731277533,1.0556257434640295
9.13876651982379,1.1073316143138643
9.158590308370046,1.1604468506453705
9.1784140969163,1.2145930472041762
9.198237885462555,1.2694403857049477
9.218061674008812,1.32470066630944
9.237885462555067,1.3801210028325057
9.257709251101323,1.4354783295872453
9.27753303964758,1.4905747271976835
9.297356828193834,1.545233504777034
9.317180616740089,1.599295947268234
9.337004405286345,1.6526186307551067
9.356828193832602,1.7050712139107476
9.376651982378855,1.7565346240064892
9.396475770925111,1.806899567562804
9.416299559471367,1.856065307019076
9.436123348017622,1.9039386549434147
9.455947136563877,1.9504331460354773
9.475770925110133,1.9954683545015544
9.49559471365639,2.0389693304281593
9.515418502202644,2.0808661337231515
9.5352422907489,2.121093448206322
9.555066079295155,2.159590261679205
9.57488986784141,2.1962996004274546
9.594713656387666,2.2311683087280376
9.614537444933923,2.264146865645813
9.634361233480178,2.2951892327906473
9.654185022026432,2.3242527278303786
9.674008810572689,2.351297919469996
9.693832599118945,2.376288540353525
9.713656387665198,2.399191414956667
9.733480176211454,2.4199764000405994
9.75330396475771,2.4386163356529176
9.773127753303967,2.455087005006383
9.792951541850222,2.4693671018547527
9.812775330396477,2.4814382042273526
9.832599118942733,2.491284753590544
9.852422907488988,2.4988940386810956
9.872246696035244,2.5042561834100834
9.892070484581499,2.5073641383722687
9.911894273127754,2.508213675617345
9.93171806167401,2.5068033864520656
9.951541850220266,2.5031346821473273
9.971365638766521,2.4972117975265293
9.991189427312776,2.4890417975123844
10.011013215859032,2.478634586813192
10.030837004405289,2.4660029230379026
10.050660792951543,2.4511624336466955
10.070484581497798,2.4341316372726767
10.090308370044054,2.414931970095281
10.11013215859031,2.39358781811175
10.129955947136565,2.370126556344961
10.14977973568282,2.344578596250743
10.169603524229077,2.316977442853812
10.189427312775331,2.2873597634589378
10.209251101321588,2.255765470164319
10.229074889867842,2.222237818864194
10.248898678414099,2.1868235279850463
10.268722466960353,2.1495729208794967
10.28854625550661,2.110540096633116
10.308370044052865,2.0697831350593034
10.32819383259912,2.027364342913289
10.348017621145376,1.9833505499054744
10.367841409691632,1.9378134650096914
10.387665198237887,1.890830105932295
10.407488986784141,1.8424833175425477
10.427312775330398,1.7928623986940642
10.447136563876654,1.7420638613447321
10.466960352422909,1.6901923513800063
10.486784140969164,1.6373617672406795
10.50660792951542,1.5836966205093121
10.526431718061675,1.5293336920995684
10.546255506607931,1.4744240485190396
10.566079295154186,1.4191354943573724
10.585903083700442,1.3636555484890338
10.605726872246697,1.308195039972207
10.625550660792953,1.2529924205060907
10.645374449339208,1.1983188750370846
10.665198237885463,1.1444842661232653
