Frequency (Hz),Amplitude
0.0,0.7811473832064975
0.019801980198019802,0.7828750897887203
0.039603960396039604,0.7880287789001634
0.0594059405940594,0.796522083357559
0.07920792079207921,0.8082171757915121
0.09900990099009901,0.8229329839836139
0.1188118811881188,0.8404550268360333
0.13861386138613863,0.8605457040109838
0.15841584158415842,0.8829540429245637
0.1782178217821782,0.9074242056097009
0.19801980198019803,0.9337023856514163
0.21782178217821782,0.9615420079479368
0.2376237623762376,0.9907073449722377
0.25742574257425743,1.0209757783005347
0.27722772277227725,1.0521389786528774
0.297029702970297,1.084003273747655
0.31683168316831684,1.1163894418488396
0.33663366336633666,1.1491321259274003
0.3564356435643564,1.1820790191870272
0.37623762376237624,1.2150899329565215
0.39603960396039606,1.2480358249866121
0.4158415841584158,1.2807978403752487
0.43564356435643564,1.3132663980123043
0.45544554455445546,1.345340341494032
0.4752475247524752,1.37692616375557
0.495049504950495,1.4079373081645903
0.5148514851485149,1.4382935446452936
0.5346534653465347,1.467920416880606
0.5544554455445545,1.496748755258781
0.5742574257425742,1.524714249612337
0.594059405940594,1.5517570756745476
0.613861386138614,1.577821569362225
0.6336633663366337,1.6028559433556726
0.6534653465346534,1.626812040900591
0.6732673267326733,1.6496451222463246
0.6930693069306931,1.6713136796251873
0.7128712871287128,1.6917792771464897
0.7326732673267327,1.7110064124163114
0.7524752475247525,1.7289623970924548
0.7722772277227723,1.745617253943996
0.7920792079207921,1.7609436283058626
0.8118811881188118,1.7749167121040048
0.8316831683168316,1.7875141788791105
0.8514851485148516,1.7987161284594404
0.8712871287128713,1.8085050401305567
0.891089108910891,1.8168657333236753
0.9108910891089109,1.8237853349995738
0.9306930693069307,1.8292532530433392
0.9504950495049505,1.8332611551099165
0.9702970297029703,1.8358029524741628
0.99009900990099,1.8368747885430143
1.00990099009901,1.8364750317858727
1.0297029702970297,1.8346042729310186
1.0495049504950495,1.8312653263661767
1.0693069306930694,1.8264632357695525
1.0891089108910892,1.8202052840864504
1.108910891089109,1.812501008057882
1.1287128712871286,1.803362217603098
1.1485148514851484,1.792803020459051
1.1683168316831685,1.7808398525897409
1.188118811881188,1.7674915149980055
1.2079207920792079,1.7527792177048658
1.227722772277228,1.7367266318095422
1.2475247524752475,1.7193599507090953
1.2673267326732673,1.7007079617440473
1.2871287128712872,1.6808021297478513
1.3069306930693068,1.659676694218192
1.3267326732673268,1.6373687820988092
1.3465346534653466,1.6139185384669126
1.3663366336633662,1.5893692777643706
1.3861386138613863,1.563767658593525
1.405940594059406,1.5371638855197203
1.4257425742574257,1.5096119417790008
1.4455445544554455,1.4811698572724825
1.4653465346534653,1.451900016720449
1.4851485148514851,1.4218695133229107
1.504950495049505,1.3911505536788746
1.5247524752475248,1.359820919985188
1.5445544554455446,1.3279644955547862
1.5643564356435644,1.295671859303988
1.5841584158415842,1.2630409538265035
1.6039603960396038,1.2301778296688237
1.6237623762376237,1.1971974649969321
1.6435643564356437,1.164224654390598
1.6633663366336633,1.1313949522326625
1.683168316831683,1.098855644107846
1.7029702970297032,1.0667667026682242
1.7227722772277227,1.0353016614223165
1.7425742574257426,1.0046483099643921
1.7623762376237624,0.9750090771319183
1.782178217821782,0.9466009258638611
1.801980198019802,0.9196545392418727
1.8217821782178218,0.8944125395405949
1.8415841584158414,0.8711264646351637
1.8613861386138615,0.8500522478656541
1.881188118811881,0.831444030747107
1.900990099009901,0.8155463020570496
1.920792079207921,0.802584607284177
1.9405940594059405,0.7927553874135157
1.9603960396039604,0.7862158270221415
1.98019801980198,0.7830748273204633
2.0,0.7833862707762393
2.01980198019802,0.7871455453400583
2.0396039603960396,0.7942898583035296
2.0594059405940595,0.8047022904962584
2.0792079207920793,0.818218975693926
2.099009900990099,0.8346383870243581
2.118811881188119,0.8537315563094549
2.1386138613861387,0.8752521395782208
2.1584158415841586,0.8989454986388659
2.1782178217821784,0.9245562940339836
2.1980198019801978,0.9518343919131644
2.217821782178218,0.9805391241041292
2.237623762376238,1.010442090540236
2.257425742574257,1.041328764844669
2.2772277227722775,1.072999177703391
2.297029702970297,1.1052679307398185
2.3168316831683167,1.1379637541373548
2.336633663366337,1.1709287768395449
2.3564356435643563,1.2040176362284103
2.376237623762376,1.2370965183093212
2.3960396039603964,1.2700421906949573
2.4158415841584158,1.3027410687618781
2.4356435643564356,1.3350883392932404
2.455445544554456,1.3669871545687429
2.4752475247524752,1.3983479021211116
2.495049504950495,1.4290875503071891
2.514851485148515,1.4591290666869392
2.5346534653465347,1.4884009043856443
2.5544554455445545,1.5168365507058423
2.5742574257425743,1.5443741319440625
2.594059405940594,1.5709560684353236
2.6138613861386135,1.59652877414336
2.633663366336634,1.6210423955344193
2.6534653465346536,1.6444505849498638
2.673267326732673,1.666710304183406
2.6930693069306932,1.6877816544474689
2.712871287128713,1.707627729363164
2.7326732673267324,1.7262144880226258
2.7524752475247527,1.7435106455480553
2.7722772277227725,1.7594875789083
2.792079207920792,1.7741192460534299
2.811881188118812,1.7873821166932113
2.8316831683168315,1.7992551132800438
2.8514851485148514,1.809719560964234
2.8712871287128716,1.818759145472758
2.891089108910891,1.8263598780256394
2.910891089108911,1.8325100665487861
2.9306930693069306,1.8372002925728999
2.9504950495049505,1.8404233933255865
2.9702970297029703,1.8421744486323708
2.99009900990099,1.8424507723424435
3.00990099009901,1.8412519080897771
3.0297029702970297,1.838579629291113
3.0495049504950495,1.834437943371243
3.0693069306930694,1.8288331002946954
3.089108910891089,1.8217736055731955
3.108910891089109,1.8132702380120784
3.128712871287129,1.8033360725575915
3.148514851485148,1.7919865087134204
3.1683168316831685,1.779239305110133
3.1881188118811883,1.7651146209388595
3.2079207920792077,1.7496350651015453
3.227722772277228,1.7328257540889653
3.2475247524752473,1.714714379775656
3.267326732673267,1.695331288522543
3.2871287128712874,1.6747095732057813
3.3069306930693068,1.652885180048109
3.3267326732673266,1.6298970324201079
3.346534653465347,1.605787174105945
3.366336633663366,1.5806009348936718
3.386138613861386,1.5543871217545122
3.4059405940594063,1.5271982393162669
3.4257425742574257,1.4990907438067713
3.4455445544554455,1.470125335130448
3.4653465346534653,1.4403672922211002
3.485148514851485,1.4098868572478773
3.504950495049505,1.3787596745779633
3.5247524752475248,1.3470672905252465
3.5445544554455446,1.3148977197011757
3.564356435643564,1.2823460830306397
3.5841584158415842,1.2495153209172456
3.603960396039604,1.2165169822408093
3.6237623762376234,1.183472085308308
3.6435643564356437,1.1505120398506792
3.6633663366336635,1.1177796087718266
3.683168316831683,1.0854298735566168
3.702970297029703,1.053631146890788
3.722772277227723,1.0225657491172622
3.7425742574257423,0.992430531138625
3.762376237623762,0.963436985944816
3.7821782178217824,0.9358107469497747
3.801980198019802,0.9097902301032662
3.8217821782178216,0.8856241494817171
3.841584158415842,0.8635676394934082
3.8613861386138613,0.8438767721844022
3.881188118811881,0.826801386701337
3.9009900990099013,0.8125763622142326
3.9207920792079207,0.801411756491755
3.9405940594059405,0.7934825573868581
3.96039603960396,0.7889190751202414
3.98019801980198,0.7877991403014489
4.0,0.7901431823796399
4.01980198019802,0.7959129212587867
4.03960396039604,0.805013872935311
4.0594059405940595,0.8173012838769296
4.079207920792079,0.8325886262957702
4.099009900990099,0.850657523304436
4.118811881188119,0.8712679622682336
4.138613861386139,0.8941678485951059
4.158415841584159,0.9191012572483308
4.178217821782178,0.9458150599463298
4.198019801980198,0.974063874775433
4.217821782178218,1.0036134710867874
4.237623762376238,1.0342428654533649
4.257425742574258,1.0657453806617323
4.2772277227722775,1.0979289311922757
4.297029702970297,1.1306157654372482
4.316831683168317,1.1636418519422018
4.336633663366336,1.1968560537110902
4.356435643564357,1.2301191961462854
4.376237623762377,1.2633031025203079
4.3960396039603955,1.2962896461951152
4.415841584158416,1.3289698503876106
4.435643564356436,1.3612430530389918
4.455445544554455,1.393016145155742
4.475247524752476,1.4242028848455057
4.4950495049504955,1.4547232853435144
4.514851485148514,1.4845030729656261
4.534653465346535,1.5134732096446815
4.554455445544555,1.5415694741497847
4.574257425742574,1.5687320959984075
4.594059405940594,1.5949054362704624
4.613861386138614,1.6200377098993108
4.633663366336633,1.6440807444658652
4.653465346534653,1.666989771004838
4.673267326732674,1.6887232428139862
4.693069306930693,1.7092426787171342
4.712871287128713,1.7285125276598794
4.732673267326733,1.7465000519072367
4.752475247524752,1.7631752264645304
4.772277227722772,1.7785106526571082
4.792079207920793,1.792481484083794
4.811881188118812,1.8050653634061207
4.8316831683168315,1.8162423686539262
4.851485148514852,1.8259949679211727
4.871287128712871,1.8343079814971752
4.891089108910891,1.841168550630959
4.910891089108912,1.8465661122629984
4.930693069306931,1.8504923791818915
4.9504950495049505,1.8529413251759748
4.97029702970297,1.8539091748537182
4.99009900990099,1.8533943979038825
5.00990099009901,1.8513977076593924
5.02970297029703,1.8479220639186067
5.0495049504950495,1.8429726800667925
5.069306930693069,1.8365570346305733
5.089108910891089,1.8286848874904644
5.108910891089109,1.8193683010738446
5.128712871287129,1.8086216669538875
5.148514851485149,1.796461738392089
5.1683168316831685,1.7829076694845556
5.188118811881188,1.7679810617079104
5.207920792079208,1.751706018812269
5.227722772277227,1.7341092111786538
5.247524752475248,1.715219950950042
5.267326732673268,1.6950702794618535
5.2871287128712865,1.6736950687426322
5.306930693069307,1.6511321391322058
5.326732673267327,1.6274223953759654
5.346534653465346,1.6026099839020576
5.366336633663367,1.5767424743747533
5.3861386138613865,1.5498710690405828
5.405940594059405,1.5220508438389353
5.425742574257426,1.4933410257255915
5.445544554455446,1.4638053111361338
5.465346534653465,1.4335122309640458
5.485148514851486,1.4025355677936622
5.504950495049505,1.3709548313318303
5.524752475247524,1.3388557979048088
5.544554455445545,1.3063311193557552
5.564356435643565,1.2734810054445385
5.584158415841584,1.2404139815688044
5.603960396039604,1.207247719818381
5.623762376237624,1.1741099354145883
5.643564356435643,1.141139331665323
5.663366336633663,1.1084865637061834
5.683168316831684,1.0763151733965013
5.702970297029703,1.0448024237215823
5.7227722772277225,1.0141399301737606
5.742574257425743,0.984533948969738
5.762376237623762,0.9562051394556484
5.782178217821782,0.9293875753931717
5.801980198019803,0.9043267459876444
5.821782178217822,0.8812762767726908
5.841584158415841,0.860493132154861
5.861386138613861,0.8422311571421952
5.881188118811881,0.8267329924988329
5.900990099009901,0.8142206564762318
5.920792079207921,0.8048854001046292
5.9405940594059405,0.7988777486203446
5.96039603960396,0.7962988469765688
5.98019801980198,0.7971942391340509
6.0,0.801550976067398
6.01980198019802,0.8092984900838252
6.03960396039604,0.8203130995349479
6.0594059405940595,0.8344254712873814
6.079207920792079,0.8514300063477896
6.099009900990099,0.8710949965725155
6.118811881188119,0.8931725123452464
6.138613861386139,0.9174072452367609
6.158415841584159,0.9435438486898643
6.178217821782178,0.971332613158713
6.198019801980198,1.0005335337707468
6.217821782178218,1.0309189659641478
6.237623762376237,1.062275127809177
6.257425742574258,1.094402717072056
6.2772277227722775,1.1271168876052873
6.297029702970296,1.1602467904376974
6.316831683168317,1.1936348416814815
6.336633663366337,1.22713583889627
6.356435643564356,1.2606160130739577
6.376237623762377,1.293952075851825
6.396039603960396,1.3270303005634465
6.415841584158415,1.3597456603533729
6.435643564356436,1.3920010357034442
6.455445544554456,1.4237064962949322
6.475247524752475,1.4547786572628425
6.495049504950495,1.4851401068664867
6.514851485148515,1.5147189008515596
6.534653465346534,1.5434481179028265
6.554455445544554,1.5712654702860036
6.574257425742575,1.5981129638428453
6.594059405940594,1.6239366017886903
6.6138613861386135,1.6486861271686333
6.633663366336634,1.6723147992911795
6.653465346534653,1.6947791999354007
6.673267326732673,1.7160390655926603
6.693069306930694,1.7360571424427709
6.712871287128713,1.7547990611683884
6.732673267326732,1.7722332290783673
6.752475247524753,1.7883307373399964
6.772277227722772,1.8030652814135053
6.792079207920792,1.81641309304277
6.811881188118813,1.8283528823866317
6.8316831683168315,1.8388657890792761
6.851485148514851,1.847935341188996
6.871287128712871,1.8555474212054288
6.891089108910891,1.8616902383289275
6.910891089108911,1.8663543064651813
6.930693069306931,1.8695324274455425
6.9504950495049505,1.8712196791014384
6.97029702970297,1.8714134079218467
6.99009900990099,1.870113226117813
7.00990099009901,1.8673210130097637
7.02970297029703,1.863040920743054
7.0495049504950495,1.857279384427517
7.069306930693069,1.8500451368883362
7.089108910891089,1.8413492283115094
7.108910891089109,1.8312050511680733
7.128712871287128,1.8196283709102528
7.148514851485149,1.8066373630510995
7.1683168316831685,1.7922526573699076
7.188118811881187,1.776497390130719
7.207920792079208,1.759397265363824
7.227722772277228,1.7409806264427625
7.247524752475247,1.7212785393955174
7.267326732673268,1.7003248896211753
7.287128712871287,1.6781564939461096
7.306930693069306,1.6548132302491503
7.326732673267327,1.6303381872164295
7.346534653465347,1.6047778371544863
7.366336633663366,1.5781822351948056
7.3861386138613865,1.5506052486602946
7.405940594059406,1.5221048208261347
7.425742574257425,1.492743273777726
7.445544554455446,1.4625876555198802
7.465346534653466,1.431710136880245
7.485148514851485,1.40018846400814
7.504950495049505,1.3681064722957959
7.524752475247524,1.335554667192638
7.544554455445544,1.3026308764298853
7.564356435643565,1.2694409763195318
7.584158415841584,1.2360996916227511
7.603960396039604,1.2027314634399906
7.623762376237624,1.1694713719362426
7.643564356435643,1.1364660895854444
7.663366336633663,1.1038748249607138
7.683168316831684,1.0718701958374413
7.702970297029703,1.0406389426310565
7.7227722772277225,1.0103823586988374
7.742574257425743,0.981316273857988
7.762376237623762,0.9536703850149764
7.782178217821782,0.9276866900754257
7.801980198019803,0.9036167601189413
7.821782178217822,0.8817175971915812
7.841584158415841,0.8622458916334724
7.861386138613862,0.8454506329197403
7.881188118811881,0.8315642503001216
7.900990099009901,0.820792750117247
7.92079207920792,0.8133056286880654
7.9405940594059405,0.809226593316015
7.96039603960396,0.8086262249284814
7.980198019801979,0.8115175909680572
8.0,0.8178554550912793
8.01980198019802,0.8275392016493239
8.03960396039604,0.8404190330692923
8.05940594059406,0.8563045549386048
8.07920792079208,0.8749746382882637
8.099009900990099,0.8961874628341753
8.118811881188119,0.9196898466543987
8.138613861386139,0.9452252663277149
8.158415841584159,0.9725402779916655
8.178217821782178,1.0013893029878866
8.198019801980198,1.031537915226791
8.217821782178218,1.0627648620706627
8.237623762376238,1.0948630826663084
8.257425742574258,1.127639978114331
8.277227722772277,1.160917155432389
8.297029702970297,1.1945298258860235
8.316831683168317,1.2283259967569558
8.336633663366337,1.262165558711703
8.356435643564357,1.295919340506117
8.376237623762377,1.3294681789992813
8.396039603960396,1.3627020346665861
8.415841584158416,1.395519169971033
8.435643564356436,1.4278253990091714
8.455445544554456,1.459533410838912
8.475247524752476,1.4905621650307972
8.495049504950495,1.5208363556413071
8.514851485148515,1.5502859385179628
8.534653465346535,1.5788457162655911
8.554455445544555,1.6064549750847181
8.574257425742575,1.633057167862313
8.594059405940595,1.6585996382327792
8.613861386138613,1.683033380752886
8.633663366336634,1.7063128327953583
8.653465346534654,1.7283956942290066
8.673267326732672,1.7492427713979006
8.693069306930694,1.7688178423275478
8.712871287128714,1.7870875404664097
8.732673267326732,1.804021254614785
8.752475247524753,1.819591043001381
8.772277227722773,1.8337715597418436
8.792079207920791,1.8465399921573125
8.811881188118813,1.8578760076464507
8.831683168316832,1.8677617089958487
8.85148514851485,1.8761815971835873
8.871287128712872,1.8831225408824495
8.891089108910892,1.8885737520054076
8.91089108910891,1.8925267667593528
8.930693069306932,1.894975431785731
8.950495049504951,1.8959158950713335
8.97029702970297,1.895346601410476
8.990099009900991,1.8932682922939692
9.00990099009901,1.8896840101913697
9.029702970297029,1.8845991072840567
9.04950495049505,1.8780212587982414
9.06930693069307,1.869960481181942
9.089108910891088,1.8604291554693992
9.10891089108911,1.8494420562826916
9.12871287128713,1.8370163870352645
9.148514851485148,1.8231718220282571
9.16831683168317,1.8079305562697965
9.188118811881187,1.7913173640031845
9.207920792079207,1.7733596671039211
9.227722772277229,1.7540876147019746
9.247524752475247,1.7335341756065459
9.267326732673267,1.711735245359993
9.287128712871288,1.6887297700278023
9.306930693069306,1.6645598891455766
9.326732673267326,1.639271100593488
9.346534653465348,1.6129124505536134
9.366336633663366,1.5855367521233719
9.386138613861386,1.5572008366024797
9.405940594059407,1.5279658419277242
9.425742574257425,1.4978975431770802
9.445544554455445,1.4670667304643568
9.465346534653467,1.4355496398404068
9.485148514851485,1.4034284429188142
9.504950495049505,1.3707918007244424
9.524752475247526,1.3377354865358266
9.544554455445544,1.3043630809947415
9.564356435643564,1.2707867401243627
9.584158415841586,1.2371280326416543
9.603960396039604,1.2035188364276879
9.623762376237623,1.1701022744261236
9.643564356435645,1.1370336566174657
9.663366336633663,1.104481376027995
9.683168316831683,1.0726276820315477
9.702970297029704,1.0416692229680482
9.722772277227723,1.0118172128073413
9.742574257425742,0.9832970355559517
9.762376237623764,0.9563470616503503
9.782178217821782,0.9312164222168644
9.801980198019802,0.9081614842899645
9.821782178217823,0.8874408117079673
9.841584158415841,0.8693085023188656
9.861386138613861,0.8540059760759185
9.881188118811881,0.8417525474336317
9.900990099009901,0.8327354178690171
9.92079207920792,0.8271000058856313
9.94059405940594,0.8249417043622602
9.96039603960396,0.8263001346371831
9.98019801980198,0.8311567125165379
10.0,0.8394358863893145
10.01980198019802,0.8510098587152091
10.03960396039604,0.8657061032774297
10.05940594059406,0.8833166656916689
10.07920792079208,0.9036081416045996
10.099009900990099,0.9263313459544118
10.118811881188119,0.9512299430614428
10.138613861386139,0.9780476107258929
10.158415841584159,1.0065335883062736
10.178217821782178,1.0364466673200647
10.198019801980198,1.0675578125343996
10.217821782178218,1.0996516614513026
10.237623762376238,1.1325271593613837
10.257425742574258,1.1659975653443666
10.277227722772277,1.1998900276932556
10.297029702970297,1.2340448862311688
10.316831683168317,1.2683148203701766
10.336633663366337,1.3025639286628483
10.356435643564357,1.3366667989740306
10.376237623762377,1.370507607980485
10.396039603960396,1.4039792736410992
10.415841584158416,1.436982673546529
10.435643564356436,1.4694259346678002
10.455445544554454,1.5012237951267398
10.475247524752476,1.5322970355184848
10.495049504950495,1.5625719754944267
10.514851485148514,1.5919800303642087
10.534653465346535,1.6204573221070637
10.554455445544555,1.6479443391882984
10.574257425742573,1.6743856398116022
10.594059405940595,1.699729593603149
10.613861386138614,1.72392815715243
10.633663366336632,1.7469366792851777
10.653465346534654,1.7687137323879012
10.673267326732674,1.789220966525993
