Frequency (Hz),Amplitude
0.0,0.3115425670426409
0.019867549668874173,0.3256370436376799
0.039735099337748346,0.364617935358372
0.059602649006622516,0.4215127757389826
0.07947019867549669,0.48994244678884263
0.09933774834437085,0.5655194401298509
0.11920529801324503,0.6454956498393897
0.13907284768211922,0.7281615113374867
0.15894039735099338,0.812421370400807
0.17880794701986755,0.8975416801294356
0.1986754966887417,0.9830073528710571
0.2185430463576159,1.0684392332097232
0.23841059602649006,1.1535455602815214
0.2582781456953642,1.2380925942629613
0.27814569536423844,1.3218863183669167
0.2980132450331126,1.4047607234575603
0.31788079470198677,1.4865701164129754
0.33774834437086093,1.5671839548737365
0.3576158940397351,1.6464833083335155
0.3774834437086093,1.7243583905192201
0.3973509933774834,1.800706812434875
0.4172185430463576,1.8754323295775417
0.4370860927152318,1.9484439339648834
0.45695364238410596,2.0196551905802034
0.4768211920529801,2.0889837495526304
0.49668874172185434,2.156350986312171
0.5165562913907285,2.2216817360016337
0.5364238410596026,2.284904098004428
0.5562913907284769,2.3459492930761434
0.5761589403973509,2.404751560220814
0.5960264900662252,2.4612480837603914
0.6158940397350993,2.5153789434268052
0.6357615894039735,2.567087082038528
0.6556291390728477,2.6163182865983963
0.6754966887417219,2.6630211795967362
0.695364238410596,2.7071472180146863
0.7152317880794702,2.748650698060655
0.7350993377483444,2.7874887640843617
0.7549668874172186,2.8236214204291454
0.7748344370860927,2.8570115452296894
0.7947019867549668,2.887624905354823
0.8145695364238411,2.9154301718471642
0.8344370860927152,2.9403989353326834
0.8543046357615894,2.9625057209704537
0.8741721854304636,2.981728002591866
0.8940397350993378,2.998046215743138
0.9139072847682119,3.011443769398429
0.9337748344370861,3.0219070561559582
0.9536423841059603,3.029425460767425
0.9735099337748344,3.033991366884516
0.9933774834437087,3.0356001619350956
1.0132450331125828,3.0342502400685185
1.033112582781457,3.0299430031335843
1.0529801324503312,3.022682859676393
1.0728476821192052,3.0124772219679876
1.0927152317880795,2.9993365010951996
1.1125827814569538,2.9832741001721743
1.1324503311258278,2.9643064057564104
1.1523178807947019,2.9424527775816793
1.1721854304635762,2.917735536753057
1.1920529801324504,2.8901799525863083
1.2119205298013245,2.8598142283182977
1.2317880794701985,2.8266694859669412
1.2516556291390728,2.7907797506825305
1.271523178807947,2.752181935008911
1.2913907284768211,2.7109158235678827
1.3112582781456954,2.6670240587977947
1.3311258278145695,2.620552128525219
1.3509933774834437,2.571548356335489
1.370860927152318,2.520063895946496
1.390728476821192,2.4661527310969182
1.410596026490066,2.409871682858092
1.4304635761589404,2.351280426799218
1.4503311258278146,2.2904415231225133
1.4701986754966887,2.227420463799515
1.4900662251655628,2.1622857419692982
1.5099337748344372,2.0951089505291227
1.5298013245033113,2.0259649191395153
1.5496688741721854,1.9549319020467932
1.5695364238410596,1.8820918335946393
1.5894039735099337,1.8075306746554185
1.609271523178808,1.7313388823867415
1.6291390728476822,1.6536120491524624
1.6490066225165563,1.5744517764322725
1.6688741721854303,1.4939668797874919
1.6887417218543048,1.4122750675688776
1.7086092715231789,1.3295053093520004
1.728476821192053,1.2458012278255588
1.7483443708609272,1.161326041364592
1.7682119205298013,1.0762699104069282
1.7880794701986755,0.9908611038346696
1.8079470198675496,0.9053834003457076
1.8278145695364238,0.8202039569326315
1.847682119205298,0.7358192538151097
1.8675496688741722,0.6529330653683584
1.8874172185430464,0.5725920834362406
1.9072847682119205,0.4964242155290862
1.9271523178807946,0.42704459479667545
1.9470198675496688,0.3686504185275422
1.9668874172185429,0.3274552561039753
1.9867549668874174,0.3105643965443175
2.0066225165562916,0.32189162832412604
2.0264900662251657,0.3587330162327784
2.0463576158940397,0.4142169138164158
2.066225165562914,0.4817704985712262
2.086092715231788,0.5568043960506142
2.1059602649006623,0.6364372277691112
2.1258278145695364,0.7188816587000749
2.1456953642384105,0.8029976153301001
2.165562913907285,0.888025780300499
2.185430463576159,0.9734356827349654
2.205298013245033,1.0588386884511594
2.2251655629139075,1.143937010949361
2.2450331125827816,1.2284929658458594
2.2649006622516556,1.3123098827675914
2.2847682119205297,1.395219921504074
2.3046357615894038,1.4770760946834454
2.324503311258278,1.5577469236462895
2.3443708609271523,1.6371127847800837
2.364238410596027,1.7150633666162167
2.384105960264901,1.7914958724674517
2.403973509933775,1.866313733258118
2.423841059602649,1.9394256756913049
2.443708609271523,2.0107450418767634
2.463576158940397,2.080189289487861
2.4834437086092715,2.14767962320766
2.5033112582781456,2.2131407227568523
2.52317880794702,2.276500542690561
2.543046357615894,2.337690165989054
2.562913907284768,2.396643698259975
2.5827814569536423,2.453298192772237
2.6026490066225163,2.507593598987426
2.622516556291391,2.5594727290325423
2.642384105960265,2.6088812378644377
2.662251655629139,2.6557676138463044
2.6821192052980134,2.70008317718364
2.7019867549668874,2.741782084217112
2.7218543046357615,2.780821335989502
2.741721854304636,2.817160789827018
2.76158940397351,2.8507631729259932
2.781456953642384,2.881594097132268
2.801324503311258,2.9096220742553265
2.821192052980132,2.9348185313823647
2.8410596026490067,2.9571578257564752
2.8609271523178808,2.9766172588629307
2.8807947019867552,2.9931770894332668
2.9006622516556293,3.006820545130811
2.9205298013245033,3.017533832726896
2.9403973509933774,3.0253061466151836
2.9602649006622515,3.030129675545277
2.9801324503311255,3.031999607485707
3.0,3.0309141325530637
3.0198675496688745,3.0268744439683597
3.0397350993377485,3.019884737024926
3.0596026490066226,3.0099522060748005
3.0794701986754967,2.9970870395635836
3.0993377483443707,2.9813024131673465
3.119205298013245,2.9626144811109847
3.1390728476821192,2.94104236577512
3.1589403973509933,2.916608145730564
3.1788079470198674,2.88933684237522
3.198675496688742,2.859256405391179
3.218543046357616,2.8263976972897047
3.23841059602649,2.7907944773728746
3.2582781456953644,2.7524833855141613
3.2781456953642385,2.7115039262514284
3.2980132450331126,2.6678984537986388
3.3178807947019866,2.621712158724199
3.3377483443708607,2.5729930572228743
3.3576158940397347,2.5217919841363634
3.3774834437086096,2.468162591170983
3.3973509933774837,2.412161352140845
3.4172185430463577,2.3538475775617296
3.437086092715232,2.2932834415757553
3.456953642384106,2.230534025058267
3.47682119205298,2.1656673799288377
3.4966887417218544,2.098754621276116
3.5165562913907285,2.0298700560837655
3.5364238410596025,1.959091360364047
3.556291390728477,1.886499820743262
3.576158940397351,1.8121806625669585
3.596026490066225,1.7362234952740896
3.615894039735099,1.6587229184853491
3.6357615894039736,1.57977935111539
3.6556291390728477,1.499500174329228
3.6754966887417218,1.4180013230518909
3.695364238410596,1.3354095296532926
3.7152317880794703,1.2518655339707934
3.7350993377483444,1.1675287552595326
3.754966887417219,1.0825842268226364
3.774834437086093,0.9972531208078846
3.794701986754967,0.911809124433105
3.814569536423841,0.8266046282645777
3.834437086092715,0.7421138517266718
3.854304635761589,0.659006003756498
3.8741721854304636,0.5782727196321734
3.8940397350993377,0.5014531692824405
3.9139072847682117,0.43102318316326
3.9337748344370858,0.37098871654852594
3.9536423841059607,0.32741002334618524
3.9735099337748347,0.30755875184292486
3.993377483443709,0.3160140450650713
4.013245033112583,0.35070133392437103
4.033112582781457,0.40481888463739696
4.052980132450331,0.47155267742282886
4.072847682119205,0.5460853912195028
4.0927152317880795,0.6253950458983978
4.112582781456953,0.7076174960549095
4.132450331125828,0.791571641905813
4.152317880794702,0.8764759670922173
4.172185430463576,0.9617876978433894
4.19205298013245,1.0471112098935944
4.211920529801325,1.1321446593252815
4.231788079470199,1.2166479693769068
4.251655629139073,1.3004230472979694
4.271523178807947,1.3833012082088658
4.291390728476821,1.4651349702537044
4.311258278145695,1.5457925751989654
4.33112582781457,1.6251542525306604
4.3509933774834435,1.7031096255632845
4.370860927152318,1.7795558819150035
4.390728476821192,1.8543964657467615
4.410596026490066,1.9275401325795958
4.43046357615894,1.9989002601773953
4.450331125827815,2.068394342928715
4.470198675496689,2.1359436194573087
4.490066225165563,2.201472798094897
4.509933774834438,2.2649098549757856
4.529801324503311,2.326185886498139
4.549668874172186,2.385235002783345
4.569536423841059,2.4419942522294873
4.589403973509934,2.4964035697406435
4.6092715231788075,2.548405743018876
4.629139072847682,2.5979463926304627
4.649006622516556,2.6449739625398467
4.66887417218543,2.6894397185404997
4.688741721854305,2.7312977525673103
4.708609271523179,2.7705049912990103
4.728476821192054,2.8070212077847296
4.748344370860927,2.840809035081601
4.768211920529802,2.87183398108761
4.788079470198675,2.9000644439096623
4.80794701986755,2.9254717272305975
4.827814569536423,2.9480300552378864
4.847682119205298,2.9677165867572413
4.867549668874172,2.984511428299665
4.887417218543046,2.9983976457848365
4.9072847682119205,3.009361274748879
4.927152317880794,3.0173913288829772
4.947019867549669,3.022479806782519
4.966887417218543,3.024621696815312
4.986754966887418,3.0238149800437797
5.006622516556291,3.020060631159952
5.026490066225166,3.0133626174147716
5.04635761589404,3.0037278955454974
5.066225165562914,2.991166406727267
5.086092715231788,2.9756910695977234
5.105960264900662,2.9573177714285186
5.125827814569536,2.9360653575441433
5.14569536423841,2.9119556191187606
5.1655629139072845,2.885013279516506
5.185430463576159,2.8552659793807544
5.205298013245033,2.822744260725895
5.225165562913908,2.787481550342549
5.245033112582782,2.7495141428969974
5.264900662251656,2.7088811841914895
5.28476821192053,2.665624655158688
5.304635761589404,2.619789357296854
5.324503311258278,2.571422900420957
5.344370860927152,2.520575693819612
5.364238410596027,2.467300942183122
5.3841059602649,2.4116546480251344
5.403973509933775,2.3536956227862866
5.4238410596026485,2.293485509422273
5.443708609271523,2.2310888200953287
5.463576158940397,2.166572993683358
5.483443708609272,2.10000847930655
5.503311258278146,2.0314688541058596
5.52317880794702,1.9610309863271695
5.543046357615895,1.8887752587179045
5.562913907284768,1.814785872856944
5.582781456953643,1.7391512631215222
5.602649006622516,1.6619646608042782
5.622516556291391,1.583324866422266
5.642384105960264,1.503337314724971
5.662251655629139,1.4221155576064068
5.682119205298013,1.3397833539663002
5.701986754966887,1.256477657875154
5.7218543046357615,1.1723529641883137
5.741721854304636,1.087587752833635
5.7615894039735105,1.002394259852274
5.781456953642384,0.9170336669185125
5.801324503311259,0.8318403758256254
5.821192052980132,0.7472619792175591
5.841059602649007,0.6639271438944296
5.860927152317881,0.5827642636185089
5.880794701986755,0.5052127850549908
5.900662251655629,0.43359541417974146
5.920529801324503,0.37171242033107693
5.940397350993377,0.32546530867900736
5.960264900662251,0.30232529221613924
5.980132450331126,0.3076394684289447
6.0,0.34005180221297887
6.0198675496688745,0.3928019898326634
6.039735099337749,0.4587594875282947
6.059602649006623,0.5328326027927144
6.079470198675497,0.6118423575773376
6.099337748344371,0.6938455003609393
6.119205298013245,0.7776223426201742
6.139072847682119,0.862372599974343
6.158940397350993,0.9475443945453272
6.178807947019867,1.0327377804070532
6.198675496688741,1.1176489994075012
6.218543046357616,1.2020372860621404
6.23841059602649,1.2857044821552943
6.258278145695365,1.368482147356541
6.2781456953642385,1.45022318899835
6.298013245033113,1.5307962947343525
6.317880794701987,1.6100821500376323
6.337748344370861,1.6879708201027497
6.357615894039735,1.7643599083443253
6.377483443708609,1.839153243344208
6.397350993377484,1.9122599319938327
6.417218543046357,1.9835936706069033
6.437086092715232,2.053072240477439
6.456953642384105,2.120617137078519
6.47682119205298,2.1861532972418627
6.496688741721854,2.2496088989219043
6.516556291390729,2.310915215211649
6.5364238410596025,2.3700065092087113
6.556291390728477,2.426819959818773
6.5761589403973515,2.481295611083005
6.596026490066225,2.533376339427477
6.6158940397351,2.5830078345597394
6.635761589403973,2.6301385907209403
6.655629139072848,2.6747199057363478
6.675496688741721,2.716705885861979
6.695364238410596,2.7560534548472444
6.715231788079469,2.7927223659580855
6.735099337748344,2.8266752159559987
6.754966887417219,2.8578774602249486
6.774834437086093,2.886297428392426
6.794701986754967,2.911906339913618
6.814569536423841,2.934678319185972
6.8344370860927155,2.954590409840748
6.854304635761589,2.971622587922999
6.874172185430464,2.9857577737247607
6.894039735099337,2.9969818420810013
6.913907284768212,3.0052836309754225
6.933774834437086,3.0106549483358647
6.95364238410596,3.01309057692747
6.973509933774834,3.0125882772771027
6.993377483443709,3.0091487885860815
7.013245033112583,3.002775827610035
7.033112582781457,2.993476085506191
7.052980132450331,2.9812592226695385
7.072847682119205,2.966137861601533
7.0927152317880795,2.948127577877803
7.112582781456954,2.9272468893072507
7.132450331125828,2.9035172434027996
7.152317880794702,2.8769630033166633
7.172185430463576,2.8476114324304227
7.19205298013245,2.8154926778348788
7.211920529801324,2.7806397529876294
7.231788079470198,2.7430885199012867
7.251655629139073,2.7028776712945106
7.271523178807947,2.6600487132361486
7.291390728476822,2.614645948936232
7.311258278145695,2.566716464492241
7.33112582781457,2.516310117596783
7.3509933774834435,2.4634795304660617
7.370860927152318,2.4082800885760296
7.390728476821192,2.350769947220944
7.410596026490066,2.291010048471717
7.430463576158941,2.229064151859157
7.450331125827814,2.1649988831098317
7.470198675496689,2.098883806620324
7.490066225165562,2.0307915292147674
7.509933774834438,1.96079784530418
7.52980132450331,1.8889819371715835
7.549668874172186,1.8154266492230986
7.569536423841059,1.740218862404851
7.589403973509934,1.6634500057287513
7.6092715231788075,1.585216757783257
7.629139072847682,1.5056220151407573
7.649006622516557,1.4247762415072642
7.66887417218543,1.3427993693570228
7.6887417218543055,1.2598235185337276
7.708609271523178,1.1759969483576242
7.728476821192054,1.0914899154505797
7.748344370860927,1.006503551123527
7.768211920529802,0.9212836570245799
7.788079470198675,0.8361427538341202
7.80794701986755,0.7514964202819879
7.827814569536423,0.6679251627244964
7.847682119205298,0.5862831484765297
7.8675496688741715,0.5078940493428915
7.887417218543046,0.43490407949052307
7.907284768211921,0.3708758557776877
7.927152317880795,0.32152124846410607
7.9470198675496695,0.29453605168431396
7.966887417218543,0.29620158895424703
7.986754966887418,0.3260644370595911
8.006622516556291,0.37738642932661376
8.026490066225167,0.4426003131013882
8.046357615894038,0.5162609446380972
8.066225165562914,0.5950023324856427
8.086092715231787,0.6767955261503869
8.105960264900663,0.7603837968050834
8.125827814569536,0.8449517014636085
8.14569536423841,0.9299418956179004
8.165562913907285,1.0149532237599221
8.185430463576159,1.0996825370501215
8.205298013245034,1.183890393976769
8.225165562913906,1.267380174651179
8.245033112582782,1.3499849694280255
8.264900662251655,1.4315591164388213
8.28476821192053,1.5119726024866218
8.304635761589404,1.5911072764025416
8.324503311258278,1.668854238693193
8.344370860927151,1.7451120121522212
8.364238410596027,1.8197852417661706
8.3841059602649,1.8927837600984043
8.403973509933774,1.9640219093198548
8.42384105960265,2.033418046213003
8.443708609271523,2.1008941794044502
8.463576158940398,2.166375703310955
8.483443708609272,2.2297912035716045
8.503311258278146,2.2910723157985653
8.52317880794702,2.3501536243941326
8.543046357615895,2.4069725916511553
8.562913907284768,2.4614695098334933
8.582781456953642,2.513587470726823
8.602649006622515,2.5632723484619464
8.62251655629139,2.6104727923821125
8.642384105960264,2.655140227450079
8.66225165562914,2.6972288602354717
8.682119205298013,2.736695688938336
8.701986754966887,2.773500516222404
8.721854304635762,2.8076059638780344
8.741721854304636,2.8389774885265737
8.76158940397351,2.8675833977288003
8.781456953642383,2.8933948659800643
8.801324503311259,2.916385950170236
8.821192052980132,2.9365336041640724
8.841059602649008,2.953817692220437
8.86092715231788,2.9682210010208183
8.880794701986755,2.979729250120812
8.90066225165563,2.9883311006745434
8.920529801324504,2.9940181623137136
8.940397350993377,2.9967849980899146
8.960264900662251,2.996629127413551
8.980132450331126,2.9935510269447416
9.0,2.987554129412586
9.019867549668875,2.97864482035926
9.039735099337747,2.9668324328252225
9.059602649006623,2.9521292400124843
9.079470198675496,2.9345504459842027
9.099337748344372,2.914114174482319
9.119205298013245,2.8908414559709232
9.139072847682119,2.864756213042177
9.158940397350994,2.8358852443561506
9.178807947019868,2.804258207325722
9.198675496688743,2.769907599805863
9.218543046357615,2.7328687411046517
9.23841059602649,2.6931797527046073
9.258278145695364,2.6508815391707388
9.27814569536424,2.6060177698317624
9.298013245033111,2.5586348619592494
9.317880794701987,2.508781966345358
9.33774834437086,2.4565109564053276
9.357615894039736,2.4018764222221125
9.37748344370861,2.344935671330455
9.397350993377483,2.2857487385370874
9.417218543046358,2.224378407736638
9.437086092715232,2.1608902495710267
9.456953642384107,2.0953526799820392
9.47682119205298,2.0278370463507884
9.496688741721854,1.9584177501917077
9.516556291390728,1.8871724185514362
9.536423841059603,1.8141821407756276
9.556291390728477,1.7395317937924586
9.57615894039735,1.663310488521672
9.596026490066224,1.5856121840367134
9.6158940397351,1.5065365372407953
9.635761589403973,1.4261900882718541
9.655629139072847,1.3446879327038783
9.675496688741722,1.262156113051506
9.695364238410596,1.1787350956385076
9.715231788079471,1.0945849236138154
9.735099337748345,1.009893025678346
9.754966887417218,0.9248863529884513
9.774834437086092,0.8398507907825169
9.794701986754967,0.7551632088596216
9.814569536423841,0.671346235992652
9.834437086092716,0.5891652366795809
9.854304635761588,0.5098054731972096
9.874172185430464,0.4352004826200919
9.894039735099337,0.36861793554388184
9.913907284768213,0.3155057224477581
9.933774834437086,0.28377610027518735
9.95364238410596,0.280893926087034
9.973509933774835,0.3076688974552498
9.993377483443709,0.35740093632839653
10.013245033112582,0.42188789875264565
10.033112582781456,0.49519355474636023
10.052980132450331,0.573711651566249
10.072847682119205,0.6553142875183569
10.09271523178808,0.738708220703981
10.112582781456952,0.8230670274467804
10.132450331125828,0.9078324011366086
10.152317880794701,0.9926058879399908
10.172185430463577,1.0770881262933052
10.192052980132452,1.1610435277402287
10.211920529801324,1.2442790185793227
10.2317880794702,1.3266308233488786
10.251655629139073,1.4079560041567374
10.271523178807948,1.4881269019554362
10.29139072847682,1.567027400109338
10.311258278145695,1.64455036253857
10.331125827814569,1.7205958470486433
10.350993377483444,1.7950698412958537
10.370860927152318,1.867883357966237
10.390728476821192,1.9389517811620254
10.410596026490065,2.00819439121746
10.43046357615894,2.0755340180224215
10.450331125827816,2.1408967880436465
10.470198675496688,2.20421194039924
10.490066225165563,2.2654116942921347
10.509933774834437,2.3244311549305263
10.529801324503312,2.3812082484565984
10.549668874172186,2.435683678823337
10.56953642384106,2.487800901303908
10.589403973509933,2.537506108591151
10.609271523178808,2.5847482263836823
10.629139072847682,2.6294789160543823
10.649006622516556,2.6716525825231034
10.66887417218543,2.7112263858550394
10.688741721854305,2.7481602554114
10.70860927152318,2.782416905615879
10.728476821192054,2.813961852583838
