Time (s),Filtered Signal
0.0,0.03715766696118557
0.033370165745856356,0.08668507639816889
0.06674033149171271,0.1266336895035002
0.10011049723756907,0.1490302305459013
0.13348066298342542,0.1488432362490682
0.16685082872928178,0.12642719157381963
0.20022099447513814,0.08920116556841251
0.2335911602209945,0.05087090983878243
0.26696132596685085,0.027348877417016144
0.30033149171270723,0.030364399021220515
0.33370165745856356,0.061568254097024246
0.3670718232044199,0.1104668968325474
0.4004419889502763,0.15808458450020757
0.43381215469613266,0.18531981118835514
0.467182320441989,0.18209190061821956
0.5005524861878453,0.1523717919640547
0.5339226519337017,0.11196745298912701
0.5672928176795581,0.07977216407649877
0.6006629834254145,0.06698732189321045
0.6340331491712707,0.07030198767346586
0.6674033149171271,0.07307466701322626
0.7007734806629835,0.05414047937277133
0.7341436464088398,-0.0005499942892402711
0.7675138121546962,-0.0900381674827402
0.8008839779005525,-0.19877120868637543
0.8342541436464089,-0.3051157100160089
0.8676243093922653,-0.3929657394425403
0.9009944751381216,-0.4594223438700161
0.934364640883978,-0.5135744048099221
0.9677348066298344,-0.5665400858962099
1.0011049723756906,-0.6183483665264297
1.0344751381215471,-0.6498346378097495
1.0678453038674034,-0.6257601423092921
1.1012154696132597,-0.5095820144132632
1.1345856353591162,-0.28368466430274064
1.1679558011049724,0.03491173940902082
1.201325966850829,0.39209008821008995
1.2346961325966852,0.7103283292710615
1.2680662983425415,0.9139876685672857
1.301436464088398,0.9561773810674182
1.3348066298342542,0.8361704107147666
1.3681767955801105,0.6000603305878928
1.401546961325967,0.3240961571256905
1.4349171270718233,0.08718854698574613
1.4682872928176796,-0.0563161101048893
1.501657458563536,-0.09234610403120365
1.5350276243093923,-0.044839359667129056
1.5683977900552488,0.04281000765635506
1.601767955801105,0.132916370380921
1.6351381215469614,0.21194274293654214
1.6685082872928179,0.29215259305018665
1.7018784530386741,0.3956116583216506
1.7352486187845306,0.5300322810431414
1.768618784530387,0.6713413350326605
1.8019889502762432,0.7646672706310008
1.8353591160220997,0.7451763341433703
1.868729281767956,0.568747277396321
1.9020994475138122,0.2365426603416698
1.9354696132596687,-0.19952418536307578
1.968839779005525,-0.6534710119092477
2.0022099447513813,-1.035884067077384
2.0355801104972375,-1.283915372599904
2.0689502762430942,-1.377554476491252
2.1023204419889505,-1.337085440858851
2.135690607734807,-1.2062879001695828
2.169060773480663,-1.03190248303222
2.2024309392265193,-0.8493601125379164
2.235801104972376,-0.678961537705986
2.2691712707182323,-0.5297633629683579
2.3025414364640886,-0.40476783922892784
2.335911602209945,-0.30246635281099765
2.369281767955801,-0.21464028033877922
2.402651933701658,-0.1246621425104417
2.436022099447514,-0.011021330618738783
2.4693922651933704,0.1430092827027843
2.5027624309392267,0.33797460221529446
2.536132596685083,0.5523595282635686
2.5695027624309392,0.7474765405007302
2.602872928176796,0.8824469004078878
2.636243093922652,0.9324150832657249
2.6696132596685085,0.9005833735680887
2.7029834254143648,0.8174338024913608
2.736353591160221,0.7271263789847018
2.7697237569060777,0.6678152436752807
2.803093922651934,0.6557548716863619
2.8364640883977903,0.6808799432038175
2.8698342541436466,0.7152943628256521
2.903204419889503,0.7292708749277502
2.936574585635359,0.7056842383867573
2.969944751381216,0.6452232229336559
3.003314917127072,0.560355023837894
3.0366850828729284,0.46264539309692215
3.0700552486187846,0.35193609930814146
3.103425414364641,0.21482720005589448
3.1367955801104976,0.03439639757024157
3.170165745856354,-0.19392899199912966
3.20353591160221,-0.45004998989908085
3.2369060773480665,-0.6895327679129462
3.2702762430939227,-0.8597098507071986
3.3036464088397794,-0.9259179210367476
3.3370165745856357,-0.8951739111263273
3.370386740331492,-0.8232250824966602
3.4037569060773483,-0.7969107857767194
3.4371270718232045,-0.8953116972459259
3.4704972375690613,-1.1452359369328453
3.5038674033149175,-1.4929141945083724
3.537237569060774,-1.8097669058303396
3.57060773480663,-1.9358004815926986
3.6039779005524863,-1.7453636958112722
3.6373480662983426,-1.2062065349858802
3.6707182320441993,-0.4025693796093399
3.7040883977900556,0.49145657861342473
3.737458563535912,1.2775925679940647
3.770828729281768,1.8069552110186338
3.8041988950276244,2.0261237352763577
3.837569060773481,1.9753220917524694
3.8709392265193374,1.7446740440215114
3.9043093922651937,1.416937479607097
3.93767955801105,1.0306578031475782
3.9710497237569062,0.5832813090091721
4.0044198895027625,0.06822192764511502
4.037790055248619,-0.4815047518949612
4.071160220994475,-0.9748776088270058
4.104530386740332,-1.2861939409394383
4.1379005524861885,-1.310634611331424
4.171270718232044,-1.0215183266532366
4.204640883977901,-0.49545544657623497
4.238011049723757,0.11151058742949738
4.271381215469614,0.6265931169101283
4.30475138121547,0.9303065446019442
4.338121546961326,0.9990690746962761
4.371491712707183,0.9012884043631473
4.404861878453039,0.7526171629149649
4.438232044198895,0.6556751321264522
4.471602209944752,0.6542289851553086
4.504972375690608,0.7211032055560361
4.538342541436465,0.7805612331981785
4.5717127071823205,0.7498549905709938
4.605082872928177,0.5783879301672481
4.638453038674034,0.26772658646688907
4.67182320441989,-0.13269776996546562
4.7051933701657465,-0.5476212987762415
4.738563535911602,-0.9028603967054887
4.771933701657459,-1.1454148197501535
4.805303867403316,-1.2515323218271104
4.8386740331491715,-1.2246159901326892
4.872044198895028,-1.0884238563611224
4.905414364640884,-0.8798893110806518
4.938784530386741,-0.6423768352503353
4.972154696132597,-0.41790964552460014
5.005524861878453,-0.23785481589533583
5.03889502762431,-0.1146011810438627
5.072265193370166,-0.03878024549593216
5.105635359116023,0.014877962816357173
5.1390055248618784,0.07452647477584347
5.172375690607735,0.15713967333858228
5.205745856353592,0.26082298801799225
5.239116022099448,0.3675700032282407
5.272486187845304,0.454422958898044
5.30585635359116,0.5058992587990782
5.339226519337017,0.5198030761186452
5.372596685082874,0.5028427895396009
5.4059668508287295,0.45932297344396633
5.439337016574586,0.38128670545501314
5.472707182320442,0.2484000705568372
5.506077348066299,0.04023012840058502
5.5394475138121555,-0.24451929241197695
5.572817679558011,-0.5729612771593332
5.606187845303868,-0.8779428497717583
5.639558011049724,-1.076831674552068
5.672928176795581,-1.1029855985717254
5.706298342541437,-0.9357678167999878
5.739668508287293,-0.613852351433519
5.77303867403315,-0.22360839239355904
5.806408839779006,0.13360110348155735
5.839779005524862,0.3806121061990393
5.873149171270718,0.4920640538932685
5.906519337016575,0.4982075500425725
5.939889502762432,0.4647081873484786
5.9732596685082875,0.4597164436510384
6.006629834254144,0.5243507243333267
6.04,0.6590552446883863
6.073370165745857,0.8290150999424196
6.1067403314917135,0.9825936445812712
6.140110497237569,1.0723121808032883
6.173480662983426,1.0694226864587617
6.206850828729282,0.9683528825822917
6.240220994475139,0.7826231441611403
6.273591160220995,0.536716508989918
6.306961325966851,0.25837760908646706
6.340331491712708,-0.026029140049780027
6.373701657458564,-0.2927793081838453
6.40707182320442,-0.5201353920170221
6.440441988950277,-0.6880318330455865
6.473812154696133,-0.7799482926966581
6.50718232044199,-0.787374662896457
6.5405524861878455,-0.7153435169936477
6.573922651933702,-0.5860446578653976
6.607292817679559,-0.43746732856981607
6.640662983425415,-0.31566030875569523
6.674033149171271,-0.2619617304856637
6.707403314917127,-0.2991556482925031
6.740773480662984,-0.42167865633490775
6.774143646408841,-0.5940964752909442
6.8075138121546965,-0.7593935169853325
6.840883977900553,-0.8551910743951353
6.874254143646409,-0.8330951396802472
6.907624309392266,-0.6749872403957234
6.9409944751381225,-0.4006840569474821
6.974364640883978,-0.06387064598896926
7.007734806629835,0.2631068417517231
7.041104972375691,0.5111856136637368
7.074475138121548,0.6361750643234757
7.107845303867403,0.6324482792199542
7.14121546961326,0.533475618644118
7.174585635359117,0.39844769733664304
7.207955801104973,0.2894812417009795
7.241325966850829,0.24788227513351668
7.274696132596685,0.2788941224333612
7.308066298342542,0.3515057463751088
7.341436464088399,0.4139292197979657
7.3748066298342545,0.4184530387444949
7.408176795580111,0.34459495360251147
7.441546961325967,0.2094719750439225
7.474917127071824,0.05980840024727073
7.5082872928176805,-0.05109110625610131
7.541657458563536,-0.09012952414683845
7.575027624309393,-0.061151275184687374
7.608397790055249,-0.0025326043305684918
7.641767955801106,0.033606393053119916
7.675138121546962,0.0099999015069948
7.708508287292818,-0.07434217261672484
7.741878453038675,-0.18144177621738275
7.775248618784531,-0.2523832653795028
7.808618784530387,-0.23731512613919753
7.841988950276244,-0.1222834169656895
7.8753591160221,0.060924507900847386
7.908729281767957,0.24727623676102206
7.9420994475138125,0.36732730018707493
7.975469613259669,0.37806831815050884
8.008839779005525,0.2806404206773576
8.042209944751383,0.1168945490373575
8.075580110497238,-0.05215497812733081
8.108950276243094,-0.17408466342260456
8.14232044198895,-0.22517768753337358
8.175690607734808,-0.21445201672159142
8.209060773480664,-0.17218848349990812
8.24243093922652,-0.13099505663243977
8.275801104972377,-0.10972552717662609
8.309171270718233,-0.10742924607107807
8.342541436464089,-0.10848210177126186
8.375911602209946,-0.09456519015801437
8.409281767955802,-0.056650436806051446
8.442651933701658,-0.0011748698629745942
8.476022099447514,0.051970302004673403
8.509392265193371,0.07805393638439427
8.542762430939227,0.05843617408014529
8.576132596685083,-0.010992503306458611
8.60950276243094,-0.11714703270978682
8.642872928176796,-0.23351744881153771
8.676243093922652,-0.3285355598984407
8.709613259668508,-0.37526969312936537
8.742983425414366,-0.3591366223853698
8.776353591160222,-0.28139843632848327
8.809723756906077,-0.1578173986572519
8.843093922651935,-0.013373993677076328
8.87646408839779,0.12500717951031906
8.909834254143647,0.23543299313396598
8.943204419889504,0.3057722771524734
8.97657458563536,0.335045133999735
9.009944751381216,0.3314330578011906
9.043314917127072,0.3078312150868717
9.07668508287293,0.2764997932742381
9.110055248618785,0.2445621172368524
9.143425414364641,0.2118084004870655
9.176795580110499,0.17154154145542075
9.210165745856354,0.11419967316920288
9.24353591160221,0.03249221742790842
9.276906077348068,-0.07384904989132343
9.310276243093924,-0.19558591756257268
9.34364640883978,-0.3149182400571175
9.377016574585635,-0.40983822985342977
9.410386740331493,-0.4606573214884012
9.443756906077349,-0.45660315518837613
9.477127071823205,-0.40011272221039895
9.510497237569062,-0.30689116764057217
9.543867403314918,-0.20099945785736678
9.577237569060774,-0.10601071778063362
9.610607734806631,-0.03510752333612666
9.643977900552487,0.015922043626285413
9.677348066298343,0.06917808280442629
9.710718232044199,0.15695401370820006
9.744088397790057,0.30721598809925404
9.777458563535912,0.5268410847834133
9.810828729281768,0.7894350780384354
9.844198895027626,1.0345610890313808
9.877569060773482,1.1820782308271085
9.910939226519337,1.1592294283987001
9.944309392265193,0.9312196710569433
9.97767955801105,0.5219418899686931
10.011049723756907,0.013554788951353553
10.044419889502763,-0.4778109826488584
10.07779005524862,-0.8415893305011016
10.111160220994476,-1.0109805701300885
10.144530386740332,-0.9834467036479261
10.17790055248619,-0.8155493026275792
10.211270718232045,-0.5961005641211055
10.244640883977901,-0.41063761702175244
10.278011049723757,-0.31225012402737373
10.311381215469615,-0.3089005791772541
10.34475138121547,-0.369080874731343
10.378121546961326,-0.44029397642732016
10.411491712707184,-0.47128857064625795
10.44486187845304,-0.42965944969361164
10.478232044198895,-0.3099299258649132
10.511602209944753,-0.1314663380296994
10.544972375690609,0.07110796457811724
10.578342541436465,0.2606475223458032
10.61171270718232,0.408905033234755
10.645082872928178,0.5032344096001183
10.678453038674034,0.5469853630183896
10.71182320441989,0.5541533040941841
10.745193370165747,0.5408432902164404
10.778563535911603,0.5173005293822275
10.811933701657459,0.48405302196900785
10.845303867403315,0.43391749893123116
10.878674033149172,0.3588016274014123
10.912044198895028,0.2576768021635401
10.945414364640884,0.14122089859712403
10.978784530386742,0.030128948738739666
11.012154696132598,-0.052646489352505224
11.045524861878453,-0.09211549160613558
11.078895027624311,-0.08872308124574473
11.112265193370167,-0.058977560084517454
11.145635359116023,-0.02851905286315587
11.179005524861878,-0.02089854318363201
11.212375690607736,-0.04781175234118127
11.245745856353592,-0.10596622311961339
11.279116022099448,-0.1821472289216002
11.312486187845305,-0.26320313957364044
11.345856353591161,-0.3444647352579815
11.379226519337017,-0.43079053737499895
11.412596685082875,-0.5289783974714668
11.44596685082873,-0.6361018264852238
11.479337016574586,-0.7316939380841105
11.512707182320442,-0.7801860524361198
11.5460773480663,-0.7442124971784968
11.579447513812156,-0.60272092250819
11.612817679558011,-0.36436872512074636
11.646187845303869,-0.06860760957392474
11.679558011049725,0.2269298002424243
11.71292817679558,0.4671674895281011
11.746298342541436,0.6189133485109594
11.779668508287294,0.6801510081197617
11.81303867403315,0.6757175566130205
11.846408839779006,0.642312947839891
11.879779005524863,0.6105992560047874
11.91314917127072,0.5929821377776335
11.946519337016575,0.5822254100680027
11.979889502762433,0.5602022685805392
12.013259668508288,0.5109651368485694
12.046629834254144,0.4306254134812221
12.08,0.3290198362761664
12.113370165745858,0.22319008628011477
12.146740331491714,0.12735413048097213
12.18011049723757,0.0457310506585628
12.213480662983427,-0.027487790714029986
12.246850828729283,-0.10123379049976473
12.280220994475139,-0.17826676833761987
12.313591160220996,-0.2497106929986383
12.346961325966852,-0.29762980412328655
12.380331491712708,-0.30517440481507135
12.413701657458564,-0.26902892939381146
12.447071823204421,-0.20673339451100806
12.480441988950277,-0.1533753222698426
12.513812154696133,-0.14746207902620773
12.54718232044199,-0.21186042287212534
12.580552486187846,-0.3392522286399818
12.613922651933702,-0.49040892572533684
12.64729281767956,-0.6079108813488033
12.680662983425416,-0.6403274160017386
12.714033149171271,-0.5660803946708617
12.747403314917127,-0.4053032525234905
12.780773480662985,-0.21285261397738287
12.81414364640884,-0.054362129519396445
12.847513812154697,0.024152938769046683
12.880883977900554,0.018551737649947643
12.91425414364641,-0.030863478959331288
12.947624309392266,-0.05881055063840289
12.980994475138122,-0.007899572321685627
13.01436464088398,0.14078712540869626
13.047734806629835,0.35448810209310405
13.081104972375691,0.5598511365829635
13.114475138121549,0.6735889502460256
13.147845303867404,0.638635766961587
13.18121546961326,0.4492921651722973
13.214585635359118,0.15434037175777504
13.247955801104974,-0.16242311242404028
13.28132596685083,-0.41469076483401
13.314696132596685,-0.5446836914579076
13.348066298342543,-0.540201747793151
13.381436464088399,-0.43229671891229093
13.414806629834255,-0.27665306463031125
13.448176795580112,-0.12789925548871547
13.481546961325968,-0.017899400211210913
13.514917127071824,0.05347192303795146
13.548287292817681,0.1122052669543384
13.581657458563537,0.19247538787959462
13.615027624309393,0.3163479608348948
13.648397790055249,0.48101920228293177
13.681767955801106,0.6598304831579865
13.715138121546962,0.8157240853221
13.748508287292818,0.9186124127167654
13.781878453038676,0.9559342260867161
13.815248618784532,0.9304124609280666
13.848618784530387,0.8480215915675149
13.881988950276245,0.7063735531348224
13.9153591160221,0.49382501948766355
13.948729281767957,0.20202572549340925
13.982099447513813,-0.15567989510073288
14.01546961325967,-0.5334206857419448
14.048839779005526,-0.8599115049597127
14.082209944751382,-1.0634528540788863
14.11558011049724,-1.1033701514970673
14.148950276243095,-0.9912252235365251
14.182320441988951,-0.7894238129959833
14.215690607734807,-0.586310718094261
14.249060773480664,-0.45905444465737505
14.28243093922652,-0.441882027720261
14.315801104972376,-0.5143448776210141
14.349171270718234,-0.6141614229821404
14.38254143646409,-0.6673672180704413
14.415911602209945,-0.6210008181441111
14.449281767955803,-0.4636411155643586
14.482651933701659,-0.2260169214256942
14.516022099447515,0.03631860880367408
14.54939226519337,0.26846174254161875
14.582762430939228,0.43752697120061607
14.616132596685084,0.541014228662594
14.64950276243094,0.6002359581364518
14.682872928176797,0.6438492348081677
14.716243093922653,0.6903958804004358
14.749613259668509,0.7381089702730775
14.782983425414367,0.7659217364816407
14.816353591160222,0.7440566046865937
14.849723756906078,0.6485289791877608
14.883093922651934,0.47302572670472437
14.916464088397792,0.23373577283147368
14.949834254143648,-0.0338134729333107
14.983204419889503,-0.2839314964452317
15.016574585635361,-0.47262410190050147
15.049944751381217,-0.568876706361742
15.083314917127073,-0.5627756418749579
15.116685082872928,-0.46858186036150945
15.150055248618786,-0.3216430700540564
15.183425414364642,-0.1692442763887673
15.216795580110498,-0.057245248036270346
15.250165745856355,-0.016130652462143746
15.283535911602211,-0.05101888245012487
15.316906077348067,-0.13951732610285794
15.350276243093925,-0.2389825624721332
15.38364640883978,-0.3014119673875535
15.417016574585636,-0.2910752130881449
15.450386740331492,-0.19840702981655095
15.48375690607735,-0.04449352146642897
15.517127071823205,0.12633890645822193
15.550497237569061,0.2638126192867134
15.583867403314919,0.33268132024034935
15.617237569060775,0.3290842697793369
15.65060773480663,0.28489348114406443
15.683977900552488,0.2567054634337055
15.717348066298344,0.3020881847845342
15.7507182320442,0.4514867617492391
15.784088397790056,0.6873921424330339
15.817458563535913,0.9411340068110621
15.85082872928177,1.1116398067299542
15.884198895027625,1.1014666243969817
15.917569060773483,0.8569660860331691
15.950939226519338,0.3957282356913293
15.984309392265194,-0.19189855319981977
16.01767955801105,-0.7700804669803457
16.051049723756908,-1.2037333962375247
16.084419889502765,-1.4049647325712866
16.11779005524862,-1.360522624685412
16.151160220994477,-1.1295725579633802
16.18453038674033,-0.8144181781193589
16.21790055248619,-0.5183109122870709
16.251270718232046,-0.30890184112330527
16.2846408839779,-0.20166069710482443
16.318011049723758,-0.1674115850868233
16.351381215469615,-0.1571852070842398
16.38475138121547,-0.1308427951699163
16.418121546961327,-0.07593444545956679
16.451491712707185,-0.009280238248733615
16.48486187845304,0.03747685914440098
16.518232044198896,0.039698248075582164
16.551602209944754,-0.002625270281649357
16.584972375690608,-0.06052028423816447
16.618342541436466,-0.0873888879181246
16.651712707182323,-0.04079672487514781
16.685082872928177,0.09586280280435786
16.718453038674035,0.3026285199130946
16.751823204419892,0.5288520291635196
16.785193370165747,0.713285720626482
16.818563535911604,0.8089116598156183
16.851933701657458,0.8007475452656407
16.885303867403316,0.7085686771682138
16.918674033149173,0.574190489202249
16.952044198895027,0.44052817771561015
16.985414364640885,0.33315027529015967
17.018784530386743,0.25288347943492623
17.052154696132597,0.181700673288903
17.085524861878454,0.09721135948224931
17.118895027624312,-0.01280317833399736
17.152265193370166,-0.143442736204343
17.185635359116024,-0.27611352387429966
17.21900552486188,-0.38922442992929274
17.252375690607735,-0.4693747469381491
17.285745856353593,-0.5166255896283032
17.31911602209945,-0.5413707239189792
17.352486187845304,-0.5553595582856659
