Frequency (Hz),Amplitude
0.0,2.715800879260281
0.019801980198019802,2.7164722152814194
0.039603960396039604,2.7184825990804535
0.0594059405940594,2.7218211949070605
0.07920792079207921,2.726470065770383
0.09900990099009901,2.732404354278614
0.1188118811881188,2.739592529854757
0.13861386138613863,2.747996696686655
0.15841584158415842,2.75757295558606
0.1782178217821782,2.768271812028635
0.19801980198019803,2.7800386220463755
0.21782178217821782,2.792814067349293
0.2376237623762376,2.806534651052008
0.25742574257425743,2.821133205645278
0.27722772277227725,2.836539405345056
0.297029702970297,2.8526802756271064
0.31683168316831684,2.8694806935649204
0.33663366336633666,2.8868638734843928
0.3564356435643564,2.904751833385108
0.37623762376237624,2.9230658385148636
0.39603960396039606,2.94172681938713
0.4158415841584158,2.960655762374825
0.43564356435643564,2.979774071777897
0.45544554455445546,2.9990039029354074
0.4752475247524752,3.0182684665282795
0.495049504950495,3.037492304696497
0.5148514851485149,3.05660153997616
0.5346534653465347,3.0755240983553995
0.5544554455445545,3.0941899079605055
0.5742574257425742,3.1125310750250157
0.594059405940594,3.130482038874954
0.613861386138614,3.1479797076926492
0.6336633663366337,3.1649635768093556
0.6534653465346534,3.1813758312317453
0.6732673267326733,3.1971614340376813
0.6930693069306931,3.2122682021885804
0.7128712871287128,3.2266468712054674
0.7326732673267327,3.2402511500486177
0.7524752475247525,3.2530377674294533
0.7722772277227723,3.264966510672251
0.7920792079207921,3.276000258133865
0.8118811881188118,3.2861050060841626
0.8316831683168316,3.295249890848981
0.8514851485148516,3.3034072069224756
0.8712871287128713,3.3105524216662885
0.891089108910891,3.3166641871300584
0.9108910891089109,3.321724349450057
0.9306930693069307,3.3257179562109713
0.9504950495049505,3.328633262088768
0.9702970297029703,3.3304617330299964
0.99009900990099,3.331198049163637
1.00990099009901,3.330840106585676
1.0297029702970297,3.3293890181027415
1.0495049504950495,3.3268491129680804
1.0693069306930694,3.323227935591685
1.0891089108910892,3.3185362431533787
1.108910891089109,3.312788001994711
1.1287128712871286,3.30600038260969
1.1485148514851484,3.2981937529966183
1.1683168316831685,3.289391670071508
1.188118811881188,3.2796208687779873
1.2079207920792079,3.2689112484582927
1.227722772277228,3.2572958559734175
1.2475247524752475,3.2448108649803
1.2673267326732673,3.2314955506852128
1.2871287128712872,3.217392259299456
1.3069306930693068,3.2025463713250106
1.3267326732673268,3.1870062576921296
1.3465346534653466,3.170823227664026
1.3663366336633662,3.154051467311442
1.3861386138613863,3.136747967249654
1.405940594059406,3.1189724382209594
1.4257425742574257,3.100787213003195
1.4455445544554455,3.082257133032482
1.4653465346534653,3.0634494180528558
1.4851485148514851,3.044433517052058
1.504950495049505,3.0252809387201145
1.5247524752475248,3.0060650596833547
1.5445544554455446,2.9868609088309466
1.5643564356435644,2.9677449261732876
1.5841584158415842,2.948794694862296
1.6039603960396038,2.930088645271925
1.6237623762376237,2.9117057303926495
1.6435643564356437,2.8937250722421006
1.6633663366336633,2.8762255795408564
1.683168316831683,2.8592855375466457
1.7029702970297032,2.842982171678957
1.7227722772277227,2.827391187387597
1.7425742574257426,2.8125862896063154
1.7623762376237624,2.7986386860631467
1.782178217821782,2.785616579658852
1.801980198019802,2.773584656037052
1.8217821782178218,2.7626035733099448
1.8415841584158414,2.752729461623283
1.8613861386138615,2.7440134407958006
1.881188118811881,2.7365011646048885
1.900990099009901,2.730232400370721
1.920792079207921,2.7252406522860047
1.9405940594059405,2.7215528364290433
1.9603960396039604,2.7191890145837747
1.98019801980198,2.7181621928873554
2.0,2.718478189968961
2.01980198019802,2.720135577683037
2.0396039603960396,2.7231256958423016
2.0594059405940595,2.7274327405943466
2.0792079207920793,2.7330339243408615
2.099009900990099,2.7398997034474983
2.118811881188119,2.747994068507423
2.1386138613861387,2.7572748906623454
2.1584158415841586,2.7676943164954952
2.1782178217821784,2.779199203319556
2.1980198019801978,2.791731586297262
2.217821782178218,2.8052291687457154
2.237623762376238,2.8196258271636165
2.257425742574257,2.8348521229491723
2.2772277227722775,2.850835813401363
2.297029702970297,2.86750235537128
2.3168316831683167,2.8847753958044318
2.336633663366337,2.9025772443428295
2.3564356435643563,2.9208293240953354
2.376237623762376,2.93945259760041
2.3960396039603964,2.9583679658685473
2.4158415841584158,2.9774966391806106
2.4356435643564356,2.9967604790193834
2.455445544554456,3.0160823111161545
2.4752475247524752,3.035386210100922
2.495049504950495,3.0545977566544504
2.514851485148515,3.073644268379572
2.5346534653465347,3.092455005844942
2.5544554455445545,3.110961355416088
2.5742574257425743,3.1290969905865924
2.594059405940594,3.1467980135656286
2.6138613861386135,3.1640030788779065
2.633663366336634,3.180653500695825
2.6534653465346536,3.196693345560978
2.673267326732673,3.212069512068871
2.6930693069306932,3.2267317989940154
2.712871287128713,3.24063296322698
2.7326732673267324,3.253728768784783
2.7524752475247527,3.265978028044822
2.7722772277227725,3.277342636242364
2.792079207920792,3.2877876001650934
2.811881188118812,3.297281061875745
2.8316831683168315,3.3057943181972833
2.8514851485148514,3.3133018366039675
2.8712871287128716,3.319781268076701
2.891089108910891,3.3252134574019006
2.910891089108911,3.329582451319719
2.9306930693069306,3.332875504858792
2.9504950495049505,3.335083086130847
2.9702970297029703,3.3361988797984146
2.99009900990099,3.336219789371935
3.00990099009901,3.3351459384379094
3.0297029702970297,3.332980670866862
3.0495049504950495,3.3297305499975014
3.0693069306930694,3.325405356741238
3.089108910891089,3.3200180864981435
3.108910891089109,3.31358494472044
3.128712871287129,3.3061253409022977
3.148514851485148,3.2976618807144233
3.1683168316831685,3.2882203559370806
3.1881188118811883,3.277829731776358
3.2079207920792077,3.2665221310740895
3.227722772277228,3.2543328148421558
3.2475247524752473,3.2413001584659065
3.267326732673267,3.227465622829925
3.2871287128712874,3.2128737195216828
3.3069306930693068,3.197571969165821
3.3267326732673266,3.1816108518345487
3.346534653465347,3.165043748369239
3.366336633663366,3.14792687133708
3.386138613861386,3.1303191842367966
3.4059405940594063,3.1122823074625394
3.4257425742574257,3.0938804094398
3.4455445544554455,3.075180081265975
3.4653465346534653,3.0562501931282378
3.485148514851485,3.0371617307391823
3.504950495049505,3.0179876100348944
3.5247524752475248,2.9988024684298504
3.5445544554455446,2.979682431027696
3.564356435643564,2.960704850357121
3.5841584158415842,2.941948018446966
3.603960396039604,2.923490850384176
3.6237623762376234,2.9054125389188976
3.6435643564356437,2.887792180198973
3.6633663366336635,2.870708371331897
3.683168316831683,2.854238781183706
3.702970297029703,2.8384596966223485
3.722772277227723,2.823445547283105
3.7425742574257423,2.8092684128527585
3.762376237623762,2.795997517809268
3.7821782178217824,2.7836987194766474
3.801980198019802,2.7724339961195206
3.8217821782178216,2.7622609425604585
3.841584158415842,2.7532322814080303
3.8613861386138613,2.745395398386346
3.881188118811881,2.738791910415839
3.9009900990099013,2.733457274975979
3.9207920792079207,2.729420448861901
3.9405940594059405,2.7267036037227568
3.96039603960396,2.7253219047501687
3.98019801980198,2.725283357600671
4.0,2.7265887271318023
4.01980198019802,2.7292315298696392
4.03960396039604,2.7331981003775296
4.0594059405940595,2.7384677299408584
4.079207920792079,2.7450128742983217
4.099009900990099,2.752799425612024
4.118811881188119,2.7617870425384177
4.138613861386139,2.7719295311903545
4.158415841584159,2.7831752689993112
4.178217821782178,2.795467663010514
4.198019801980198,2.8087456339688868
4.217821782178218,2.8229441176623697
4.237623762376238,2.837994575348131
4.257425742574258,2.8538255056567214
4.2772277227722775,2.8703629511014337
4.297029702970297,2.887530993167419
4.316831683168317,2.9052522308693325
4.336633663366336,2.9234482386046117
4.356435643564357,2.9420400000539955
4.376237623762377,2.9609483157608767
4.3960396039603955,2.9800941828330103
4.415841584158416,2.9993991459377707
4.435643564356436,3.0187856193957945
4.455445544554455,3.0381771807133764
4.475247524752476,3.057498836332717
4.4950495049504955,3.076677260724606
4.514851485148514,3.0956410102086727
4.534653465346535,3.114320713069389
4.554455445544555,3.1326492376528687
4.574257425742574,3.150561840188617
4.594059405940594,3.1679962940930393
4.613861386138614,3.184893002485545
4.633663366336633,3.201195095593477
4.653465346534653,3.2168485146442998
4.673267326732674,3.2318020837511563
4.693069306930693,3.2460075711944616
4.712871287128713,3.259419741393831
4.732673267326733,3.271996398753036
4.752475247524752,3.2836984244509413
4.772277227722772,3.2944898071431656
4.792079207920793,3.3043376684358963
4.811881188118812,3.313212283894709
4.8316831683168315,3.3210871002587545
4.851485148514852,3.3279387494435824
4.871287128712871,3.3337470598353853
4.891089108910891,3.338495065303755
4.910891089108912,3.342169012290493
4.930693069306931,3.3447583652663293
4.9504950495049505,3.3462558107863543
4.97029702970297,3.3466572603168454
4.99009900990099,3.3459618519510297
5.00990099009901,3.3441719510775054
5.02970297029703,3.3412931500128273
5.0495049504950495,3.3373342665570065
5.069306930693069,3.3323073413781463
5.089108910891089,3.3262276340775183
5.108910891089109,3.319113617730091
5.128712871287129,3.310986971635624
5.148514851485149,3.301872571952073
5.1683168316831685,3.2917984798153603
5.188118811881188,3.2807959264764865
5.207920792079208,3.268899294909028
5.227722772277227,3.2561460972557383
5.247524752475248,3.2425769473930135
5.267326732673268,3.2282355277962553
5.2871287128712865,3.2131685497876825
5.306930693069307,3.1974257061423472
5.326732673267327,3.181059614918597
5.346534653465346,3.1641257532683733
5.366336633663367,3.1466823798726415
5.3861386138613865,3.12879044454069
5.405940594059405,3.1105134834147012
5.425742574257426,3.0919174981351625
5.445544554455446,3.073070817257165
5.465346534653465,3.0540439381672515
5.485148514851486,3.03490934774424
5.504950495049505,3.015741320044186
5.524752475247524,2.9966156893780527
5.544554455445545,2.977609597302254
5.564356435643565,2.9588012122649707
5.584158415841584,2.940269420956217
5.603960396039604,2.9220934908035856
5.623762376237624,2.9043527035452295
5.643564356435643,2.88712596039877
5.663366336633663,2.870491360028389
5.683168316831684,2.8545257512852436
5.702970297029703,2.8393042635454697
5.7227722772277225,2.8248998183752296
5.742574257425743,2.811382627186601
5.762376237623762,2.7988196804768055
5.782178217821782,2.7872742351258264
5.801980198019803,2.7768053070182424
5.821782178217822,2.767467176905949
5.841584158415841,2.75930891789172
5.861386138613861,2.7523739531447466
5.881188118811881,2.746699652422964
5.900990099009901,2.7423169756463603
5.920792079207921,2.739250171131403
5.9405940594059405,2.737516535163455
5.96039603960396,2.7371262383769155
5.98019801980198,2.7380822229718698
6.0,2.740380173178972
6.01980198019802,2.7440085596600636
6.03960396039604,2.7489487567768434
6.0594059405940595,2.75517522995345
6.079207920792079,2.7626557887756804
6.099009900990099,2.7713519000765854
6.118811881188119,2.78121905410971
6.138613861386139,2.79220717604346
6.158415841584159,2.80426107444366
6.178217821782178,2.8173209181480945
6.198019801980198,2.831322732961772
6.217821782178218,2.8461989098876246
6.237623762376237,2.8618787171150144
6.257425742574258,2.878288808673483
6.2772277227722775,2.8953537234725535
6.297029702970296,2.912996369343607
6.316831683168317,2.93113848763084
6.336633663366337,2.9497010948073963
6.356435643564356,2.96860489848549
6.376237623762377,2.9877706860215345
6.396039603960396,3.0071196846696298
6.415841584158415,3.0265738928979347
6.435643564356436,3.0460563830470826
6.455445544554456,3.065491575976823
6.475247524752475,3.0848054887203418
6.495049504950495,3.1039259564511283
6.514851485148515,3.1227828302737
6.534653465346534,3.1413081524857187
6.554455445544554,3.1594363110357913
6.574257425742575,3.1771041749275675
6.594059405940594,3.1942512123068663
6.6138613861386135,3.210819592922317
6.633663366336634,3.226754276579651
6.653465346534653,3.242003089121925
6.673267326732673,3.2565167873681466
6.693069306930694,3.2702491143358867
6.712871287128713,3.283156845963342
6.732673267326732,3.295199830435987
6.752475247524753,3.306341021114375
6.772277227722772,3.3165465039552213
6.792079207920792,3.325785520217856
6.811881188118813,3.334030485153754
6.8316831683168315,3.341257003288421
6.851485148514851,3.34744388082228
6.871287128712871,3.352573135600079
6.891089108910891,3.356630005026908
6.910891089108911,3.3596029522419593
6.930693069306931,3.3614836707986626
6.9504950495049505,3.3622670880406913
6.97029702970297,3.3619513673071038
6.99009900990099,3.360537909045625
7.00990099009901,3.3580313508600996
7.02970297029703,3.3544395664654822
7.0495049504950495,3.3497736634708106
7.069306930693069,3.3440479798563207
7.089108910891089,3.337280078954813
7.108910891089109,3.329490742688245
7.128712871287128,3.320703962748139
7.148514851485149,3.3109469293417466
7.1683168316831685,3.300250017054393
7.188118811881187,3.2886467673017012
7.207920792079208,3.2761738667630227
7.227722772277228,3.2628711210990864
7.247524752475247,3.248781423162784
7.267326732673268,3.2339507148125133
7.287128712871287,3.218427941333046
7.306930693069306,3.2022649973609614
7.326732673267327,3.185516663101346
7.346534653465347,3.168240529512901
7.366336633663366,3.150496911031661
7.3861386138613865,3.13234874430402
7.405940594059406,3.113861471311764
7.425742574257425,3.095102905201071
7.445544554455446,3.0761430770811202
7.465346534653466,3.057054062042649
7.485148514851485,3.037909782672467
7.504950495049505,3.0187857884144456
7.524752475247524,2.9997590092619224
7.544554455445544,2.9809074824695547
7.564356435643565,2.96231005125483
7.584158415841584,2.944046034828122
7.603960396039604,2.926194869552417
7.623762376237624,2.908835721592699
7.643564356435643,2.892047072069947
7.663366336633663,2.875906276480873
7.683168316831684,2.8604891009698568
7.702970297029703,2.845869238926668
7.7227722772277225,2.8321178123069135
7.742574257425743,2.8193028629997507
7.762376237623762,2.8074888404601497
7.782178217821782,2.7967360926373863
7.801980198019803,2.7871003679195874
7.821782178217822,2.7786323363289678
7.841584158415841,2.771377138498628
7.861386138613862,2.765373971000979
7.881188118811881,2.7606557163517786
7.900990099009901,2.7572486254673807
7.92079207920792,2.7551720595072298
7.9405940594059405,2.754438296907585
7.96039603960396,2.7550524100417575
7.980198019801979,2.757012214379696
8.0,2.7603082913301544
8.01980198019802,2.7649240842067626
8.03960396039604,2.77083606504279
8.05940594059406,2.778013968364392
8.07920792079208,2.7864210865877053
8.099009900990099,2.7960146204883327
8.118811881188119,2.806746077244828
8.138613861386139,2.8185617079048946
8.158415841584159,2.8314029757723063
8.178217821782178,2.845207047152721
8.198019801980198,2.859907296105773
8.217821782178218,2.875433815291559
8.237623762376238,2.891713925630653
8.257425742574258,2.9086726782699137
8.277227722772277,2.9262333432143204
8.297029702970297,2.944317879902763
8.316831683168317,2.962847385932172
8.336633663366337,2.9817425210349717
8.356435643564357,3.0009239042622977
8.376237623762377,3.020312483099146
8.396039603960396,3.0398298739238325
8.415841584158416,3.059398673815967
8.435643564356436,3.0789427442120454
8.455445544554456,3.0983874673082323
8.475247524752476,3.1176599764210997
8.495049504950495,3.136689361747118
8.514851485148515,3.155406853119014
8.534653465346535,3.1737459814520506
8.554455445544555,3.191642720615405
8.574257425742575,3.2090356114624505
8.594059405940595,3.225865869718185
8.613861386138613,3.2420774793593767
8.633663366336634,3.2576172730416264
8.653465346534654,3.272435001031508
8.673267326732672,3.2864833899983186
8.693069306930694,3.299718192911209
8.712871287128714,3.3120982311777416
8.732673267326732,3.3235854300514682
8.752475247524753,3.334144848230522
8.772277227722773,3.3437447024684532
8.792079207920791,3.352356387922521
8.811881188118813,3.359954494874569
8.831683168316832,3.3665168223754898
8.85148514851485,3.3720243892852237
8.871287128712872,3.376461443107407
8.891089108910892,3.3798154669491383
8.91089108910891,3.382077184872451
8.930693069306932,3.3832405658437574
8.950495049504951,3.383302826430212
8.97029702970297,3.382264432336864
8.990099009900991,3.3801290988247836
9.00990099009901,3.3769037899973937
9.029702970297029,3.3725987168889855
9.04950495049505,3.367227334235437
9.06930693069307,3.3608063357509868
9.089108910891088,3.3533556476767066
9.10891089108911,3.344898420304561
9.12871287128713,3.3354610171152337
9.148514851485148,3.3250730010977323
9.16831683168317,3.313767117743417
9.188118811881187,3.301579274126535
9.207920792079207,3.288548513396466
9.227722772277229,3.274716983915106
9.247524752475247,3.2601299021749384
9.267326732673267,3.2448355085310165
9.287128712871288,3.228885014673652
9.306930693069306,3.2123325416601696
9.326732673267326,3.1952350472152204
9.346534653465348,3.1776522409030132
9.366336633663366,3.1596464856747177
9.386138613861386,3.1412826842050454
9.405940594059407,3.1226281483585043
9.425742574257425,3.103752450074796
9.445544554455445,3.0847272519415223
9.465346534653467,3.0656261157387767
9.485148514851485,3.0465242873037783
9.504950495049505,3.027498456183709
9.524752475247526,3.0086264887307994
9.544554455445544,2.989987133555773
9.564356435643564,2.971659698601165
9.584158415841586,2.953723699532781
9.603960396039604,2.936258479678601
9.623762376237623,2.919342802371119
9.643564356435645,2.9030544172668207
9.663366336633663,2.8874696030154174
9.683168316831683,2.8726626895157628
9.702970297029704,2.8587055639016534
9.722772277227723,2.845667165319159
9.742574257425742,2.83361297445063
9.762376237623764,2.8226045045674546
9.782178217821782,2.812698801607689
9.801980198019802,2.803947961329215
9.821782178217823,2.796398671938576
9.841584158415841,2.790091790700815
9.861386138613861,2.7850619628659232
9.881188118811881,2.7813372907836498
9.900990099009901,2.7789390603189994
9.92079207920792,2.7778815306378988
9.94059405940594,2.7781717921382367
9.96039603960396,2.7798096958030456
9.98019801980198,2.782787855610912
10.0,2.7870917239249304
10.01980198019802,2.7926997380718173
10.03960396039604,2.799583534692767
10.05940594059406,2.8077082269676463
10.07920792079208,2.817032738543756
10.099009900990099,2.8275101869855526
10.118811881188119,2.839088308831517
10.138613861386139,2.851709917910654
10.158415841584159,2.865313388429397
10.178217821782178,2.8798331544695865
10.198019801980198,2.8952002179090854
10.217821782178218,2.911342657346602
10.237623762376238,2.9281861313377506
10.257425742574258,2.9456543700819786
10.277227722772277,2.963669650594911
10.297029702970297,2.9821532513164377
10.316831683168317,3.001025883005342
10.336633663366337,3.0202080936269455
10.356435643564357,3.0396206457293697
10.376237623762377,3.0591848655107476
10.396039603960396,3.0788229633950692
10.415841584158416,3.098458326454465
10.435643564356436,3.1180157834421682
10.455445544554454,3.1374218435365218
10.475247524752476,3.1566049101498646
10.495049504950495,3.1754954713353216
10.514851485148514,3.194026268438459
10.534653465346535,3.2121324446996145
10.554455445544555,3.2297516755257196
10.574257425742573,3.246824282126253
10.594059405940595,3.263293330155197
10.613861386138614,3.2791047149264405
10.633663366336632,3.294207234679936
10.653465346534654,3.3085526532761307
10.673267326732674,3.3220957535900455
10.693069306930692,3.3347943827682993
10.712871287128714,3.3466094904044064
10.732673267326733,3.357505160582236
10.752475247524751,3.3674486386358664
