Time (s),Filtered Signal
0.0,-0.0049518634661539504
0.0334075723830735,0.29313342028950035
0.066815144766147,0.5609795970312171
0.1002227171492205,0.776683761962815
0.133630289532294,0.9299451636531263
0.1670378619153675,1.0193347566183457
0.200445434298441,1.0461491090475943
0.23385300668151449,1.009804069736047
0.267260579064588,0.9084661221396236
0.3006681514476615,0.7447874362925042
0.334075723830735,0.5327652486685596
0.3674832962138085,0.3003966519776489
0.400890868596882,0.08485498075925871
0.4342984409799555,-0.07880434724934544
0.46770601336302897,-0.1704041141470326
0.5011135857461025,-0.19251284458692328
0.534521158129176,-0.16919047229563752
0.5679287305122495,-0.13585756295186224
0.601336302895323,-0.1249091620365357
0.6347438752783965,-0.15362733320497343
0.66815144766147,-0.21949686965618725
0.7015590200445435,-0.3041265481389226
0.734966592427617,-0.38282595323361673
0.7683741648106905,-0.4346766038435623
0.801781737193764,-0.4486269401711499
0.8351893095768375,-0.4240081146904144
0.868596881959911,-0.36704580303403195
0.9020044543429845,-0.2866057824269725
0.9354120267260579,-0.19183659480525625
0.9688195991091315,-0.09226129405350367
1.002227171492205,0.0012230518783724737
1.0356347438752784,0.07667288369277286
1.069042316258352,0.12390265949410363
1.1024498886414256,0.1388436065383638
1.135857461024499,0.12689370643746994
1.1692650334075725,0.10264380797077977
1.202672605790646,0.08506794396381466
1.2360801781737194,0.08978359699217826
1.269487750556793,0.121842808705819
1.3028953229398665,0.1726021317517841
1.33630289532294,0.22245833528154108
1.3697104677060135,0.24856075328908328
1.403118040089087,0.2343547410917116
1.4365256124721606,0.1769646989910205
1.469933184855234,0.08923612114536361
1.5033407572383075,-0.004696665952679763
1.536748329621381,-0.07892855157800376
1.5701559020044544,-0.11683164619182201
1.603563474387528,-0.1190342500565574
1.6369710467706016,-0.10439436331240924
1.670378619153675,-0.10251591712364577
1.7037861915367485,-0.13999415835101353
1.737193763919822,-0.2258977855629756
1.7706013363028954,-0.343267602010615
1.804008908685969,-0.451582140882451
1.8374164810690425,-0.5006126391253867
1.8708240534521159,-0.45075889234394473
1.9042316258351895,-0.2913805482342029
1.937639198218263,-0.04874872524905676
1.9710467706013366,0.22069472129178247
2.00445434298441,0.44972812608855817
2.0378619153674835,0.5845973132419578
2.071269487750557,0.6039560127132753
2.1046770601336307,0.5246050646746121
2.138084632516704,0.39204172843376855
2.1714922048997773,0.2605393288269515
2.204899777282851,0.1717792848419957
2.2383073496659245,0.14103980011576117
2.271714922048998,0.15590185465649872
2.3051224944320716,0.1865393486598411
2.338530066815145,0.20173908480205746
2.3719376391982183,0.18294171402208378
2.405345211581292,0.1303289648835165
2.4387527839643655,0.059210544208190094
2.472160356347439,-0.010401212404910674
2.5055679287305126,-0.06521957794170176
2.538975501113586,-0.10533111290590191
2.5723830734966593,-0.14306654096646157
2.605790645879733,-0.19514749681999763
2.6391982182628064,-0.27241911911365396
2.67260579064588,-0.372398546049803
2.7060133630289536,-0.47818752720907687
2.739420935412027,-0.5640701820332912
2.7728285077951007,-0.6050489099628015
2.806236080178174,-0.5860755749465587
2.8396436525612474,-0.5072753954281388
2.873051224944321,-0.3834861230594697
2.9064587973273945,-0.23883569868426152
2.939866369710468,-0.09882289258364393
2.9732739420935417,0.017085820372712703
3.006681514476615,0.09994402792328558
3.0400890868596884,0.15186234575858856
3.073496659242762,0.18308514258679456
3.1069042316258355,0.20719771482684854
3.140311804008909,0.2363346909642847
3.1737193763919826,0.27771975448841973
3.207126948775056,0.33193960450311977
3.2405345211581293,0.3926693219041668
3.273942093541203,0.4475223939696433
3.3073496659242765,0.48016155023248736
3.34075723830735,0.47416383971962384
3.3741648106904236,0.41872927766931967
3.407572383073497,0.31500962351615125
3.4409799554565703,0.18026860369824427
3.474387527839644,0.04649718684151666
3.5077951002227175,-0.0484391022360723
3.541202672605791,-0.0755431834245472
3.5746102449888646,-0.029687308128005553
3.608017817371938,0.06288641802774496
3.6414253897550113,0.15047342583169512
3.674832962138085,0.17526952406806176
3.7082405345211584,0.09895070204351016
3.7416481069042318,-0.07737317497781239
3.7750556792873056,-0.3093729746135885
3.808463251670379,-0.5251525362466207
3.8418708240534527,-0.6539455710548792
3.875278396436526,-0.6547316785085594
3.9086859688195994,-0.5316571674276273
3.942093541202673,-0.32982593207603916
3.9755011135857465,-0.11455723205303411
4.00890868596882,0.055477206453913706
4.042316258351893,0.1490768678873127
4.075723830734967,0.16908914062622607
4.109131403118041,0.1436417113400004
4.142538975501114,0.10773199702553227
4.1759465478841875,0.08460443942931015
4.209354120267261,0.07578227399502145
4.242761692650334,0.06417367868315117
4.276169265033408,0.028176781423799525
4.309576837416482,-0.04102119882702102
4.342984409799555,-0.12884113388680601
4.3763919821826285,-0.20022046938995278
4.409799554565702,-0.21569416227083513
4.443207126948775,-0.1527181612597304
4.476614699331849,-0.020658299587093143
4.510022271714923,0.13940617261975016
4.543429844097996,0.2710546631693921
4.5768374164810695,0.32739315535452346
4.610244988864143,0.292100363424572
4.643652561247216,0.18624381232005602
4.67706013363029,0.05775835297458332
4.710467706013364,-0.04083902686454293
4.743875278396437,-0.07541455913674049
4.77728285077951,-0.04309461761719974
4.810690423162584,0.030096251945607985
4.844097995545657,0.10427450637208707
4.877505567928731,0.14507086394425991
4.910913140311805,0.1378402547561013
4.944320712694878,0.0908038563141642
4.977728285077951,0.027296777668945643
5.011135857461025,-0.0274209914618068
5.044543429844098,-0.05741694514563299
5.077951002227172,-0.06012938702570668
5.111358574610246,-0.04258068436568883
5.144766146993319,-0.013624497776246304
5.178173719376392,0.022080967540374568
5.211581291759466,0.06442702107796375
5.244988864142539,0.11274285008117287
5.278396436525613,0.15939295989367167
5.311804008908687,0.18751998104997708
5.34521158129176,0.1760070039195001
5.378619153674833,0.11007528409937399
5.412026726057907,-0.008161326780021776
5.445434298440981,-0.1557318398826166
5.478841870824054,-0.2948633810678922
5.512249443207128,-0.3870869800493168
5.545657015590201,-0.40888671867607534
5.579064587973274,-0.3613454575168265
5.612472160356348,-0.2692373057421235
5.645879732739422,-0.1702593146005027
5.679287305122495,-0.09965330550245677
5.712694877505569,-0.07705208912599888
5.746102449888642,-0.10057569933755223
5.779510022271715,-0.1494521829384346
5.812917594654789,-0.1929342694375821
5.846325167037863,-0.20155799958189355
5.879732739420936,-0.15699133449333869
5.91314031180401,-0.05795794226168266
5.946547884187083,0.07897709588149118
5.979955456570156,0.22392438535874867
6.01336302895323,0.34257318401762477
6.046770601336304,0.40721343624752393
6.080178173719377,0.4063685040900713
6.1135857461024505,0.34927974373326526
6.146993318485524,0.262903684983751
6.180400890868597,0.18194734391263495
6.213808463251671,0.1355683741997885
6.247216035634745,0.13614412080028926
6.280623608017818,0.1749484817133411
6.3140311804008915,0.22676279789990236
6.347438752783965,0.2615592038979577
6.380846325167038,0.25814041730859216
6.414253897550112,0.213504371491361
6.447661469933186,0.14338654369550705
6.481069042316259,0.07338848843684201
6.5144766146993325,0.024691320235151946
6.547884187082406,0.001412062630337918
6.581291759465479,-0.013534620228910315
6.614699331848553,-0.05096335620394474
6.648106904231627,-0.139020956883951
6.6815144766147,-0.28556311038182736
6.7149220489977735,-0.4684811684542322
6.748329621380847,-0.6399490316248884
6.78173719376392,-0.743932957611359
6.815144766146994,-0.7394968581144968
6.848552338530068,-0.6190563571075028
6.881959910913141,-0.4127905396251417
6.915367483296214,-0.17703481882631786
6.948775055679288,0.027788474293341293
6.982182628062361,0.15940225257085358
7.015590200445435,0.20640666913037692
7.048997772828509,0.18718200333680496
7.082405345211582,0.13746781798090363
7.115812917594655,0.09378168864014212
7.149220489977729,0.08029689238215162
7.182628062360802,0.10358357861606131
7.216035634743876,0.1551070871183116
7.24944320712695,0.2181321436841965
7.282850779510023,0.27499366418019944
7.316258351893096,0.31214524590759857
7.34966592427617,0.322494502106764
7.383073496659243,0.30584614709376745
7.416481069042317,0.26828667507128034
7.449888641425391,0.22060135056389102
7.4832962138084635,0.17533514430924907
7.516703786191537,0.14254361889401343
7.550111358574611,0.12539328408556757
7.583518930957685,0.11764564128854317
7.616926503340758,0.10483687160025756
7.650334075723832,0.06951836402089648
7.683741648106905,-0.0010589409075347116
7.717149220489978,-0.10790919968005562
7.750556792873052,-0.23717749435663707
7.783964365256126,-0.36279238574026196
7.817371937639199,-0.45438486760142627
7.850779510022273,-0.48754519901317855
7.884187082405346,-0.4522542527274981
7.917594654788419,-0.3559783457619241
7.951002227171493,-0.22023893040271808
7.984409799554567,-0.07235182361692148
8.01781737193764,0.06393094865440108
8.051224944320714,0.17488679224527906
8.084632516703786,0.25795697714577764
8.118040089086861,0.31767136467716434
8.151447661469934,0.3588767094146852
8.184855233853007,0.38096614676388524
8.218262806236082,0.3762713149811632
8.251670378619155,0.3337202054261097
8.285077951002227,0.24615226393513492
8.318485523385302,0.11757061549579197
8.351893095768375,-0.033777678691853275
8.385300668151448,-0.17887365108182396
8.418708240534523,-0.2871772827984462
8.452115812917596,-0.3378673779293924
8.485523385300668,-0.3280174875320418
8.518930957683743,-0.2738692840952522
8.552338530066816,-0.20446085367356231
8.585746102449889,-0.15029039496787014
8.619153674832964,-0.1317984466872435
8.652561247216036,-0.15232306597932732
8.68596881959911,-0.19802795482296923
8.719376391982184,-0.24425389653453286
8.752783964365257,-0.26523756496317286
8.78619153674833,-0.24321299443385877
8.819599109131405,-0.17374150843129188
8.853006681514477,-0.06605612319480784
8.88641425389755,0.06078922275251258
8.919821826280625,0.18396916423842
8.953229398663698,0.2830104148341808
8.98663697104677,0.3444886970089458
9.020044543429846,0.36457263705214166
9.053452115812918,0.3491813227941065
9.086859688195991,0.311739027173155
9.120267260579066,0.2687866517062648
9.153674832962139,0.23432528038473716
9.187082405345212,0.21459587022149698
9.220489977728286,0.2054839374147859
9.25389755011136,0.19424855633901236
9.287305122494432,0.16561833153398986
9.320712694877507,0.11004516376070722
9.35412026726058,0.03025959546996259
9.387527839643653,-0.05758102196170309
9.420935412026727,-0.12956219878228994
9.4543429844098,-0.16439344007172021
9.487750556792873,-0.1535478127455969
9.521158129175948,-0.10583441938508749
9.55456570155902,-0.04372310354139526
9.587973273942094,0.0068558901465528895
9.621380846325168,0.02785050049278731
9.654788418708241,0.015522975780599623
9.688195991091314,-0.02115466909230811
9.721603563474389,-0.06849862782251065
9.755011135857462,-0.11712423269558336
9.788418708240535,-0.16624223045065414
9.82182628062361,-0.22075284364583309
9.855233853006682,-0.2834044742384542
9.888641425389755,-0.34755641245701374
9.92204899777283,-0.3958637816762224
9.955456570155903,-0.40665818430967204
9.988864142538976,-0.3650694199872935
10.02227171492205,-0.2727834902518468
10.055679287305123,-0.15056636397142406
10.089086859688196,-0.031232077400589937
10.12249443207127,0.05423998019452733
10.155902004454344,0.09087129858760772
10.189309576837417,0.08697951107714334
10.222717149220491,0.0706052296438053
10.256124721603564,0.07645409860002603
10.289532293986637,0.12953981869703807
10.322939866369712,0.23335580737042613
10.356347438752785,0.36800827406457615
10.389755011135858,0.49866641391939764
10.423162583518932,0.5897080057883837
10.456570155902005,0.6176397715624844
10.489977728285078,0.5772116960330183
10.523385300668153,0.4790962631754915
10.556792873051226,0.34181131319994157
10.590200445434299,0.1830300292407256
10.623608017817373,0.014969942459812516
10.657015590200446,-0.15435407412110128
10.69042316258352,-0.31591229823720124
10.723830734966594,-0.45481010035373576
10.757238307349667,-0.5499811804385304
10.790645879732741,-0.5799304783117877
10.824053452115814,-0.5323133986649201
10.857461024498887,-0.4124314169637439
10.890868596881962,-0.24558461356582273
10.924276169265035,-0.07087027113116882
10.957683741648108,0.07179080384902778
10.991091314031182,0.1559944408970806
11.024498886414255,0.17803176996290712
11.057906458797328,0.15649660564961704
11.091314031180403,0.12234798227750499
11.124721603563476,0.10402315657035259
11.158129175946549,0.11457214800388331
11.191536748329623,0.14674762606026417
11.224944320712696,0.1780670870221599
11.25835189309577,0.18304150705191466
11.291759465478844,0.14640455487065274
11.325167037861917,0.0708711030753455
11.35857461024499,-0.02420817881599468
11.391982182628064,-0.11237026812647614
11.425389755011137,-0.17278885801012744
11.45879732739421,-0.19979999689186398
11.492204899777285,-0.20451271178787406
11.525612472160358,-0.2078684618959621
11.55902004454343,-0.2287337292164361
11.592427616926505,-0.2728762914452674
11.625835189309578,-0.3280388133906392
11.659242761692651,-0.3673826955997876
11.692650334075726,-0.3599064174324479
11.726057906458799,-0.28361994671128304
11.759465478841872,-0.13620052380285425
11.792873051224946,0.06124114734932174
11.82628062360802,0.2691361487634971
11.859688195991092,0.4416833297922174
11.893095768374167,0.5418653122598732
11.92650334075724,0.5534898366756144
11.959910913140313,0.4856056217835365
11.993318485523387,0.3678098233458246
12.02672605790646,0.23873537894507613
12.060133630289533,0.1325975071691973
12.093541202672608,0.068972659677242
12.12694877505568,0.04908924882540842
12.160356347438753,0.05896074898034209
12.193763919821828,0.07711673034512057
12.227171492204901,0.08346440617493853
12.260579064587974,0.06611542168588905
12.293986636971049,0.024336052064772018
12.327394209354122,-0.03263637247150145
12.360801781737194,-0.08992008626581084
12.39420935412027,-0.13278689087122877
12.427616926503342,-0.1520698254107833
12.461024498886415,-0.14747586195819629
12.49443207126949,-0.12760259747875202
12.527839643652563,-0.10641937197473529
12.561247216035635,-0.09733177739155116
12.59465478841871,-0.10722227412350951
12.628062360801783,-0.13327529602266977
12.661469933184856,-0.16441186819304893
12.69487750556793,-0.18698982666427877
12.728285077951004,-0.19209587369214906
12.761692650334076,-0.18057859232263482
12.795100222717151,-0.1627732639946109
12.828507795100224,-0.15245276356009335
12.861915367483297,-0.15770704877911904
12.895322939866372,-0.17356916610255355
12.928730512249444,-0.1809964189163856
12.962138084632517,-0.15406240753942588
12.995545657015592,-0.07301032941465146
13.028953229398665,0.06279365924971038
13.062360801781738,0.2289178305560181
13.095768374164813,0.38119525740575816
13.129175946547885,0.47128854139652837
13.162583518930958,0.4660928554478075
13.195991091314033,0.36211523738899337
13.229398663697106,0.1879702717872211
13.262806236080179,-0.00626481180782794
13.296213808463254,-0.1678333980850809
13.329621380846326,-0.25964483287903983
13.3630289532294,-0.270500060468204
13.396436525612474,-0.21411323459172044
13.429844097995547,-0.11939594305109531
13.46325167037862,-0.01794620901259403
13.496659242761694,0.0654691624317678
13.530066815144767,0.11675162014590659
13.56347438752784,0.1316910273834807
13.596881959910915,0.11366296376141055
13.630289532293988,0.07224831487412083
13.66369710467706,0.022841385941949576
13.697104677060135,-0.014730558630628663
13.730512249443208,-0.020589096186111235
13.763919821826281,0.017891762471232527
13.797327394209356,0.0987034683577627
13.830734966592429,0.20201736554371605
13.864142538975502,0.29433378054201764
13.897550111358576,0.33971052416968744
13.93095768374165,0.3139027286756251
13.964365256124722,0.21505682447201155
13.997772828507797,0.06562258144104312
14.03118040089087,-0.09585793220024229
14.064587973273943,-0.2294733332687163
14.097995545657017,-0.3083946819175506
14.13140311804009,-0.3266829285171473
14.164810690423163,-0.2977607863931779
14.198218262806238,-0.24557893251170196
14.23162583518931,-0.19358679027788603
14.265033407572384,-0.15662551823143508
14.298440979955458,-0.13833588910293357
14.331848552338531,-0.13349661154818637
14.365256124721604,-0.132724496285035
14.398663697104679,-0.12689491452656085
14.432071269487752,-0.10990409977881718
14.465478841870825,-0.07979525795230714
14.4988864142539,-0.038890647808814696
14.532293986636972,0.006700895365252127
14.565701559020045,0.048409773944393
14.59910913140312,0.07771649294414333
14.632516703786193,0.08958825068447955
14.665924276169266,0.08556762552777429
14.69933184855234,0.07462960670246108
14.732739420935413,0.0704351886426926
14.766146993318486,0.08530877146735534
14.79955456570156,0.12335461467371814
14.832962138084634,0.1763061488374382
14.866369710467707,0.22497440153648687
14.899777282850781,0.24657978617078963
14.933184855233854,0.2250575637789135
14.966592427616927,0.15942133659431534
15.0,0.06575611788858217
