Frequency (Hz),Amplitude
0.0,2.2676649520912155
0.019823788546255508,2.2716522013968654
0.039647577092511016,2.2835567086695123
0.059471365638766524,2.3032097632838604
0.07929515418502203,2.3303398395455264
0.09911894273127755,2.3645858424798334
0.11894273127753305,2.4055134424129636
0.13876651982378857,2.4526328391079373
0.15859030837004406,2.5054164152858287
0.17841409691629956,2.563315055473127
0.1982378854625551,2.62577231445267
0.2180616740088106,2.692236025075371
0.2378854625550661,2.7621672734160536
0.25770925110132165,2.835046911014278
0.27753303964757714,2.9103799183246055
0.29735682819383263,2.9876979966371864
0.31718061674008813,3.0665607703447773
0.3370044052863437,3.1465559496918725
0.3568281938325991,3.227298753990054
0.37665198237885467,3.3084308393974196
0.3964757709251102,3.389618921613547
0.41629955947136565,3.470553236401125
0.4361233480176212,3.5509459413361784
0.4559471365638767,3.630529530682972
0.4757709251101322,3.709055311030232
0.49559471365638774,3.7862919672027306
0.5154185022026433,3.862024234802765
0.5352422907488987,3.9360516864539683
0.5550660792951543,4.008187632482429
0.5748898678414097,4.0782581326177105
0.5947136563876653,4.14610111272868
0.6145374449339208,4.211565579166787
0.6343612334801763,4.274510922627788
0.6541850220264318,4.334806303307414
0.6740088105726874,4.39233010933372
0.6938325991189428,4.446969480878191
0.7136563876651982,4.498619892886979
0.7334801762114539,4.547184789971763
0.7533039647577093,4.592575267613393
0.7731277533039648,4.634709794435675
0.7929515418502204,4.673513970882983
0.8127753303964759,4.708920320177086
0.8325991189427313,4.740868107929334
0.8524229074889869,4.769303187244818
0.8722466960352424,4.794177866575835
0.8920704845814978,4.815450797965752
0.9118942731277534,4.83308688367475
0.931718061674009,4.847057199499198
0.9515418502202644,4.85733893339137
0.9713656387665199,4.863915338259202
0.9911894273127755,4.866775698080912
1.0110132158590308,4.8659153067108605
1.0308370044052866,4.861335458984346
1.0506607929515421,4.853043453953715
1.0704845814977975,4.841052610311014
1.090308370044053,4.825382294274898
1.1101321585903086,4.80605796044776
1.1299559471365639,4.7831112063849535
1.1497797356828194,4.7565798418659355
1.1696035242290752,4.726507974121138
1.1894273127753305,4.692946110551988
1.209251101321586,4.655951280789564
1.2290748898678416,4.615587180272129
1.248898678414097,4.571924337890005
1.2687224669603525,4.525040310648695
1.288546255506608,4.475019908743109
1.3083700440528636,4.421955454918329
1.3281938325991192,4.3659470825160795
1.3480176211453747,4.307103077169235
1.36784140969163,4.245540267702545
1.3876651982378856,4.181384472414631
1.4074889867841411,4.114771007533121
1.4273127753303965,4.045845265218791
1.4471365638766522,3.974763368994309
1.4669603524229078,3.901692914814436
1.4867841409691631,3.826813806067507
1.5066079295154187,3.750319190448985
1.5264317180616742,3.6724165056603715
1.5462555066079295,3.593328638965656
1.5660792951541853,3.513295202383393
1.5859030837004409,3.432573920179784
1.6057268722466962,3.3514421176771463
1.6255506607929517,3.270198289355199
1.6453744493392073,3.1891637087793567
1.6651982378854626,3.1086840218902863
1.6850220264317182,3.0291307374469114
1.7048458149779737,2.9509024929294405
1.7246696035242293,2.8744259305269457
1.7444933920704848,2.800155966653473
1.7643171806167404,2.7285751824598834
1.7841409691629957,2.660192007851511
1.8039647577092512,2.5955373277084997
1.8237885462555068,2.5351591216678564
1.8436123348017623,2.479614778387683
1.863436123348018,2.4294608250173417
1.8832599118942732,2.3852400035943813
1.9030837004405288,2.347465917868691
1.9229074889867843,2.3166058533953833
1.9427312775330399,2.2930627944756647
1.9625550660792954,2.2771580422148023
1.982378854625551,2.26911607407763
2.002202643171806,2.2690532783391495
2.0220264317180616,2.2769718932865572
2.041850220264317,2.292759904797826
2.061674008810573,2.316196914529559
2.0814977973568287,2.3469652468783977
2.1013215859030843,2.38466497951981
2.1211453744493394,2.4288312694889704
2.140969162995595,2.478952330966046
2.1607929515418505,2.534486650698088
2.180616740088106,2.5948784046349216
2.2004405286343616,2.6595704600517287
2.220264317180617,2.7280147287798466
2.2400881057268722,2.7996799319085817
2.2599118942731278,2.87405703034558
2.2797356828193833,2.950662677983619
2.299559471365639,3.0290410856519494
2.319383259911895,3.1087646678830976
2.3392070484581504,3.189433801346212
2.3590308370044055,3.2706759690755494
2.378854625550661,3.352144508628238
2.3986784140969166,3.433517130967632
2.418502202643172,3.5144943329699947
2.4383259911894277,3.59479779073878
2.4581497797356833,3.6741687929583327
2.4779735682819384,3.7523667523365267
2.497797356828194,3.8291678175937176
2.5176211453744495,3.9043635972995245
2.537444933920705,3.9777599991165657
2.5572687224669606,4.049176182828477
2.577092511013216,4.118443622223966
2.5969162995594717,4.185405268950593
2.6167400881057272,4.2499148104374
2.6365638766519828,4.311836013617917
2.6563876651982383,4.371042146245086
2.676211453744494,4.427415467922155
2.6960352422907494,4.480846783467706
2.715859030837005,4.531235051813827
2.73568281938326,4.578487044250688
2.7555066079295156,4.622517046447452
2.775330396475771,4.663246599274481
2.7951541850220267,4.7006042740156495
2.8149779735682823,4.734525478083363
2.834801762114538,4.764952287832634
2.854625550660793,4.791833305512627
2.874449339207049,4.81512353779823
2.8942731277533045,4.834784293711866
2.91409691629956,4.850783100082827
2.9339207048458156,4.863093632998995
2.953744493392071,4.871695663990712
2.9735682819383262,4.876575019951076
2.993392070484582,4.877723556045699
3.0132158590308373,4.87513914110147
3.033039647577093,4.868825655192718
3.0528634361233484,4.8587929993666
3.072687224669604,4.845057117673306
3.092511013215859,4.827640031891856
3.1123348017621146,4.806569889575327
3.1321585903083706,4.781881026281528
3.151982378854626,4.7536140431123695
3.1718061674008817,4.721815900959976
3.1916299559471373,4.686540033154447
3.2114537444933924,4.647846478532313
3.231277533039648,4.605802037297711
3.2511013215859035,4.560480452437789
3.270925110132159,4.511962619879473
3.2907488986784146,4.460336831043055
3.31057268722467,4.405699051957886
3.3303964757709252,4.348153243658659
3.350220264317181,4.2878117291718665
3.3700440528634363,4.224795613024282
3.389867841409692,4.15923525984243
3.4096916299559474,4.091270839238135
3.4295154185022034,4.021052944751146
3.4493392070484585,3.9487432950826906
3.469162995594714,3.874515526116116
3.4889867841409696,3.7985560821512614
3.508810572687225,3.7210652141977008
3.5286343612334807,3.64225809182396
3.5484581497797363,3.562366032601839
3.5682819383259914,3.4816378491541298
3.588105726872247,3.400341307607111
3.6079295154185025,3.3187646820934154
3.627753303964758,3.2372183768957727
3.6475770925110136,3.1560365697503205
3.667400881057269,3.075578805514897
3.6872246696035247,2.99623143767349
3.7070484581497802,2.9184087751353656
3.726872246696036,2.8425537434415236
3.7466960352422913,2.7691378142942775
3.7665198237885464,2.6986598993040007
3.7863436123348024,2.631643850799589
3.8061674008810575,2.5686341772202974
3.8259911894273135,2.5101895812755037
3.8458149779735686,2.4568739886195248
3.8656387665198246,2.4092448771656945
3.8854625550660797,2.3678389600721585
3.905286343612335,2.3331556195936094
3.925110132158591,2.3056389061770766
3.9449339207048464,2.285659342441543
3.964757709251102,2.2734971071652654
3.9845814977973575,2.269328310370988
4.004405286343612,2.273215922076606
4.024229074889869,2.285106463919019
4.044052863436123,2.3048328818620383
4.06387665198238,2.33212323361013
4.083700440528634,2.3666141221098367
4.103524229074891,2.4078673344179204
4.123348017621146,2.455387976198759
4.143171806167401,2.508642511171933
4.162995594713657,2.567075440121664
4.182819383259912,2.63012377630804
4.2026431718061685,2.697228893879376
4.222466960352423,2.7678456758371537
4.242290748898679,2.841449137777793
4.262114537444934,2.9175388521925334
4.28193832599119,2.9956415624782675
4.301762114537445,3.0753123797441173
4.321585903083701,3.1561349220659105
4.3414096916299565,3.237720703654112
4.361233480176212,3.3197080235474923
4.381057268722468,3.4017605480085664
4.400881057268723,3.4835657320138034
4.420704845814979,3.5648331847173558
4.440528634361234,3.6452930515485265
4.46035242290749,3.724694460860584
4.4801762114537445,3.8028040646177748
4.500000000000001,3.8794046892644714
4.5198237885462555,3.954294103539994
4.539647577092512,4.027283903624715
4.559471365638767,4.098198511845386
4.579295154185023,4.16687428261586
4.599118942731278,4.233158707875114
4.618942731277533,4.29690971365486
4.63876651982379,4.357995039307559
4.658590308370044,4.41629169116504
4.678414096916301,4.471685462847142
4.6982378854625555,4.524070515005936
4.718061674008811,4.573349007912485
4.737885462555067,4.619430780927338
4.757709251101322,4.662233073517408
4.777533039647578,4.701680283073223
4.797356828193833,4.73770375533479
4.817180616740089,4.7702416037456405
4.837004405286344,4.799238554524183
4.856828193832599,4.824645814669555
4.876651982378855,4.8464209605095725
4.896475770925111,4.864527844753772
4.9162995594713665,4.878936520339853
4.936123348017622,4.889623179660316
4.955947136563877,4.896570108032746
4.975770925110133,4.899765650535235
4.995594713656388,4.899204191572752
5.015418502202644,4.894886146774095
5.035242290748899,4.886817967046404
5.055066079295155,4.8750121548389105
5.07488986784141,4.859487292893536
5.094713656387666,4.84026808599011
5.114537444933921,4.817385416433412
5.134361233480177,4.790876414280505
5.154185022026432,4.76078454357518
5.174008810572688,4.727159706144685
5.193832599118943,4.690058364828
5.213656387665199,4.649543688347182
5.2334801762114544,4.6056857204104045
5.25330396475771,4.5585615760489855
5.2731277533039655,4.508255668646632
5.292951541850221,4.454859971618614
5.312775330396477,4.398474319244152
5.332599118942731,4.339206751744648
5.352422907488988,4.277173910329555
5.372246696035242,4.212501488589446
5.392070484581499,4.145324747283185
5.4118942731277535,4.075789100212505
5.43171806167401,4.004050779453583
5.451541850220265,3.9302775886490284
5.47136563876652,3.854649753248881
5.491189427312777,3.7773608763732707
5.511013215859031,3.6986190081371166
5.530837004405288,3.6186478345339497
5.550660792951542,3.537687988916409
5.570484581497798,3.4559984842010194
5.5903083700440535,3.3738582564652817
5.610132158590309,3.2915677997139077
5.6299559471365646,3.209450856195779
5.64977973568282,3.127856105518353
5.669603524229076,3.047158767628124
5.689427312775331,2.967761998337197
5.709251101321586,2.890097910813144
5.729074889867842,2.814628002767403
5.748898678414098,2.74184270944025
5.768722466960353,2.6722597425548433
5.788546255506609,2.6064208254025094
5.808370044052864,2.5448864099622464
5.82819383259912,2.4882279850369837
5.848017621145375,2.437017680142753
5.867841409691631,2.391815062028765
5.887665198237886,2.3531513218704054
5.907488986784142,2.3215114503552137
5.927312775330397,2.2973154487153926
5.9471365638766525,2.2809000406724826
5.966960352422908,2.2725026202722534
5.986784140969164,2.27224918414626
6.00660792951542,2.2801476907383407
6.026431718061675,2.2960876838606024
6.04625550660793,2.319846226659666
6.066079295154186,2.3510993905052344
6.085903083700441,2.389437910814105
6.105726872246697,2.4343852803542863
6.125550660792952,2.485416530771514
6.145374449339208,2.5419761994681
6.1651982378854635,2.6034943849643524
6.185022026431718,2.6694002451855012
6.204845814977975,2.739132700382392
6.224669603524229,2.812148415009228
6.244493392070486,2.887927336493599
6.264317180616741,2.9659761741030946
6.284140969162996,3.04583023102364
6.303964757709252,3.127053982750529
6.323788546255507,3.209240747052335
6.3436123348017635,3.292011731554107
6.363436123348018,3.3750146851589378
6.3832599118942746,3.4579223251756894
6.403083700440529,3.540430665899255
6.422907488986785,3.6222573371270554
6.44273127753304,3.703139952123437
6.462555066079296,3.7828345627322513
6.482378854625551,3.8611142233946434
6.502202643171807,3.9377676745059333
6.5220264317180625,4.012598147757009
6.541850220264318,4.0854222909482685
6.561674008810574,4.156069206524212
6.581497797356829,4.224379596202402
6.601321585903085,4.290205003146218
6.62114537444934,4.353407142850787
6.640969162995596,4.41385731405323
6.6607929515418505,4.471435881383688
6.680616740088107,4.526031822032266
6.700440528634362,4.577542329342533
6.720264317180618,4.625872466904593
6.740088105726873,4.67093486737622
6.759911894273129,4.712649470890121
6.779735682819384,4.7509432984966296
6.799559471365639,4.7857502566385905
6.819383259911895,4.817010969158407
6.83920704845815,4.844672633795576
6.859030837004407,4.868688900550383
6.8788546255506615,4.889019769669055
6.898678414096917,4.905631507351361
6.918502202643173,4.918496577597895
6.938325991189428,4.927593588905737
6.958149779735684,4.9329072547915365
6.977973568281939,4.934428367375053
6.997797356828195,4.932153783497434
7.01762114537445,4.926086423081514
7.037444933920705,4.9162352796693405
7.0572687224669615,4.902615443299501
7.077092511013216,4.885248136117022
7.096916299559473,4.864160761345751
7.116740088105728,4.83938696650121
7.136563876651983,4.810966721984526
7.156387665198239,4.778946416480462
7.176211453744494,4.743378970888028
7.19603524229075,4.704323972846083
7.215859030837005,4.661847834283088
7.235682819383261,4.616023974823916
7.255506607929516,4.566933034332961
7.275330396475772,4.514663118363992
7.295154185022027,4.459310080827488
7.314977973568283,4.400977848775665
7.334801762114538,4.339778794842832
7.354625550660794,4.275834163557563
7.374449339207049,4.209274558450145
7.394273127753305,4.140240497592124
7.4140969162995605,4.068883045886276
7.433920704845816,3.9953645330180936
7.453744493392072,3.9198593663989167
7.473568281938327,3.8425549485487562
7.493392070484583,3.7636527080061652
7.513215859030838,3.6833692517596655
7.533039647577093,3.601937645021923
7.552863436123348,3.519608820442759
7.572687224669605,3.436653112952086
7.59251101321586,3.3533619075288086
7.612334801762115,3.2700493742877548
7.6321585903083715,3.1870542471410577
7.651982378854627,3.1047415775427027
7.671806167400882,3.02350436206412
7.691629955947137,2.943764900621238
7.711453744493394,2.8659756906683507
7.731277533039649,2.7906196026816428
7.751101321585904,2.7182090174825118
7.7709251101321595,2.649283544105534
7.790748898678416,2.584405891165051
7.81057268722467,2.524155454574384
7.830396475770926,2.4691192354030655
7.850220264317182,2.419879841374016
7.870044052863436,2.3770005764974025
7.889867841409693,2.341007990796952
7.909691629955948,2.3123727196899884
7.929515418502204,2.2914899220748013
7.9493392070484585,2.278661019380609
7.969162995594715,2.274078618633031
7.9889867841409705,2.277816368407716
8.008810572687224,2.2898250158167195
8.02863436123348,2.3099351745143086
8.048458149779737,2.3378664386955195
8.068281938325994,2.373241687517001
8.088105726872246,2.415604889942301
8.107929515418503,2.4644405277037307
8.12775330396476,2.5191928877363345
8.147577092511014,2.5792838412123635
8.167400881057269,2.644128198873778
8.187224669603525,2.713146198650085
8.207048458149782,2.785773066211215
8.226872246696036,2.8614658594243427
8.246696035242293,2.939707964570592
8.266519823788547,3.020011676118937
8.286343612334802,3.101919290299264
8.306167400881058,3.1850031016992952
8.325991189427315,3.268864632196865
8.345814977973568,3.353133356884206
8.365638766519824,3.437465130748771
8.38546255506608,3.521540467012898
8.405286343612337,3.605062774646628
8.42511013215859,3.687756628439519
8.444933920704846,3.769366119087925
8.464757709251103,3.849653311648628
8.484581497797357,3.9283968270389957
8.504405286343614,4.00539055177998
8.524229074889869,4.080442474832171
8.544052863436125,4.153373646325372
8.56387665198238,4.224017250575284
8.583700440528636,4.29221778452266
8.60352422907489,4.357830332254682
8.623348017621145,4.420719926309505
8.643171806167402,4.480760986832516
8.662995594713658,4.5378368302139815
8.682819383259913,4.591839239500942
8.702643171806168,4.642668089579474
8.722466960352424,4.690231020827199
8.74229074889868,4.734443155615348
8.762114537444935,4.775226852679524
8.78193832599119,4.812511494972676
8.801762114537446,4.84623330715861
8.821585903083701,4.876335199401583
8.841409691629957,4.902766634558331
8.861233480176212,4.925483516288717
8.881057268722468,4.944448095971932
8.900881057268723,4.959628896654163
8.92070484581498,4.971000652563165
8.940528634361234,4.978544263011081
8.960352422907489,4.982246759773709
8.980176211453745,4.982101287285328
9.000000000000002,4.978107095228943
9.019823788546258,4.970269543335184
9.039647577092511,4.958600118433652
9.059471365638768,4.943116464032467
9.079295154185024,4.923842422938253
9.099118942731279,4.9008080936749625
9.118942731277533,4.874049901719269
9.13876651982379,4.843610686847207
9.158590308370046,4.80953980818641
9.1784140969163,4.771893268894627
9.198237885462555,4.730733862743801
9.218061674008812,4.6861313452852
9.237885462555067,4.638162632708519
9.257709251101323,4.58691203199389
9.27753303964758,4.532471506491608
9.297356828193834,4.474940981656172
9.317180616740089,4.414428696307446
9.337004405286345,4.351051605491838
9.356828193832602,4.284935841762426
9.376651982378855,4.216217242473327
9.396475770925111,4.145041951464734
9.416299559471367,4.071567104256692
9.436123348017622,3.99596160650554
9.455947136563877,3.918407015905934
9.475770925110133,3.8390985377968696
9.49559471365639,3.7582461442401582
9.515418502202644,3.6760758249889527
9.5352422907489,3.592830976139692
9.555066079295155,3.508773927808964
9.57488986784141,3.4241876051577664
9.594713656387666,3.3393773065469965
9.614537444933923,3.254672567360403
9.634361233480178,3.1704290566579396
9.654185022026432,3.0870304247548446
9.674008810572689,3.0048899815194874
9.693832599118945,2.92445203650409
9.713656387665198,2.846192672849324
9.733480176211454,2.770619659127317
9.75330396475771,2.6982711321733612
9.773127753303967,2.629712619797204
9.792951541850222,2.565531931951597
9.812775330396477,2.506331456633102
9.832599118942733,2.452717482401855
9.852422907488988,2.4052863631614483
9.872246696035244,2.3646076627489694
9.892070484581499,2.3312048616105154
9.911894273127754,2.3055347290790853
9.93171806167401,2.2879669675297625
9.951541850220266,2.278766085790234
9.971365638766521,2.2780775221236125
9.991189427312776,2.2859197248613414
10.011013215859032,2.3021832228964545
10.030837004405289,2.32663680551466
10.050660792951543,2.3589399905276185
10.070484581497798,2.398660210361963
10.090308370044054,2.4452927391878347
10.11013215859031,2.498281360011616
10.129955947136565,2.5570380621356343
10.14977973568282,2.620960537030324
10.169603524229077,2.689446766641064
10.189427312775331,2.7619064665555646
10.209251101321588,2.83776949945544
10.229074889867842,2.916491597876881
10.248898678414099,2.9975578447827798
10.268722466960353,3.0804843845977867
10.28854625550661,3.1648188067215557
10.308370044052865,3.2501395838431546
10.32819383259912,3.3360548772295715
10.348017621145376,3.4222009522944767
10.367841409691632,3.508240386494819
10.387665198237887,3.593860200529567
10.407488986784141,3.678770003206134
10.427312775330398,3.762700209247319
10.447136563876654,3.84540036626221
10.466960352422909,3.926637610525922
10.486784140969164,4.006195259650649
10.50660792951542,4.0838715424436325
10.526431718061675,4.159478461231636
10.546255506607931,4.232840778902623
10.566079295154186,4.303795121277999
10.585903083700442,4.372189184741968
10.605726872246697,4.437881038997124
10.625550660792953,4.500738515158056
10.645374449339208,4.560638669976657
10.665198237885463,4.617467317703639
10.685022026431719,4.671118621855874
10.704845814977975,4.721494739930622
10.724669603524232,4.7685055148547875
10.744493392070485,4.812068207662598
10.764317180616741,4.85210726654969
10.784140969162998,4.888554128051276
10.803964757709252,4.921347046638153
