Frequency (Hz),Amplitude
0.0,0.8232618996937635
0.019801980198019802,0.823992440575378
0.039603960396039604,0.8261774029810711
0.0594059405940594,0.8297969919014433
0.07920792079207921,0.8348188219851652
0.09900990099009901,0.8411987841681872
0.1188118811881188,0.8488821785642223
0.13861386138613863,0.8578050446751826
0.15841584158415842,0.8678956142933858
0.1782178217821782,0.879075813831766
0.19801980198019803,0.8912627500361032
0.21782178217821782,0.9043701243291594
0.2376237623762376,0.9183095344674018
0.25742574257425743,0.9329916359812954
0.27722772277227725,0.948327148636422
0.297029702970297,0.9642277039920926
0.31683168316831684,0.9806065386078384
0.33663366336633666,0.9973790434966845
0.3564356435643564,1.0144631842525962
0.37623762376237624,1.0317798082424383
0.39603960396039606,1.0492528557669634
0.4158415841584158,1.0668094915653727
0.43564356435643564,1.0843801718244035
0.45544554455445546,1.101898660246785
0.4752475247524752,1.1193020049589397
0.495049504950495,1.1365304862507102
0.5148514851485149,1.1535275434454229
0.5346534653465347,1.1702396876573686
0.5544554455445545,1.1866164058361397
0.5742574257425742,1.2026100603309953
0.594059405940594,1.2181757872274601
0.613861386138614,1.2332713958980999
0.6336633663366337,1.2478572715512175
0.6534653465346534,1.2618962820340376
0.6732673267326733,1.2753536897322042
0.6930693069306931,1.2881970690847169
0.7128712871287128,1.300396229988025
0.7326732673267327,1.3119231471790729
0.7524752475247525,1.3227518955531274
0.7722772277227723,1.3328585912776916
0.7920792079207921,1.3422213385004516
0.8118811881188118,1.350820181409541
0.8316831683168316,1.3586370613841807
0.8514851485148516,1.3656557789665371
0.8712871287128713,1.3718619603903315
0.891089108910891,1.3772430284135826
0.9108910891089109,1.3817881772206877
0.9306930693069307,1.3854883511814042
0.9504950495049505,1.3883362272794664
0.9702970297029703,1.3903262010507949
0.99009900990099,1.3914543759000568
1.00990099009901,1.3917185556938971
1.0297029702970297,1.3911182405597442
1.0495049504950495,1.3896546258493814
1.0693069306930694,1.3873306042575864
1.0891089108910892,1.384150771116865
1.108910891089109,1.3801214329202083
1.1287128712871286,1.3752506191539882
1.1485148514851484,1.3695480975536696
1.1683168316831685,1.3630253929237117
1.188118811881188,1.355695809691673
1.2079207920792079,1.347574458392612
1.227722772277228,1.3386782863042208
1.2475247524752475,1.329026112473323
1.2673267326732673,1.3186386673904207
1.2871287128712872,1.307538637577706
1.3069306930693068,1.2957507153562684
1.3267326732673268,1.2833016540463813
1.3465346534653466,1.2702203288270169
1.3663366336633662,1.2565378034326204
1.3861386138613863,1.2422874027901905
1.405940594059406,1.2275047915908521
1.4257425742574257,1.2122280586380887
1.4455445544554455,1.1964978066082859
1.4653465346534653,1.1803572465860588
1.4851485148514851,1.1638522963808253
1.504950495049505,1.1470316811754675
1.5247524752475248,1.1299470344840827
1.5445544554455446,1.1126529966817638
1.5643564356435644,1.095207307498741
1.5841584158415842,1.077670887821738
1.6039603960396038,1.0601079049110858
1.6237623762376237,1.0425858137160116
1.6435643564356437,1.0251753653735587
1.6633663366336633,1.007950572245175
1.683168316831683,0.9909886170592651
1.7029702970297032,0.9743696920079123
1.7227722772277227,0.9581767521753145
1.7425742574257426,0.9424951667004912
1.7623762376237624,0.927412250915946
1.782178217821782,0.9130166637359309
1.801980198019802,0.8993976572037485
1.8217821782178218,0.8866441697478599
1.8415841584158414,0.8748437616454932
1.8613861386138615,0.8640814005648599
1.881188118811881,0.8544381166593644
1.900990099009901,0.8459895599096906
1.920792079207921,0.838804506167231
1.9405940594059405,0.8329433711018162
1.9603960396039604,0.8284568011383061
1.98019801980198,0.8253844155700935
2.0,0.8237537727762246
2.01980198019802,0.8235796249740173
2.0396039603960396,0.8248635103819756
2.0594059405940595,0.8275937103840151
2.0792079207920793,0.8317455746397269
2.099009900990099,0.8372821920743114
2.118811881188119,0.844155363373827
2.1386138613861387,0.8523068135616654
2.1584158415841586,0.8616695730380476
2.1782178217821784,0.8721694525650795
2.1980198019801978,0.8837265414266481
2.217821782178218,0.8962566669300803
2.237623762376238,0.9096727656741544
2.257425742574257,0.9238861306865658
2.2772277227722775,0.938807511997443
2.297029702970297,0.9543480602679062
2.3168316831683167,0.9704201130157513
2.336633663366337,0.9869378304932732
2.3564356435643563,1.003817693427116
2.376237623762376,1.0209788778989546
2.3960396039603964,1.038343524012531
2.4158415841584158,1.0558369150733398
2.4356435643564356,1.0733875831897564
2.455445544554456,1.0909273558236279
2.4752475247524752,1.1083913561372667
2.495049504950495,1.1257179681992011
2.514851485148515,1.1428487763586093
2.5346534653465347,1.159728486464265
2.5544554455445545,1.1763048351361014
2.5742574257425743,1.1925284920167947
2.594059405940594,1.2083529588399888
2.6138613861386135,1.223734468239688
2.633663366336634,1.2386318844771562
2.6534653465346536,1.2530066076565658
2.673267326732673,1.2668224825192353
2.6930693069306932,1.2800457125287166
2.712871287128713,1.2926447796678968
2.7326732673267324,1.3045903701484578
2.7524752475247527,1.3158553060694531
2.7722772277227725,1.3264144829434432
2.792079207920792,1.3362448129269051
2.811881188118812,1.345325173537283
2.8316831683168315,1.3536363616073765
2.8514851485148514,1.3611610522126238
2.8712871287128716,1.3678837623039837
2.891089108910891,1.3737908187868537
2.910891089108911,1.3788703308001877
2.9306930693069306,1.383112165969777
2.9504950495049505,1.386507930432708
2.9702970297029703,1.3890509524559074
2.99009900990099,1.3907362694991896
3.00990099009901,1.3915606186023775
3.0297029702970297,1.3915224300057456
3.0495049504950495,1.3906218239427839
3.0693069306930694,1.3888606105756167
3.089108910891089,1.3862422930731213
3.108910891089109,1.3827720738630163
3.128712871287129,1.3784568641192914
3.148514851485148,1.373305296576395
3.1683168316831685,1.3673277417913339
3.1881188118811883,1.36053632800307
3.2079207920792077,1.3529449647664087
3.227722772277228,1.3445693705623558
3.2475247524752473,1.335427104609907
3.267326732673267,1.3255376031228392
3.2871287128712874,1.3149222202680644
3.3069306930693068,1.3036042740886136
3.3267326732673266,1.2916090976498085
3.346534653465347,1.2789640956506267
3.366336633663366,1.2656988067079773
3.386138613861386,1.2518449714648303
3.4059405940594063,1.2374366065883717
3.4257425742574257,1.2225100846018568
3.4455445544554455,1.2071042193262433
3.4653465346534653,1.1912603564814868
3.485148514851485,1.1750224687002087
3.504950495049505,1.1584372538226089
3.5247524752475248,1.1415542348522876
3.5445544554455446,1.1244258593402312
3.564356435643564,1.1071075952078577
3.5841584158415842,1.0896580191008807
3.603960396039604,1.0721388922688728
3.6237623762376234,1.054615217681579
3.6435643564356437,1.0371552706266016
3.6633663366336635,1.019830593406726
3.683168316831683,1.0027159430203734
3.702970297029703,0.9858891789541248
3.722772277227723,0.9694310765820024
3.7425742574257423,0.9534250503517288
3.762376237623762,0.9379567702090991
3.7821782178217824,0.9231136549037874
3.801980198019802,0.9089842273177512
3.8217821782178216,0.8956573201694794
3.841584158415842,0.8832211257440781
3.8613861386138613,0.8717620909305818
3.881188118811881,0.8613636688408447
3.9009900990099013,0.8521049503240454
3.9207920792079207,0.8440592120337411
3.9405940594059405,0.8372924311305254
3.96039603960396,0.8318618285787797
3.98019801980198,0.8278145114426742
4.0,0.8251862877875594
4.01980198019802,0.8240007243700647
4.03960396039604,0.8242685066932738
4.0594059405940595,0.8259871437327392
4.079207920792079,0.8291410373559979
4.099009900990099,0.8337019117261323
4.118811881188119,0.8396295738269687
4.138613861386139,0.8468729555910522
4.158415841584159,0.855371373213523
4.178217821782178,0.865055931332952
4.198019801980198,0.8758509989483853
4.217821782178218,0.8876756893130829
4.237623762376238,0.9004452860095603
4.257425742574258,0.9140725700853859
4.2772277227722775,0.9284690166991867
4.297029702970297,0.94354584269973
4.316831683168317,0.9592148978955103
4.336633663366336,0.975389401894372
4.356435643564357,0.9919845351296253
4.376237623762377,1.0089178971632708
4.3960396039603955,1.0261098478774104
4.415841584158416,1.0434837481231387
4.435643564356436,1.0609661161975525
4.455445544554455,1.0784867155342468
4.475247524752476,1.0959785875284056
4.4950495049504955,1.113378041717882
4.514851485148514,1.1306246137795606
4.534653465346535,1.1476610000979233
4.554455445544555,1.164432976090992
4.574257425742574,1.1808893040795359
4.594059405940594,1.196981635271458
4.613861386138614,1.2126644094045196
4.633663366336633,1.2278947547344163
4.653465346534653,1.2426323903550345
4.673267326732674,1.256839532273839
4.693069306930693,1.270480804217977
4.712871287128713,1.2835231537968617
4.732673267326733,1.2959357743787638
4.752475247524752,1.307690032835726
4.772277227722772,1.318759403161884
4.792079207920793,1.329119405862874
4.811881188118812,1.3387475529404875
4.8316831683168315,1.347623298249228
4.851485148514852,1.3557279929739177
4.871287128712871,1.363044845966164
4.891089108910891,1.3695588886771608
4.910891089108912,1.3752569444334166
4.930693069306931,1.3801276018170785
4.9504950495049505,1.3841611919331305
4.97029702970297,1.3873497693685701
4.99009900990099,1.3896870966754922
5.00990099009901,1.391168632236689
5.02970297029703,1.3917915214020258
5.0495049504950495,1.3915545908124372
5.069306930693069,1.3904583458589308
5.089108910891089,1.3885049712538133
5.108910891089109,1.3856983347214822
5.128712871287129,1.382043993846598
5.148514851485149,1.3775492061471042
5.1683168316831685,1.3722229424693506
5.188118811881188,1.3660759038313601
5.207920792079208,1.3591205418686128
5.227722772277227,1.351371083062924
5.247524752475248,1.3428435569598958
5.267326732673268,1.333555828601838
5.2871287128712865,1.3235276354205667
5.306930693069307,1.3127806288463235
5.326732673267327,1.3013384208933065
5.346534653465346,1.2892266359759095
5.366336633663367,1.2764729681901263
5.3861386138613865,1.2631072442568527
5.405940594059405,1.2491614922629712
5.425742574257426,1.234670016245272
5.445544554455446,1.2196694765342142
5.465346534653465,1.2041989755979003
5.485148514851486,1.188300148891685
5.504950495049505,1.1720172599098835
5.524752475247524,1.1553972982387157
5.544554455445545,1.1384900789054562
5.564356435643565,1.121348340688552
5.584158415841584,1.1040278402783823
5.603960396039604,1.0865874382392482
5.623762376237624,1.0690891716067144
5.643564356435643,1.0515983066527268
5.663366336633663,1.0341833638722495
5.683168316831684,1.0169161056144083
5.702970297029703,0.9998714750565648
5.7227722772277225,0.9831274734945662
5.742574257425743,0.9667649613467153
5.762376237623762,0.9508673670464194
5.782178217821782,0.9355202874069772
5.801980198019803,0.9208109634176485
5.821782178217822,0.9068276171613231
5.841584158415841,0.8936586390306098
5.861386138613861,0.8813916200121372
5.881188118811881,0.8701122317282713
5.900990099009901,0.8599029671489061
5.920792079207921,0.8508417670442726
5.9405940594059405,0.8430005705350287
5.96039603960396,0.8364438412383147
5.98019801980198,0.8312271318458166
6.0,0.8273957576404051
6.01980198019802,0.8249836517114588
6.03960396039604,0.8240124702070402
6.0594059405940595,0.8244910044565551
6.079207920792079,0.8264149388909311
6.099009900990099,0.8297669711532321
6.118811881188119,0.834517286255552
6.138613861386139,0.8406243530993107
6.158415841584159,0.8480359919484237
6.178217821782178,0.8566906476332562
6.198019801980198,0.8665187964303939
6.217821782178218,0.8774444146557044
6.237623762376237,0.8893864430200772
6.257425742574258,0.9022601911009436
6.2772277227722775,0.9159786390153223
6.297029702970296,0.9304536067829925
6.316831683168317,0.9455967745246915
6.336633663366337,0.9613205475839945
6.356435643564356,0.9775387693818547
6.376237623762377,0.9941672911817181
6.396039603960396,1.0111244121105276
6.415841584158415,1.0283312050642048
6.435643564356436,1.0457117449176283
6.455445544554456,1.0631932551544527
6.475247524752475,1.0807061879899276
6.495049504950495,1.098184251576911
6.514851485148515,1.1155643961914736
6.534653465346534,1.1327867695560943
6.554455445544554,1.1497946497877558
6.574257425742575,1.1665343629230964
6.594059405940594,1.1829551906093971
6.6138613861386135,1.19900927237052
6.633663366336634,1.2146515058591736
6.653465346534653,1.229839447677187
6.673267326732673,1.2445332166687615
6.693069306930694,1.2586954010462987
6.712871287128713,1.272290970276915
6.732673267326732,1.2852871923206173
6.752475247524753,1.2976535565523704
6.772277227722772,1.3093617025053896
6.792079207920792,1.3203853544294333
6.811881188118813,1.3307002615551748
6.8316831683168315,1.3402841438855682
6.851485148514851,1.3491166432901005
6.871287128712871,1.3571792796521844
6.891089108910891,1.3644554118096395
6.910891089108911,1.370930203028808
6.930693069306931,1.37659059076241
6.9504950495049505,1.3814252604565225
6.97029702970297,1.385424623192555
6.99009900990099,1.3885807969733766
7.00990099009901,1.3908875914884844
7.02970297029703,1.3923404962207802
7.0495049504950495,1.3929366717854819
7.069306930693069,1.3926749444214863
7.089108910891089,1.39155580358454
7.108910891089109,1.3895814026219087
7.128712871287128,1.386755562537881
7.148514851485149,1.3830837788896568
7.1683168316831685,1.378573231882822
7.188118811881187,1.3732327997652434
7.207920792079208,1.3670730756471268
7.227722772277228,1.3601063879031696
7.247524752475247,1.3523468243395422
7.267326732673268,1.3438102603332915
7.287128712871287,1.3345143911741506
7.306930693069306,1.3244787688567181
7.326732673267327,1.313724843584034
7.346534653465347,1.3022760102492257
7.366336633663366,1.290157660157214
7.3861386138613865,1.2773972382314454
7.405940594059406,1.2640243059152958
7.425742574257425,1.250070609921105
7.445544554455446,1.2355701568933652
7.465346534653466,1.2205592939295917
7.485148514851485,1.2050767947332013
7.504950495049505,1.1891639509448946
7.524752475247524,1.1728646679000685
7.544554455445544,1.1562255636730525
7.564356435643565,1.1392960697769468
7.584158415841584,1.1221285312718137
7.603960396039604,1.1047783032730782
7.623762376237624,1.0873038399283763
7.643564356435643,1.0697667708284389
7.663366336633663,1.05223195852852
7.683168316831684,1.034767529384698
7.702970297029703,1.0174448682787762
7.7227722772277225,1.0003385660674697
7.742574257425743,0.9835263068376784
7.762376237623762,0.9670886804204407
7.782178217821782,0.9511089043134069
7.801980198019803,0.9356724384539441
7.821782178217822,0.9208664765093065
7.841584158415841,0.906779298892429
7.861386138613862,0.8934994759817521
7.881188118811881,0.8811149153872968
7.900990099009901,0.8697117548095258
7.92079207920792,0.8593731120977945
7.9405940594059405,0.8501777162067289
7.96039603960396,0.8421984561088729
7.980198019801979,0.8355008981189799
8.0,0.8301418338694534
8.01980198019802,0.826167929470293
8.03960396039604,0.8236145493789958
8.05940594059406,0.8225048248424489
8.07920792079208,0.8228490259282195
8.099009900990099,0.8246442786965567
8.118811881188119,0.8278746466675455
8.138613861386139,0.832511570996323
8.158415841584159,0.8385146397183411
8.178217821782178,0.8458326359662031
8.198019801980198,0.8544048004191399
8.217821782178218,0.8641622356194654
8.237623762376238,0.8750293792314574
8.257425742574258,0.886925478887132
8.277227722772277,0.8997660113535757
8.297029702970297,0.9134640014817356
8.316831683168317,0.9279312099535463
8.336633663366337,0.9430791717539405
8.356435643564357,0.9588200785378795
8.376237623762377,0.9750675070806584
8.396039603960396,0.991737002635134
8.415841584158416,1.0087465304045125
8.435643564356436,1.0260168107853003
8.455445544554456,1.0434715549387605
8.475247524752476,1.0610376170112048
8.495049504950495,1.078645078314267
8.514851485148515,1.0962272773000057
8.534653465346535,1.1137207974617276
8.554455445544555,1.1310654235320483
8.574257425742575,1.1482040746534108
8.594059405940595,1.1650827216327941
8.613861386138613,1.1816502940024085
8.633663366336634,1.1978585814033795
8.653465346534654,1.2136621327893764
8.673267326732672,1.229018156099318
8.693069306930694,1.2438864203544697
8.712871287128714,1.2582291615781749
8.732673267326732,1.2720109934933046
8.752475247524753,1.2851988236078031
8.772277227722773,1.2977617750329207
8.792079207920791,1.3096711141790196
8.811881188118813,1.3209001843261998
8.831683168316832,1.331424344961651
8.85148514851485,1.3412209167030724
8.871287128712872,1.3502691315809827
8.891089108910892,1.3585500884260955
8.91089108910891,1.3660467130967195
8.930693069306932,1.3727437232813104
8.950495049504951,1.3786275976204336
8.97029702970297,1.3836865489075683
8.990099009900991,1.3879105011486872
9.00990099009901,1.3912910702833958
9.029702970297029,1.3938215483969036
9.04950495049505,1.3954968912788992
9.06930693069307,1.3963137092147797
9.089108910891088,1.3962702609231477
9.10891089108911,1.3953664505841978
9.12871287128713,1.393603827933352
9.148514851485148,1.3909855914247895
9.16831683168317,1.3875165945005346
9.188118811881187,1.3832033550307758
9.207920792079207,1.3780540680219113
9.227722772277229,1.3720786217187153
9.247524752475247,1.365288617256956
9.267326732673267,1.3576973920513946
9.287128712871288,1.3493200471319091
9.306930693069306,1.3401734786655415
9.326732673267326,1.3302764139250884
9.346534653465348,1.3196494519826563
9.366336633663366,1.3083151094190217
9.386138613861386,1.296297871343357
9.405940594059407,1.2836242480104434
9.425742574257425,1.2703228373006235
9.445544554455445,1.2564243932855368
9.465346534653467,1.2419619010355019
9.485148514851485,1.2269706577238224
9.504950495049505,1.2114883599410309
9.524752475247526,1.1955551969359182
9.544554455445544,1.179213949238851
9.564356435643564,1.1625100917781055
9.584158415841586,1.1454919001565056
9.603960396039604,1.1282105581915944
9.623762376237623,1.1107202641173541
9.643564356435645,1.0930783319768218
9.663366336633663,1.075345283683489
9.683168316831683,1.057584925978792
9.702970297029704,1.0398644050593528
9.722772277227723,1.0222542299998618
9.742574257425742,1.0048282542919944
9.762376237623764,0.9876636029263085
9.782178217821782,0.9708405305802273
9.801980198019802,0.9544421948199938
9.821782178217823,0.9385543270251102
9.841584158415841,0.9232647833260783
9.861386138613861,0.9086629586042756
9.881188118811881,0.8948390489767072
9.900990099009901,0.8818831526181864
9.92079207920792,0.8698842056178042
9.94059405940594,0.8589287590009319
9.96039603960396,0.8490996149364906
9.98019801980198,0.8404743539257334
10.0,0.8331237993539033
10.01980198019802,0.8271104795942431
10.03960396039604,0.822487158917278
10.05940594059406,0.8192955147066515
10.07920792079208,0.8175650381286338
10.099009900990099,0.8173122273887182
10.118811881188119,0.818540127065706
10.138613861386139,0.8212382450394387
10.158415841584159,0.8253828526641488
10.178217821782178,0.8309376472708386
10.198019801980198,0.8378547321305522
10.217821782178218,0.8460758504908669
10.237623762376238,0.8555337990154851
10.257425742574258,0.8661539424647177
10.277227722772277,0.8778557551129285
10.297029702970297,0.8905543236754669
10.316831683168317,0.9041617594074596
10.336633663366337,0.9185884814926358
10.356435643564357,0.9337443480942377
10.376237623762377,0.9495396241968335
10.396039603960396,0.9658857858536415
10.415841584158416,0.9826961683675559
10.435643564356436,0.999886471334512
10.455445544554454,1.0173751366628618
10.475247524752476,1.0350836170660374
10.495049504950495,1.052936552555165
10.514851485148514,1.0708618715506786
10.534653465346535,1.0887908317409885
10.554455445544555,1.1066580140222295
10.574257425742573,1.1244012809620396
10.594059405940595,1.1419617093833767
10.613861386138614,1.1592835049501657
10.633663366336632,1.1763139051033702
10.653465346534654,1.193003075364313
10.673267326732674,1.2093040028911466
