Frequency (Hz),Amplitude
0.0,12.211777199077911
0.019823788546255508,12.21246728602733
0.039647577092511016,12.214534473416132
0.059471365638766524,12.217969557741819
0.07929515418502203,12.22275725592979
0.09911894273127755,12.228876288939102
0.11894273127753305,12.236299497741385
0.13876651982378857,12.244993990627266
0.15859030837004406,12.254921320526535
0.17841409691629956,12.266037690784062
0.1982378854625551,12.278294187613199
0.2180616740088106,12.291637037260147
0.2378854625550661,12.306007885752203
0.25770925110132165,12.321344098977729
0.27753303964757714,12.337579080751674
0.29735682819383263,12.354642606460427
0.31718061674008813,12.372461169851581
0.3370044052863437,12.390958340535994
0.3568281938325991,12.410055129800288
0.37665198237885467,12.429670362384615
0.3964757709251102,12.449721051958884
0.41629955947136565,12.470122778131122
0.4361233480176212,12.490790062935739
0.4559471365638767,12.511636744879661
0.4757709251101322,12.532576348761834
0.49559471365638774,12.553522449627277
0.5154185022026433,12.574389029366595
0.5352422907488987,12.595090824620534
0.5550660792951543,12.615543664799201
0.5748898678414097,12.635664799169387
0.5947136563876653,12.655373212102997
0.6145374449339208,12.674589925712569
0.6343612334801763,12.693238289222442
0.6541850220264318,12.711244254540356
0.6740088105726874,12.728536637597943
0.6938325991189428,12.745047365123321
0.7136563876651982,12.760711706593295
0.7334801762114539,12.775468491185405
0.7533039647577093,12.78926030961384
0.7731277533039648,12.802033700785815
0.7929515418502204,12.813739323258668
0.8127753303964759,12.824332111512438
0.8325991189427313,12.833771417079213
0.8524229074889869,12.842021134587808
0.8722466960352424,12.849049812794954
0.8920704845814978,12.854830750678136
0.9118942731277534,12.859342078665161
0.931718061674009,12.862566825070244
0.9515418502202644,12.864492967796453
0.9713656387665199,12.86511347135208
0.9911894273127755,12.864426309213076
1.0110132158590308,12.862434471546315
1.0308370044052866,12.859145958290725
1.0506607929515421,12.854573757574117
1.0704845814977975,12.848735809426339
1.090308370044053,12.841654954731023
1.1101321585903086,12.833358869345018
1.1299559471365639,12.823879983299985
1.1497797356828194,12.813255384993512
1.1696035242290752,12.801526710271004
1.1894273127753305,12.788740016300364
1.209251101321586,12.774945640147086
1.2290748898678416,12.760198041969804
1.248898678414097,12.744555632775844
1.2687224669603525,12.728080586704134
1.288546255506608,12.710838637838712
1.3083700440528636,12.692898861602185
1.3281938325991192,12.674333440833207
1.3480176211453747,12.655217416718768
1.36784140969163,12.635628424827347
1.3876651982378856,12.615646416577547
1.4074889867841411,12.595353366574106
1.4273127753303965,12.574832966352222
1.4471365638766522,12.554170305190803
1.4669603524229078,12.533451538783009
1.4867841409691631,12.512763546690524
1.5066079295154187,12.492193579651776
1.5264317180616742,12.471828897965066
1.5462555066079295,12.451756402321214
1.5660792951541853,12.432062258615156
1.5859030837004409,12.412831518421074
1.6057268722466962,12.394147736964653
1.6255506607929517,12.376092590569945
1.6453744493392073,12.358745495690403
1.6651982378854626,12.342183231752442
1.6850220264317182,12.326479570141451
1.7048458149779737,12.311704911740863
1.7246696035242293,12.297925935491289
1.7444933920704848,12.285205260467018
1.7643171806167404,12.273601123967117
1.7841409691629957,12.263167078086571
1.8039647577092512,12.253951707169042
1.8237885462555068,12.24599836844321
1.8436123348017623,12.239344958012142
1.863436123348018,12.234023704198556
1.8832599118942732,12.230060990050413
1.9030837004405288,12.227477206583398
1.9229074889867843,12.226286638081508
1.9427312775330399,12.226497380501252
1.9625550660792954,12.228111293728054
1.982378854625551,12.231123988125912
2.002202643171806,12.235524845505559
2.0220264317180616,12.241297074316906
2.041850220264317,12.248417798558489
2.061674008810573,12.256858179590218
2.0814977973568287,12.266583569745315
2.1013215859030843,12.277553696365294
2.1211453744493394,12.289722874635132
2.140969162995595,12.303040247373696
2.1607929515418505,12.317450049746148
2.180616740088106,12.332891896705659
2.2004405286343616,12.349301090848806
2.220264317180617,12.366608948278488
2.2400881057268722,12.384743140012308
2.2599118942731278,12.40362804645068
2.2797356828193833,12.423185122426888
2.299559471365639,12.443333270397511
2.319383259911895,12.463989219394115
2.3392070484581504,12.485067907442726
2.3590308370044055,12.50648286526267
2.378854625550661,12.52814659917772
2.3986784140969166,12.549970971307221
2.418502202643172,12.571867575248033
2.4383259911894277,12.593748105608723
2.4581497797356833,12.615524719910262
2.4779735682819384,12.637110391521036
2.497797356828194,12.658419252445912
2.5176211453744495,12.679366924935739
2.537444933920705,12.699870841025449
2.5572687224669606,12.71985054924195
2.577092511013216,12.739228007847865
2.5969162995594717,12.757927864102323
2.6167400881057272,12.775877719124189
2.6365638766519828,12.79300837803749
2.6563876651982383,12.809254085161056
2.676211453744494,12.824552744077447
2.6960352422907494,12.838846122477044
2.715859030837005,12.852080041724816
2.73568281938326,12.864204551138958
2.7555066079295156,12.875174087002478
2.775330396475771,12.884947616353331
2.7951541850220267,12.89348876561412
2.8149779735682823,12.90076593413109
2.834801762114538,12.906752392695303
2.854625550660793,12.911426367114812
2.874449339207049,12.914771106898863
2.8942731277533045,12.91677493910333
2.91409691629956,12.917431307370466
2.9339207048458156,12.916738796178116
2.953744493392071,12.914701140293824
2.9735682819383262,12.911327219407923
2.993392070484582,12.90663103789823
3.0132158590308373,12.900631689658656
3.033039647577093,12.893353307903464
3.0528634361233484,12.884824999841669
3.072687224669604,12.875080766101231
3.092511013215859,12.864159404770735
3.1123348017621146,12.85210439991956
3.1321585903083706,12.838963794455845
3.151982378854626,12.82479004718528
3.1718061674008817,12.809639873945246
3.1916299559471373,12.793574072707536
3.2114537444933924,12.776657332569938
3.231277533039648,12.758958026593817
3.2511013215859035,12.740547988491256
3.270925110132159,12.721502273222418
3.2907488986784146,12.701898901632877
3.31057268722467,12.681818589339482
3.3303964757709252,12.661344460166891
3.350220264317181,12.640561744539351
3.3700440528634363,12.619557463349171
3.389867841409692,12.598420097950184
3.4096916299559474,12.57723924706214
3.4295154185022034,12.556105271520455
3.4493392070484585,12.535108927961193
3.469162995594714,12.514340992694493
3.4889867841409696,12.493891877186915
3.508810572687225,12.473851236742906
3.5286343612334807,12.454307574144684
3.5484581497797363,12.435347840175357
3.5682819383259914,12.417057033107966
3.588105726872247,12.39951779939088
3.6079295154185025,12.382810037892984
3.627753303964758,12.36701051018637
3.6475770925110136,12.35219245943651
3.667400881057269,12.33842524053667
3.6872246696035247,12.3257739641605
3.7070484581497802,12.31429915741175
3.726872246696036,12.304056443720427
3.7466960352422913,12.295096244569518
3.7665198237885464,12.287463505532505
3.7863436123348024,12.281197448961457
3.8061674008810575,12.276331355487905
3.8259911894273135,12.272892376285808
3.8458149779735686,12.270901377800241
3.8656387665198246,12.270372820371188
3.8854625550660797,12.271314671881708
3.905286343612335,12.273728357240591
3.925110132158591,12.277608744175515
3.9449339207048464,12.282944165470632
3.964757709251102,12.289716477437779
3.9845814977973575,12.297901154070647
4.004405286343612,12.30746741600149
4.024229074889869,12.318378393065503
4.044052863436123,12.330591318987237
4.06387665198238,12.344057756436422
4.083700440528634,12.358723850465976
4.103524229074891,12.374530608142813
4.123348017621146,12.391414202015453
4.143171806167401,12.409306294933732
4.162995594713657,12.428134383643446
4.182819383259912,12.447822158524273
4.2026431718061685,12.46828987681924
4.222466960352423,12.489454746719069
4.242290748898679,12.511231319708973
4.262114537444934,12.533531888659612
4.28193832599119,12.556266889240248
4.301762114537445,12.579345302351754
4.321585903083701,12.602675055411591
4.3414096916299565,12.626163420471508
4.361233480176212,12.649717407306841
4.381057268722468,12.673244149779995
4.400881057268723,12.696651283947359
4.420704845814979,12.719847316544545
4.440528634361234,12.742741982648742
4.46035242290749,12.765246591474032
4.4801762114537445,12.7872743594068
4.500000000000001,12.808740729529037
4.5198237885462555,12.829563677010547
4.539647577092512,12.84966399987056
4.559471365638767,12.86896559471872
4.579295154185023,12.887395717183551
4.599118942731278,12.904885226821012
4.618942731277533,12.921368816369707
4.63876651982379,12.93678522528165
4.658590308370044,12.951077437508348
4.678414096916301,12.964192863562307
4.6982378854625555,12.976083506905159
4.718061674008811,12.986706114734622
4.737885462555067,12.996022313256212
4.757709251101322,13.003998727530368
4.777533039647578,13.01060708598529
4.797356828193833,13.015824309677257
4.817180616740089,13.01963258636912
4.837004405286344,13.022019429479188
4.856828193832599,13.022977721933765
4.876651982378855,13.02250574493196
4.896475770925111,13.020607191606713
4.9162995594713665,13.017291165539472
4.936123348017622,13.012572164058549
4.955947136563877,13.006470046224425
4.975770925110133,12.99900998538025
4.995594713656388,12.990222406121482
5.015418502202644,12.980142905517921
5.035242290748899,12.968812158404571
5.055066079295155,12.956275806544705
5.07488986784141,12.942584331461013
5.094713656387666,12.927792910730517
5.114537444933921,12.911961257544741
5.134361233480177,12.89515344335145
5.154185022026432,12.877437703418252
5.174008810572688,12.858886225191961
5.193832599118943,12.839574919372998
5.213656387665199,12.81958317368068
5.2334801762114544,12.798993589354254
5.25330396475771,12.777891700517667
5.2731277533039655,12.756365676631635
5.292951541850221,12.73450600836674
5.312775330396477,12.712405177355077
5.332599118942731,12.690157310415529
5.352422907488988,12.667857818997849
5.372246696035242,12.645603024754392
5.392070484581499,12.623489772320113
5.4118942731277535,12.601615030565531
5.43171806167401,12.580075483775659
5.451541850220265,12.55896711440165
5.47136563876652,12.538384779226806
5.491189427312777,12.51842178098084
5.511013215859031,12.499169437622335
5.530837004405288,12.48071665168566
5.550660792951542,12.46314948224949
5.570484581497798,12.446550722225961
5.5903083700440535,12.430999483788213
5.610132158590309,12.416570794843743
5.6299559471365646,12.40333520951889
5.64977973568282,12.39135843564199
5.669603524229076,12.380700982195146
5.689427312775331,12.37141782964644
5.709251101321586,12.363558125972252
5.729074889867842,12.357164911034937
5.748898678414098,12.35227487179228
5.768722466960353,12.348918130586053
5.788546255506609,12.347118068488488
5.808370044052864,12.346891185382493
5.82819383259912,12.348246998117816
5.848017621145375,12.351187977727895
5.867841409691631,12.35570952631654
5.887665198237886,12.36179999383646
5.907488986784142,12.369440734591775
5.927312775330397,12.378606202909626
5.9471365638766525,12.389264087050401
5.966960352422908,12.401375480068555
5.986784140969164,12.414895086002492
6.00660792951542,12.429771459468899
6.026431718061675,12.4459472764678
6.04625550660793,12.46335963397553
6.066079295154186,12.481940375712687
6.085903083700441,12.501616441328961
6.105726872246697,12.522310236143326
6.125550660792952,12.543940018517324
6.145374449339208,12.566420301920687
6.1651982378854635,12.58966226876688
6.185022026431718,12.6135741931515
6.204845814977975,12.638061869713171
6.224669603524229,12.663029045950793
6.244493392070486,12.68837785546918
6.264317180616741,12.71400924978183
6.284140969162996,12.739823426471045
6.303964757709252,12.76572025168708
6.323788546255507,12.791599675155759
6.3436123348017635,12.817362136053728
6.363436123348018,12.842908958299292
6.3832599118942746,12.868142733991432
6.403083700440529,12.892967693907364
6.422907488986785,12.917290064137726
6.44273127753304,12.941018408097095
6.462555066079296,12.964063953293497
6.482378854625551,12.986340902373946
6.502202643171807,13.007766728083151
6.5220264317180625,13.028262451878948
6.541850220264318,13.047752906039433
6.561674008810574,13.066166979176794
6.581497797356829,13.083437845137814
6.601321585903085,13.099503175324323
6.62114537444934,13.114305334508398
6.640969162995596,13.127791560246802
6.6607929515418505,13.139914126019576
6.680616740088107,13.150630488227604
6.700440528634362,13.159903417186566
6.720264317180618,13.16770111224826
6.740088105726873,13.173997301168642
6.759911894273129,13.178771323822984
6.779735682819384,13.182008200346235
6.799559471365639,13.183698683748034
6.819383259911895,13.1838392970228
6.83920704845815,13.182432354740595
6.859030837004407,13.179485969071138
6.8788546255506615,13.175014040156713
6.898678414096917,13.169036230715115
6.918502202643173,13.161577924717767
6.938325991189428,13.152670169957041
6.958149779735684,13.142349604284027
6.977973568281939,13.130658365273357
6.997797356828195,13.117643983047516
7.01762114537445,13.103359255977047
7.037444933920705,13.087862108962161
7.0572687224669615,13.071215433998784
7.077092511013216,13.053486912736922
7.096916299559473,13.034748820756334
7.116740088105728,13.01507781330949
7.136563876651983,12.994554692321707
7.156387665198239,12.973264154489065
7.176211453744494,12.951294520382012
7.19603524229075,12.92873744454218
7.215859030837005,12.905687606657928
7.235682819383261,12.882242384017342
7.255506607929516,12.858501505566835
7.275330396475772,12.834566688052037
7.295154185022027,12.810541254879118
7.314977973568283,12.786529738516073
7.334801762114538,12.762637467446007
7.354625550660794,12.738970138892594
7.374449339207049,12.715633378754896
7.394273127753305,12.692732290415714
7.4140969162995605,12.670370994317615
7.433920704845816,12.648652160433535
7.453744493392072,12.627676535986858
7.473568281938327,12.60754247099627
7.493392070484583,12.588345444427944
7.513215859030838,12.570177593925411
7.533039647577093,12.553127252251292
7.552863436123348,12.537278493708525
7.572687224669605,12.52271069390734
7.59251101321586,12.509498106301638
7.612334801762115,12.49770945893191
7.6321585903083715,12.487407574776663
7.651982378854627,12.478649019027968
7.671806167400882,12.471483776469107
7.691629955947137,12.4659549619401
7.711453744493394,12.462098566636207
7.731277533039649,12.459943242692013
7.751101321585904,12.459510128168692
7.7709251101321595,12.460812714186712
7.790748898678416,12.4638567555376
7.81057268722467,12.468640225675115
7.830396475770926,12.475153316535533
7.850220264317182,12.483378483177306
7.870044052863436,12.493290532773315
7.889867841409693,12.504856757040162
7.909691629955948,12.518037106760817
7.929515418502204,12.5327844066541
7.9493392070484585,12.549044608477455
7.969162995594715,12.566757079921343
7.9889867841409705,12.58585492657265
8.008810572687224,12.60626534399058
8.02863436123348,12.627909996757978
8.048458149779737,12.650705421240609
8.068281938325994,12.67456344870984
8.088105726872246,12.699391645455291
8.107929515418503,12.725093766534089
8.12775330396476,12.751570219864455
8.147577092511014,12.778718537473672
8.167400881057269,12.806433850844376
8.187224669603525,12.834609367467413
8.207048458149782,12.863136845894953
8.226872246696036,12.89190706679212
8.246696035242293,12.920810297700418
8.266519823788547,12.949736749450068
8.286343612334802,12.978577022382462
8.306167400881058,13.007222540769156
8.325991189427315,13.035565974029778
8.345814977973568,13.063501643563129
8.365638766519824,13.090925914202206
8.38546255506608,13.117737569490561
8.405286343612337,13.14383817014699
8.42511013215859,13.169132395241535
8.444933920704846,13.193528365743123
8.464757709251103,13.216937950222333
8.484581497797357,13.239277052597007
8.504405286343614,13.260465881898961
8.524229074889869,13.280429204112465
8.544052863436125,13.29909657619488
8.56387665198238,13.316402562434027
8.583700440528636,13.332286933329163
8.60352422907489,13.346694847201315
8.623348017621145,13.359577014748282
8.643171806167402,13.370889846758065
8.662995594713658,13.380595585184114
8.682819383259913,13.388662417768495
8.702643171806168,13.395064576373633
8.722466960352424,13.399782419153103
8.74229074889868,13.402802496655992
8.762114537444935,13.404117601919888
8.78193832599119,13.403726804564343
8.801762114537446,13.401635468852184
8.821585903083701,13.397855255638172
8.841409691629957,13.392404108078946
8.861233480176212,13.385306220929333
8.881057268722468,13.37659199320577
8.900881057268723,13.366297963952812
8.92070484581498,13.354466730808547
8.940528634361234,13.34114685102744
8.960352422907489,13.326392724588217
8.980176211453745,13.310264458988422
9.000000000000002,13.292827715310056
9.019823788546258,13.27415353513111
9.039647577092511,13.254318147859454
9.059471365638768,13.23340275807752
9.079295154185024,13.211493312512127
9.099118942731279,13.188680246283267
9.118942731277533,13.165058208141485
9.13876651982379,13.140725764475897
9.158590308370046,13.115785081965985
9.1784140969163,13.090341588860461
9.198237885462555,13.064503614997536
9.218061674008812,13.038382010831823
9.237885462555067,13.012089745906339
9.257709251101323,12.985741487401183
9.27753303964758,12.959453159604193
9.297356828193834,12.9333414853818
9.317180616740089,12.907523510977962
9.337004405286345,12.882116115733028
9.356828193832602,12.857235508590202
9.376651982378855,12.832996713539506
9.396475770925111,12.809513046434114
9.416299559471367,12.7868955858957
9.436123348017622,12.765252641297934
9.455947136563877,12.744689221073816
9.475770925110133,12.725306504826522
9.49559471365639,12.707201322927112
9.515418502202644,12.690465647449034
9.5352422907489,12.675186098411764
9.555066079295155,12.661443469378101
9.57488986784141,12.6493122764654
9.594713656387666,12.638860334786246
9.614537444933923,12.630148366225628
9.634361233480178,12.623229642287544
9.654185022026432,12.618149665503886
9.674008810572689,12.61494589259536
9.693832599118945,12.613647502209986
9.713656387665198,12.614275209646582
9.733480176211454,12.616841130504385
9.75330396475771,12.621348694695554
9.773127753303967,12.627792611723395
9.792951541850222,12.636158887577606
9.812775330396477,12.646424893040878
9.832599118942733,12.6585594826478
9.852422907488988,12.672523163002772
9.872246696035244,12.688268308655733
9.892070484581499,12.705739423265262
9.911894273127754,12.724873443356062
9.93171806167401,12.745600081609012
9.951541850220266,12.767842206312109
9.971365638766521,12.791516253354844
9.991189427312776,12.816532666966276
10.011013215859032,12.842796365280593
10.030837004405289,12.870207226760606
10.050660792951543,12.898660593515872
10.070484581497798,12.928047787614373
10.090308370044054,12.95825663659942
10.11013215859031,12.989172004578982
10.129955947136565,13.020676325448806
10.14977973568282,13.05265013503337
10.169603524229077,13.084972599175652
10.189427312775331,13.11752203506891
10.209251101321588,13.150176423396111
10.229074889867842,13.182813909117922
10.248898678414099,13.215313289024662
10.268722466960353,13.247554484434593
10.28854625550661,13.27941899767784
10.308370044052865,13.310790351248222
10.32819383259912,13.341554508731972
10.348017621145376,13.371600276830186
10.367841409691632,13.400819687980691
10.387665198237887,13.429108363252984
10.407488986784141,13.456365855337701
10.427312775330398,13.482495971578631
10.447136563876654,13.50740707710265
10.466960352422909,13.531012378190825
10.486784140969164,13.55323018610306
10.50660792951542,13.573984161621802
10.526431718061675,13.593203540615962
10.546255506607931,13.61082334094929
10.566079295154186,13.626784551065239
10.585903083700442,13.64103430057772
10.605726872246697,13.65352601318288
10.625550660792953,13.664219542183833
10.645374449339208,13.673081288888682
