Time (s),Filtered Signal
0.0,0.018046847688135945
0.03337008452774715,0.8008958807210087
0.0667401690554943,1.4383396286186834
0.10011025358324147,1.8351030138976585
0.1334803381109886,1.9736073360330144
0.16685042263873576,1.9088457202769544
0.20022050716648293,1.7356922458965942
0.23359059169423008,1.5459889056342704
0.2669606762219772,1.395115870544556
0.30033076074972437,1.2905743081855527
0.3337008452774715,1.2032748377275755
0.36707092980521866,1.0920728678654053
0.40044101433296586,0.9281031625006108
0.433811098860713,0.7084214639168444
0.46718118338846015,0.4556482056711334
0.5005512679162073,0.20737669546756587
0.5339213524439544,0.002526255319147306
0.5672914369717016,-0.12933828400863856
0.6006615214994487,-0.17359622756280157
0.6340316060271959,-0.13245378500283317
0.667401690554943,-0.025368659102268307
0.7007717750826902,0.11148849203476466
0.7341418596104373,0.22857285560800042
0.7675119441381845,0.27147847223592275
0.8008820286659317,0.19484175535350817
0.8342521131936789,-0.02180178125023562
0.867622197721426,-0.3623987390147301
0.9009922822491732,-0.7730746236038941
0.9343623667769203,-1.1738835097422793
0.9677324513046675,-1.4811330112254057
1.0011025358324146,-1.633002346898541
1.0344726203601617,-1.6089507959593112
1.0678427048879089,-1.4350116641500497
1.101212789415656,-1.1722801530363796
1.1345828739434032,-0.8929189681082773
1.1679529584711503,-0.6537595077605647
1.2013230429988975,-0.4789567659724338
1.2346931275266446,-0.3588242147481619
1.2680632120543918,-0.2637087809855286
1.301433296582139,-0.16401060054526329
1.334803381109886,-0.04484121434687894
1.3681734656376332,0.09190865547115612
1.4015435501653803,0.23676665732459165
1.4349136346931275,0.3845229661272513
1.4682837192208746,0.5389337963784395
1.5016538037486218,0.7062596031619826
1.535023888276369,0.8823209869512727
1.568393972804116,1.0432775421959872
1.6017640573318634,1.1486861774924322
1.6351341418596106,1.1575678250780477
1.6685042263873577,1.0494499083725626
1.7018743109151049,0.8384581633531648
1.735244395442852,0.571962768127591
1.7686144799705992,0.3137630731225979
1.8019845644983463,0.12010166445350434
1.8353546490260935,0.02018029911480517
1.8687247335538406,0.0097409888765842
1.9020948180815878,0.05886860665189225
1.935464902609335,0.1278758740423263
1.968834987137082,0.18198753906433965
2.002205071664829,0.19800100203097598
2.0355751561925763,0.1622965867332787
2.0689452407203235,0.06544628295177048
2.1023153252480706,-0.09957082198171587
2.1356854097758178,-0.3320327148338271
2.169055494303565,-0.6138970582281792
2.202425578831312,-0.9037187109432869
2.235795663359059,-1.141496845142318
2.2691657478868064,-1.2660837647342769
2.3025358324145535,-1.2387992817485372
2.3359059169423007,-1.0616820088989447
2.369276001470048,-0.7799023524965384
2.402646085997795,-0.4651651727304638
2.436016170525542,-0.18669442778649828
2.4693862550532892,0.016705890099446244
2.5027563395810364,0.14991608059338365
2.5361264241087835,0.25351819593273067
2.5694965086365307,0.37862063360647463
2.602866593164278,0.5572254668153193
2.636236677692025,0.7830209558668457
2.669606762219772,1.011942937261494
2.7029768467475193,1.1815738311288848
2.7363469312752664,1.238937321862792
2.7697170158030135,1.162568745201966
2.8030871003307607,0.9687007992960242
2.836457184858508,0.7004862156459587
2.869827269386255,0.4080103128397577
2.903197353914002,0.13043945362018683
2.9365674384417493,-0.11155305485902993
2.9699375229694964,-0.3122552264186744
3.0033076074972436,-0.47191835507358665
3.0366776920249907,-0.5897195943127858
3.070047776552738,-0.6628835461450409
3.103417861080485,-0.6908678156055325
3.136787945608232,-0.6799802638268765
3.1701580301359793,-0.6440436822708135
3.203528114663727,-0.5999729860000493
3.236898199191474,-0.5608049458577206
3.270268283719221,-0.5304101618417175
3.3036383682469683,-0.503008461826798
3.3370084527747155,-0.46766508476305346
3.3703785373024626,-0.41504879696268066
3.4037486218302098,-0.3425217758104953
3.437118706357957,-0.25468903453803626
3.470488790885704,-0.159231516607828
3.503858875413451,-0.060722656146301804
3.5372289599411983,0.04341824567195582
3.5705990444689455,0.16162357216594642
3.6039691289966926,0.3013724433749761
3.63733921352444,0.460295903652249
3.670709298052187,0.6205032787943566
3.704079382579934,0.7502979171630855
3.7374494671076812,0.8137289708666744
3.7708195516354284,0.7842390755344619
3.8041896361631755,0.6564104086618164
3.8375597206909227,0.4506255387196435
3.87092980521867,0.20865599678775776
3.904299889746417,-0.018080205825134216
3.937669974274164,-0.18333818450957526
3.9710400588019112,-0.259116828875901
4.004410143329658,-0.24317326023697444
4.0377802278574055,-0.15898758326606433
4.071150312385153,-0.04820548446380545
4.1045203969129,0.04242391922288417
4.137890481440647,0.0758685430236981
4.171260565968394,0.03670118548251529
4.204630650496141,-0.06413985356985763
4.238000735023888,-0.19371913437421417
4.2713708195516356,-0.3092797546077493
4.304740904079383,-0.37375291285523116
4.33811098860713,-0.3685999551575822
4.371481073134877,-0.29893618468293554
4.404851157662624,-0.1890693914919501
4.438221242190371,-0.07066931087432847
4.471591326718118,0.03107833442658108
4.504961411245866,0.10724545269445991
4.538331495773613,0.16676553825012896
4.57170158030136,0.2295114374097258
4.605071664829107,0.31422565573897693
4.638441749356854,0.4267465837340723
4.671811833884601,0.553567913519809
4.7051819184123485,0.6632865349384758
4.738552002940096,0.7152632779919817
4.771922087467843,0.6723335253539298
4.80529217199559,0.5134682287681097
4.838662256523337,0.24270770351583684
4.872032341051084,-0.10822488786580733
4.905402425578831,-0.4848739188491871
4.9387725101065785,-0.8220587993111795
4.972142594634326,-1.0601934557855894
5.005512679162073,-1.16109514413593
5.03888276368982,-1.1178259818444218
5.072252848217567,-0.9548640947447519
5.105622932745314,-0.7186549816452451
5.138993017273061,-0.4625689157611845
5.1723631018008085,-0.23235263555762098
5.205733186328556,-0.05719946519945218
5.239103270856303,0.0518009160174015
5.27247335538405,0.09784291130237983
5.305843439911797,0.09322866395317798
5.339213524439544,0.05601600061002488
5.372583608967291,0.008766837762643519
5.4059536934950385,-0.02306622509874467
5.439323778022786,-0.015872587926841857
5.472693862550533,0.044218983841483046
5.50606394707828,0.15406185034657677
5.539434031606027,0.29234917620760387
5.572804116133774,0.42767929946980265
5.606174200661521,0.5332422134066783
5.6395442851892685,0.600385466504792
5.672914369717016,0.642583706533601
5.706284454244763,0.6862084703680889
5.73965453877251,0.7523386935748995
5.773024623300257,0.8398099968308245
5.806394707828004,0.9198456418269927
5.839764792355751,0.9465116128420399
5.873134876883499,0.8782898450766279
5.906504961411246,0.699471054954089
5.939875045938993,0.4297541702812195
5.97324513046674,0.11672301806647399
6.006615214994487,-0.18475756639640886
6.039985299522234,-0.43506704548528913
6.073355384049981,-0.6223347781922615
6.106725468577729,-0.7589609227619862
6.140095553105476,-0.8654200963696546
6.173465637633223,-0.9517354701249194
6.20683572216097,-1.0079594979788007
6.240205806688717,-1.0093854627675867
6.273575891216464,-0.9334285054569512
6.3069459757442115,-0.7781932137145058
6.340316060271959,-0.5714669086353661
6.373686144799706,-0.36384402930327886
6.407056229327454,-0.20825045906149256
6.440426313855201,-0.1358507762421261
6.473796398382948,-0.1410389464809448
6.507166482910695,-0.18409680897122463
6.540536567438442,-0.2108645789627667
6.5739066519661895,-0.179272996234873
6.607276736493937,-0.07844200080845753
6.640646821021684,0.0698651524946415
6.674016905549431,0.22739039461732408
6.707386990077178,0.36275977277465044
6.740757074604925,0.4676881099150918
6.774127159132672,0.5563979977985226
6.8074972436604195,0.649276587020598
6.840867328188167,0.7516921221223605
6.874237412715914,0.842032805858097
6.907607497243661,0.8775877888171771
6.940977581771408,0.8161700551691968
6.974347666299155,0.6417127851611794
7.007717750826902,0.37908527789144725
7.0410878353546495,0.08882672610541022
7.074457919882397,-0.15666506858350765
7.107828004410144,-0.30381032605815983
7.141198088937891,-0.3399115269209403
7.174568173465638,-0.29570726597256797
7.207938257993385,-0.2278136736085331
7.241308342521132,-0.19070807350111746
7.27467842704888,-0.21259164134907824
7.308048511576627,-0.28636430375334115
7.341418596104374,-0.37827159451281545
7.374788680632121,-0.44766718555509677
7.408158765159868,-0.4666808144434783
7.441528849687615,-0.43031521360514985
7.4748989342153624,-0.35382847443179627
7.50826901874311,-0.26117685482775205
7.541639103270857,-0.17208951216511387
7.575009187798604,-0.09457026946482885
7.608379272326351,-0.025463514167265614
7.641749356854098,0.04307118359404817
7.675119441381845,0.11613360811203956
7.7084895259095925,0.19228414660401624
7.74185961043734,0.2650311240192652
7.775229694965087,0.327753564573282
7.808599779492834,0.3782031349750807
7.841969864020581,0.41929907705339753
7.875339948548328,0.45556106881419023
7.908710033076075,0.48749379989848746
7.9420801176038225,0.5076955202964246
7.97545020213157,0.5015647782163859
8.008820286659317,0.4528473206472212
8.042190371187063,0.35150957815271683
8.075560455714811,0.20008417222548983
8.108930540242557,0.015294144975679956
8.142300624770305,-0.17608266404938105
8.175670709298052,-0.34560908407830426
8.2090407938258,-0.4725056223477065
8.242410878353546,-0.5500943102470741
8.275780962881294,-0.586654491864477
8.30915104740904,-0.6002084482656257
8.342521131936788,-0.6093089610186733
8.375891216464534,-0.623743939936247
8.409261300992283,-0.6393471701727249
8.442631385520029,-0.6395102366471588
8.476001470047777,-0.6030346229028731
8.509371554575523,-0.514897417473774
8.542741639103271,-0.3748576537387631
8.57611172363102,-0.1996317297532079
8.609481808158765,-0.01743907911234354
8.642851892686513,0.14245861502068055
8.67622197721426,0.2601721247769358
8.709592061742008,0.33089704743017906
8.742962146269754,0.3641622458516845
8.776332230797502,0.37829576564746203
8.809702315325248,0.39358052524135023
8.843072399852996,0.42685780674257134
8.876442484380743,0.48817071488590497
8.90981256890849,0.5784482869573949
8.943182653436237,0.6875240717520724
8.976552737963985,0.7934735671963122
9.009922822491731,0.8654836153920944
9.04329290701948,0.8716157957562646
9.076662991547225,0.7899918818558006
9.110033076074973,0.6190032726180198
9.14340316060272,0.3813901235085273
9.176773245130468,0.1193131745520112
9.210143329658214,-0.11835642633499231
9.243513414185962,-0.29172947490756
9.276883498713708,-0.38254771722600234
9.310253583241456,-0.39915360854812215
9.343623667769203,-0.3721399733872208
9.37699375229695,-0.34233156129779074
9.410363836824697,-0.3453756846812784
9.443733921352445,-0.3985167759464042
9.477104005880191,-0.4945665450582499
9.51047409040794,-0.6054923430254385
9.543844174935685,-0.6941418040118178
9.577214259463434,-0.7290719077544905
9.61058434399118,-0.6961283335096773
9.643954428518928,-0.6021879943106031
9.677324513046674,-0.47043877094371794
9.710694597574422,-0.3304912504175791
9.744064682102168,-0.2083360155386545
9.777434766629916,-0.1200054398396884
9.810804851157663,-0.06994147074893367
9.84417493568541,-0.05255082763797427
9.877545020213157,-0.05467858880616382
9.910915104740905,-0.05775206679878887
9.944285189268651,-0.04000588154966221
9.9776552737964,0.019848231928567703
10.011025358324146,0.13664848406483168
10.044395442851894,0.31142749452691326
10.07776552737964,0.5256202931043354
10.111135611907388,0.7406506772044514
10.144505696435134,0.9054141877099003
10.177875780962882,0.9708646078210378
10.211245865490628,0.9070963590093973
10.244615950018376,0.7161546742975682
10.277986034546123,0.43477489763497296
10.31135611907387,0.12511005112937557
10.344726203601617,-0.14363813094860414
10.378096288129365,-0.3162756544244303
10.411466372657111,-0.368234119081597
10.44483645718486,-0.3125202314919424
10.478206541712606,-0.19501447768864447
10.511576626240354,-0.07941137223495917
10.5449467107681,-0.025739138938660443
10.578316795295848,-0.06835190958865435
10.611686879823594,-0.2004313839638156
10.645056964351342,-0.3716518844984888
10.678427048879088,-0.5027014299711168
10.711797133406836,-0.5145114462689666
10.745167217934583,-0.36289679924425217
10.77853730246233,-0.06428870628146828
10.811907386990077,0.30096212607645983
10.845277471517825,0.6132390880487514
10.878647556045571,0.7592092961400593
10.91201764057332,0.679987507387841
10.945387725101066,0.40006214468921664
10.978757809628814,0.022111903099336583
11.01212789415656,-0.31218263857120265
11.045497978684308,-0.479318028281655
11.078868063212054,-0.4242739895705857
11.112238147739802,-0.18193238501206108
11.145608232267548,0.13919313310800716
11.178978316795297,0.4027876566047122
11.212348401323043,0.4996054739662254
11.24571848585079,0.38841901038550736
11.279088570378537,0.10768253548338995
11.312458654906285,-0.24429525524252602
11.345828739434031,-0.5502903787051651
11.37919882396178,-0.7186696506342415
11.412568908489526,-0.7141941583841704
11.445938993017274,-0.5646709255199489
11.47930907754502,-0.3432822522114012
11.512679162072768,-0.13599274105691578
11.546049246600514,-0.008488188156426489
11.579419331128262,0.014261018242335203
11.612789415656009,-0.050474954564820755
11.646159500183757,-0.15807079968778293
11.679529584711503,-0.25878559363445025
11.71289966923925,-0.3167797706960641
11.746269753766997,-0.31889096135666156
11.779639838294745,-0.272262229141436
11.813009922822491,-0.19507044723411043
11.84638000735024,-0.10634788529421864
11.879750091877986,-0.019135766211286837
11.913120176405734,0.06204355137566556
11.94649026093348,0.14069170903233275
11.979860345461228,0.22627428989885187
12.013230429988974,0.330863745672278
12.046600514516722,0.4639684802149381
12.079970599044469,0.6257932971121763
12.113340683572217,0.8010810424106631
12.146710768099963,0.9571549106668358
12.180080852627711,1.0493085061109477
12.213450937155457,1.033947564786522
12.246821021683205,0.8859682595471373
12.280191106210951,0.6136708222603376
12.3135611907387,0.26383992198272366
12.346931275266446,-0.08763574012953884
12.380301359794194,-0.3585744220935481
12.41367144432194,-0.48918978526773477
12.447041528849688,-0.4648986842751683
12.480411613377434,-0.3225036023168801
12.513781697905182,-0.1358268072985981
12.547151782432929,0.013399269369768253
12.580521866960677,0.06622314764764861
12.613891951488423,0.005038727306067172
12.647262036016171,-0.14691391422238978
12.680632120543917,-0.3419611886196059
12.714002205071665,-0.5297483307988455
12.747372289599411,-0.6730985509825458
12.78074237412716,-0.7525429003633692
12.814112458654908,-0.7620272490952602
12.847482543182654,-0.7030589867866055
12.880852627710402,-0.5833310031300224
12.914222712238148,-0.4201716021012853
12.947592796765896,-0.24361543231902816
12.980962881293642,-0.09277880516364245
13.01433296582139,-0.0035010907476487924
13.047703050349137,0.008082966078368488
13.081073134876885,-0.04306777461645833
13.114443219404631,-0.11261864823664867
13.147813303932379,-0.14345221407753272
13.181183388460125,-0.09076348010371613
13.214553472987873,0.0561071376803803
13.24792355751562,0.26628070855319874
13.281293642043368,0.47891928031729364
13.314663726571114,0.6288573580896483
13.348033811098862,0.6740852440341139
13.381403895626608,0.6118178157402615
13.414773980154356,0.4757813530964188
13.448144064682102,0.3170964214727541
13.48151414920985,0.17941880219403927
13.514884233737597,0.08136298563241406
13.548254318265345,0.014596797726386014
13.581624402793091,-0.04285410753894678
13.614994487320839,-0.10672303214002224
13.648364571848585,-0.17191323831030594
13.681734656376333,-0.2119094639133257
13.71510474090408,-0.1931235393517536
13.748474825431828,-0.09674803013716932
13.781844909959574,0.06398320006884423
13.815214994487322,0.24168927798951392
13.848585079015068,0.37116014603913355
13.881955163542816,0.39773158758706684
13.915325248070562,0.3042757356513254
13.94869533259831,0.12283465151848262
13.982065417126057,-0.07623832334468653
14.015435501653805,-0.21368190481879137
14.048805586181551,-0.23569005701827486
14.082175670709299,-0.1367153955198047
14.115545755237045,0.04021115297894996
14.148915839764793,0.22522970262599476
14.18228592429254,0.35395761444623863
14.215656008820288,0.3938998638031213
14.249026093348034,0.3523150557921149
14.282396177875782,0.2632739649801929
14.315766262403528,0.16288857125694017
14.349136346931276,0.06763800579009051
14.382506431459023,-0.031822659037340516
14.41587651598677,-0.15848403772264805
14.449246600514517,-0.32656498962258307
14.482616685042265,-0.5231918724373725
14.515986769570011,-0.7062865910301126
14.54935685409776,-0.8213459869887983
14.582726938625505,-0.8285742155550151
14.616097023153253,-0.7253242440436443
14.649467107681,-0.5508561374246478
14.682837192208748,-0.36995805283155014
14.716207276736494,-0.24358502980957658
14.749577361264242,-0.20170393582655058
14.782947445791988,-0.23202250436150387
14.816317530319736,-0.2892980139288803
14.849687614847483,-0.3188716708036949
14.88305769937523,-0.28132820626966554
14.916427783902977,-0.1662112960826064
14.949797868430725,0.009776963367636709
14.983167952958471,0.21565686122352662
15.01653803748622,0.42055053850493146
15.049908122013965,0.6012760726337777
15.083278206541713,0.7411037077175117
15.11664829106946,0.8243821619563672
15.150018375597208,0.8345560127512817
15.183388460124954,0.7601487954709935
15.216758544652702,0.6065268486346012
15.250128629180448,0.40524971356231354
15.283498713708196,0.21195278083958366
15.316868798235943,0.08933570645981948
15.35023888276369,0.0810171431986881
15.383608967291437,0.18907714141477144
15.416979051819185,0.36816158684279515
15.450349136346931,0.5413235025445158
15.48371922087468,0.6314353506144733
15.517089305402425,0.593494724693123
15.550459389930174,0.4323063193388583
15.58382947445792,0.1972752677664353
15.617199558985668,-0.04260454859024151
15.650569643513414,-0.2309793506454911
15.683939728041162,-0.34798666821963015
15.717309812568908,-0.41477784632214565
15.750679897096656,-0.47744390932390185
15.784049981624403,-0.5789560980581021
15.81742006615215,-0.7331552177656877
15.850790150679897,-0.9134691557530552
15.884160235207645,-1.0618294509164445
15.917530319735391,-1.1137345948390007
15.95090040426314,-1.0279760525863688
15.984270488790886,-0.8074843714131047
16.017640573318634,-0.5018385795142348
16.05101065784638,-0.19021251602280953
16.084380742374126,0.047913695209347226
16.117750826901876,0.1619265991168078
16.151120911429622,0.14737125425155068
16.18449099595737,0.04515749616499158
16.217861080485115,-0.07584101144248756
16.251231165012864,-0.14500421589307597
16.28460124954061,-0.11467368480101002
16.317971334068357,0.025306868541445534
16.351341418596103,0.2473068959975758
16.384711503123853,0.4985626670952049
16.4180815876516,0.7211042845228479
16.451451672179346,0.8712473514627846
16.484821756707092,0.9316864818189678
16.51819184123484,0.912445988335281
16.551561925762588,0.8414778436335921
16.584932010290334,0.7497845208629079
16.61830209481808,0.6578789117118007
16.65167217934583,0.5693536250864741
16.685042263873576,0.47381553212756
16.718412348401323,0.35702347458065686
16.75178243292907,0.21268894995401422
16.78515251745682,0.04959022608443974
16.818522601984565,-0.1100869017487935
16.85189268651231,-0.240792046921557
16.885262771040058,-0.3270320517292334
16.918632855567807,-0.37287742349990394
16.952002940095554,-0.4018273158594729
16.9853730246233,-0.44623696926067813
17.018743109151046,-0.5312523160759209
17.052113193678796,-0.6614543477616953
17.085483278206542,-0.8171423717614206
17.11885336273429,-0.9619768303573921
17.15222344726204,-1.0575943784335247
17.185593531789785,-1.0774444099103275
17.21896361631753,-1.0133783679758621
17.252333700845277,-0.8733409532229013
17.285703785373027,-0.6735579405756165
17.319073869900773,-0.4307705288663626
