Time (s),Filtered Signal
0.0,-0.008311480949214443
0.03337028824833703,-0.6070597346502232
0.06674057649667406,-1.085915674753042
0.10011086474501109,-1.3587703013446144
0.13348115299334812,-1.3938209101491958
0.16685144124168516,-1.2154679602298168
0.20022172949002218,-0.8889397762183888
0.2335920177383592,-0.4959511620566749
0.26696230598669624,-0.11177340686483442
0.3003325942350333,0.2086709842694247
0.3337028824833703,0.4337156209340145
0.3670731707317073,0.5503513894699247
0.40044345898004435,0.5581996297979325
0.4338137472283814,0.46678077289563347
0.4671840354767184,0.2966861474974697
0.5005543237250555,0.08119461496230565
0.5339246119733925,-0.13640102284746733
0.5672949002217295,-0.3120740391103956
0.6006651884700666,-0.41465128022140213
0.6340354767184035,-0.4374982456399257
0.6674057649667406,-0.40140674315791675
0.7007760532150776,-0.3451048898518762
0.7341463414634146,-0.3058046852136408
0.7675166297117517,-0.29804911111407306
0.8008869179600887,-0.30166925463090366
0.8342572062084257,-0.2669282190864057
0.8676274944567628,-0.13736132767978224
0.9009977827050998,0.11841333150634267
0.9343680709534368,0.4808700993792079
0.9677383592017739,0.8740809787894258
1.001108647450111,1.1867220006431674
1.0344789356984478,1.313276418971831
1.067849223946785,1.1983432918336183
1.101219512195122,0.8636538979164173
1.134589800443459,0.4040039389504813
1.167960088691796,-0.04774180884288524
1.2013303769401331,-0.3717340754212473
1.23470066518847,-0.5054869675346422
1.268070953436807,-0.4617308684468228
1.3014412416851442,-0.3129441207799686
1.3348115299334813,-0.15211156709365625
1.3681818181818182,-0.05056836621377178
1.4015521064301553,-0.03394621436950613
1.4349223946784924,-0.08607757343076966
1.4682926829268292,-0.17439421545973882
1.5016629711751663,-0.27817446832511483
1.5350332594235034,-0.4001652196417752
1.5684035476718403,-0.5534587918698418
1.6017738359201774,-0.7326139392421755
1.6351441241685145,-0.8904811758103902
1.6685144124168514,-0.9415835297287122
1.7018847006651885,-0.7981073279489169
1.7352549889135256,-0.4233407195901311
1.7686252771618625,0.12742848507764162
1.8019955654101996,0.7066793575728807
1.8353658536585367,1.1237314266610496
1.8687361419068735,1.2246384767996406
1.9021064301552106,0.9650997633158616
1.9354767184035477,0.4388059611081994
1.9688470066518848,-0.1557919475264465
2.002217294900222,-0.5970252880349401
2.035587583148559,-0.7325529792928039
2.0689578713968957,-0.5401726827768734
2.102328159645233,-0.1297594042566492
2.13569844789357,0.31249817130209406
2.1690687361419068,0.6096173773035263
2.202439024390244,0.6686652119423727
2.235809312638581,0.511524008405041
2.269179600886918,0.25050792836917485
2.302549889135255,0.024275690560049776
2.335920177383592,-0.07247199037073199
2.369290465631929,-0.030834336480565168
2.4026607538802662,0.07775803664523293
2.436031042128603,0.14857063336944745
2.46940133037694,0.10559776631780571
2.5027716186252773,-0.05450410555418231
2.536141906873614,-0.259078053223948
2.569512195121951,-0.39747972328962533
2.6028824833702884,-0.3799056734061856
2.6362527716186253,-0.18652570862362142
2.6696230598669626,0.11771879947416197
2.7029933481152995,0.4093642582993719
2.7363636363636363,0.5601292675257198
2.7697339246119737,0.4920611144385541
2.8031042128603105,0.209194216977777
2.8364745011086474,-0.20628482328191297
2.8698447893569847,-0.6282237830799543
2.9032150776053216,-0.9335206194920415
2.9365853658536585,-1.0420688407011747
2.969955654101996,-0.9364605507079948
3.0033259423503327,-0.6587647519153417
3.0366962305986696,-0.2902265152885993
3.070066518847007,0.07653470237582335
3.1034368070953438,0.3637534448159309
3.1368070953436806,0.5266728639752978
3.170177383592018,0.5600917621487217
3.203547671840355,0.49273530724974135
3.2369179600886917,0.37204125908881536
3.270288248337029,0.2449797587657827
3.303658536585366,0.1421911110387906
3.337028824833703,0.07164383611892083
3.37039911308204,0.023874629190230697
3.403769401330377,-0.014788979491758482
3.437139689578714,-0.04886070964856423
3.470509977827051,-0.06814078113429323
3.503880266075388,-0.05339668522765333
3.537250554323725,0.010123221551098368
3.5706208425720622,0.11976222972761442
3.603991130820399,0.2514448934879712
3.637361419068736,0.36751378479239544
3.6707317073170733,0.43195200139035583
3.70410199556541,0.42404485695284666
3.737472283813747,0.34308438381163253
3.7708425720620844,0.2032241422241604
3.8042128603104213,0.024278328486340893
3.8375831485587586,-0.17385849527468727
3.8709534368070955,-0.36973685302441445
3.9043237250554323,-0.5352983522135966
3.9376940133037697,-0.634742368022408
3.9710643015521065,-0.6326312323718006
4.004434589800444,-0.5095796235030013
4.037804878048781,-0.2771386850771212
4.071175166297118,0.0180596861700571
4.1045454545454545,0.30575568078815557
4.137915742793791,0.5152760517232842
4.171286031042128,0.5997859959858965
4.204656319290466,0.5500820694269801
4.238026607538803,0.392250603616542
4.27139689578714,0.17232530507989055
4.304767184035477,-0.062493579002467124
4.3381374722838135,-0.27621276201269734
4.371507760532151,-0.4458562051122704
4.404878048780488,-0.5562281131022485
4.438248337028825,-0.5955276942073265
4.471618625277162,-0.5577470371635405
4.504988913525499,-0.45085450095348645
4.538359201773836,-0.3030542568813812
4.571729490022173,-0.15841193642128368
4.60509977827051,-0.05953470170235996
4.638470066518847,-0.024914852406471177
4.671840354767184,-0.03482174285105356
4.705210643015521,-0.03688685631662493
4.738580931263858,0.02850646227862687
4.771951219512196,0.19538263964973288
4.8053215077605325,0.44976609064927364
4.838691796008869,0.7302848665318661
4.872062084257206,0.9515542124085186
4.905432372505543,1.0378729806225337
4.93880266075388,0.9503577069981074
4.972172949002218,0.6959650192571954
5.005543237250555,0.3178597251460547
5.0389135254988915,-0.12365254016667303
5.072283813747228,-0.5673490487574941
5.105654101995565,-0.9568892960404128
5.139024390243902,-1.2375474494948893
5.17239467849224,-1.3526068940657634
5.205764966740577,-1.249232996680665
5.239135254988914,-0.8975150045740768
5.2725055432372505,-0.3164550365141351
5.305875831485587,0.40716101596175286
5.339246119733925,1.121860660561013
5.372616407982262,1.6437742737835772
5.405986696230599,1.8123118739644046
5.439356984478936,1.550829235626988
5.472727272727273,0.9076799659516039
5.5060975609756095,0.056805135551227876
5.539467849223947,-0.7494882469356169
5.572838137472284,-1.2638761796035032
5.606208425720621,-1.3344993684691258
5.639578713968958,-0.9660417730509614
5.672949002217295,-0.32253560026857103
5.706319290465632,0.33473703379593506
5.7396895787139695,0.7522078733405649
5.773059866962306,0.7879528834249145
5.806430155210643,0.467728861960666
5.83980044345898,-0.03395093015210222
5.873170731707317,-0.4801137730171175
5.906541019955654,-0.6845542984575846
5.939911308203992,-0.5975244211540568
5.9732815964523285,-0.3223559200606666
6.006651884700665,-0.05571264043404811
6.040022172949002,0.017431017811590233
6.073392461197339,-0.17967660420643702
6.106762749445676,-0.5761542196036217
6.140133037694014,-0.9895591068898731
6.173503325942351,-1.2166321674791674
6.2068736141906875,-1.1308533792330737
6.240243902439024,-0.7379894286745354
6.273614190687361,-0.16523422476560523
6.306984478935698,0.4051553719254473
6.340354767184036,0.8200919811132391
6.373725055432373,1.01525754712914
6.40709534368071,1.0249119700176437
6.4404656319290465,0.9446974277404809
6.473835920177383,0.8728593670360444
6.507206208425721,0.8616836537218202
6.540576496674058,0.9004782422876122
6.573946784922395,0.9325329180671551
6.607317073170732,0.8922272883510103
6.640687361419069,0.7418763612732023
6.674057649667406,0.4914931046318031
6.707427937915743,0.194388418112066
6.74079822616408,-0.07750548384056861
6.774168514412417,-0.2663462551021215
6.807538802660754,-0.3537550847340929
6.840909090909091,-0.36690904008950836
6.874279379157428,-0.3624938498712982
6.9076496674057655,-0.3965820169262072
6.941019955654102,-0.49572877945181637
6.974390243902439,-0.643927458606533
7.007760532150776,-0.7915877487217641
7.041130820399113,-0.8810352293462873
7.07450110864745,-0.8746895381848007
7.107871396895788,-0.7715030556760529
7.1412416851441245,-0.6043065910844979
7.174611973392461,-0.42110589859670855
7.207982261640798,-0.261323829949344
7.241352549889135,-0.13950010176158245
7.274722838137472,-0.04384580771043874
7.30809312638581,0.051341898220409604
7.341463414634147,0.1673214504737012
7.3748337028824835,0.3065599778421382
7.40820399113082,0.44913364157541963
7.441574279379157,0.5606052945439508
7.474944567627494,0.6068181222464366
7.508314855875832,0.5688126118083241
7.541685144124169,0.45202283514241687
7.575055432372506,0.2865826222685462
7.6084257206208425,0.11850719757039133
7.641796008869179,-0.0058094342624499485
7.675166297117517,-0.05690807138794815
7.708536585365854,-0.034819306938504734
7.741906873614191,0.029349190659191355
7.775277161862528,0.08546643006192355
7.808647450110865,0.08663340190496516
7.842017738359202,0.012300046661494701
7.875388026607539,-0.11915642150474745
7.908758314855876,-0.25596066044519217
7.942128603104213,-0.33564404348616805
7.97549889135255,-0.31497831925815095
8.008869179600888,-0.19254053204293392
8.042239467849225,-0.01193713655795225
8.075609756097561,0.15714803829623547
8.108980044345898,0.25160293472461254
8.142350332594235,0.24515946146720455
8.175720620842572,0.16069413058434862
8.209090909090909,0.05775162867735773
8.242461197339246,0.001270733357870831
8.275831485587583,0.027552589741648037
8.30920177383592,0.12530590682647605
8.342572062084257,0.2418646683616009
8.375942350332595,0.31133081213728714
8.409312638580932,0.28964750823061614
8.442682926829269,0.17796688688959791
8.476053215077606,0.02215440973491309
8.509423503325943,-0.11083786989150865
8.54279379157428,-0.16690788338051507
8.576164079822616,-0.13141067696025754
8.609534368070953,-0.035387278624639536
8.64290465631929,0.06069080111317421
8.676274944567627,0.09660174610463901
8.709645232815964,0.04063303664489419
8.743015521064303,-0.09660721631785667
8.77638580931264,-0.2681878381349569
8.809756097560976,-0.41268603160608647
8.843126385809313,-0.4811497989517141
8.87649667405765,-0.45696911868182055
8.909866962305987,-0.3603381741228138
8.943237250554324,-0.23634471281556751
8.97660753880266,-0.13319113970201277
9.009977827050998,-0.08123780788258009
9.043348115299334,-0.08250768260356468
9.076718403547671,-0.11458382941189864
9.110088691796008,-0.1454657404054328
9.143458980044347,-0.15079259899395658
9.176829268292684,-0.12446503445926524
9.21019955654102,-0.0779857048673879
9.243569844789358,-0.030198006233597044
9.276940133037694,0.0059555708564378055
9.310310421286031,0.03195996206265175
9.343680709534368,0.062891864345739
9.377050997782705,0.11790855508488023
9.410421286031042,0.20752707181761454
9.443791574279379,0.32493186553213016
9.477161862527716,0.4463849421392752
9.510532150776053,0.5408297327005315
9.543902439024391,0.5837192181325999
9.577272727272728,0.5678659811645356
9.610643015521065,0.5059645374070447
9.644013303769402,0.42410455984924644
9.677383592017739,0.3501463829014202
9.710753880266076,0.3027093138851842
9.744124168514412,0.2851623227618609
9.77749445676275,0.28585320194141484
9.810864745011086,0.28298739835632564
9.844235033259423,0.25141888822984565
9.87760532150776,0.1691669700583417
9.910975609756099,0.022798814551898108
9.944345898004435,-0.18822071721384953
9.977716186252772,-0.4482073287925352
10.01108647450111,-0.7239739267151035
10.044456762749446,-0.9675854373887526
10.077827050997783,-1.1249265165702889
10.11119733924612,-1.149844681099084
10.144567627494457,-1.020464094582892
10.177937915742794,-0.751603195809803
10.21130820399113,-0.39688037066597825
10.244678492239467,-0.036961784917919564
10.278048780487804,0.24416244000440607
10.311419068736143,0.38717483331472136
10.34478935698448,0.3786969716819995
10.378159645232817,0.25622164563924515
10.411529933481154,0.09332474275796372
10.44490022172949,-0.029653775895350655
10.478270509977827,-0.05741727269258888
10.511640798226164,0.019579691549423968
10.545011086474501,0.16431420383225398
10.578381374722838,0.312111329698574
10.611751662971175,0.40031474321100874
10.645121951219512,0.3952029565703091
10.67849223946785,0.30444108935363606
10.711862527716187,0.17049110555052255
10.745232815964524,0.04937668791233069
10.778603104212861,-0.014306022649961388
10.811973392461198,-0.004292034743410802
10.845343680709535,0.06547274786667578
10.878713968957872,0.16282059585176323
10.912084257206208,0.2550984258127944
10.945454545454545,0.3224122117259447
10.978824833702882,0.35991050486123227
11.012195121951219,0.3699600229652969
11.045565410199556,0.3514749133051773
11.078935698447895,0.2951832721211149
11.112305986696231,0.18924360435891818
11.145676274944568,0.03208281478819316
11.179046563192905,-0.15650942622051528
11.212416851441242,-0.3351494310446735
11.245787139689579,-0.45460018597410656
11.279157427937916,-0.4798740786650713
11.312527716186253,-0.4090185430753478
11.34589800443459,-0.277459610853392
11.379268292682926,-0.1440239436170233
11.412638580931263,-0.06469047192285712
11.4460088691796,-0.06702305910366937
11.479379157427939,-0.13813129383790299
11.512749445676276,-0.2320047102781027
11.546119733924613,-0.29216236092860187
11.57949002217295,-0.27817478841009663
11.612860310421286,-0.1834647227252738
11.646230598669623,-0.036947182503892874
11.67960088691796,0.110752480858417
11.712971175166297,0.20900080581910402
11.746341463414634,0.22693006801603027
11.77971175166297,0.16373215258422064
11.813082039911308,0.046833658993588816
11.846452328159646,-0.07981143120381214
11.879822616407983,-0.17205341186425144
11.91319290465632,-0.200547911048701
11.946563192904657,-0.1596204832033113
11.979933481152994,-0.0674568780751447
12.01330376940133,0.042101947774598455
12.046674057649668,0.13304062742250178
12.080044345898004,0.18073862696560103
12.113414634146341,0.1801638530512329
12.146784922394678,0.14534538483116188
12.180155210643015,0.10071800902506602
12.213525498891352,0.06883602860868848
12.24689578713969,0.060633540035855055
12.280266075388028,0.07276715817389841
12.313636363636364,0.09248993848113464
12.347006651884701,0.10639678215294221
12.380376940133038,0.10770704878183471
12.413747228381375,0.09838720334784465
12.447117516629712,0.08608112069086579
12.480487804878049,0.0789442402520146
12.513858093126386,0.082023118850757
12.547228381374723,0.09672148390098236
12.58059866962306,0.12207570316285346
12.613968957871396,0.1553828246355419
12.647339246119735,0.19103461607382266
12.680709534368072,0.21888474646753192
12.714079822616409,0.22479741045581172
12.747450110864746,0.19489718727867802
12.780820399113082,0.12225014811994916
12.81419068736142,0.012396315847539837
12.847560975609756,-0.11593401213309616
12.880931263858093,-0.2363229516590679
12.91430155210643,-0.32451654067450847
12.947671840354767,-0.36826683466864446
12.981042128603104,-0.3723730417774124
13.014412416851442,-0.35603230709369565
13.04778270509978,-0.34311045814889596
13.081152993348116,-0.34954217194246545
13.114523281596453,-0.37402246703607406
13.14789356984479,-0.3971898751664424
13.181263858093127,-0.39060543010232757
13.214634146341464,-0.3316334833055766
13.2480044345898,-0.21662923213011753
13.281374722838137,-0.06508464850864341
13.314745011086474,0.08805807830471404
13.348115299334811,0.2081818631573899
13.381485587583148,0.27640869999563417
13.414855875831487,0.2962547624554268
13.448226164079824,0.28809761064033856
13.48159645232816,0.2750838259187495
13.514966740576497,0.2690704738406787
13.548337028824834,0.26504647664578407
13.581707317073171,0.24724598188720573
13.615077605321508,0.20297311864330048
13.648447893569845,0.13535836965491702
13.681818181818182,0.06675677450403984
13.715188470066519,0.029939312125910125
13.748558758314855,0.051335067387585365
13.781929046563192,0.13523135378472495
13.815299334811531,0.2575412013599212
13.848669623059868,0.37289157357303676
13.882039911308205,0.43211667634183887
13.915410199556542,0.4021911517758103
13.948780487804878,0.27959767632541094
13.982150776053215,0.09142533549484722
14.015521064301552,-0.1156304883875657
14.048891352549889,-0.2927525698750408
14.082261640798226,-0.4050674685948497
14.115631929046563,-0.4401873268753042
14.1490022172949,-0.40758788913505034
14.182372505543238,-0.3314802320119124
14.215742793791575,-0.2416233602705469
14.249113082039912,-0.16545655593842304
14.282483370288249,-0.12261007368979347
14.315853658536586,-0.12136952448548358
14.349223946784923,-0.15689900177499175
14.38259423503326,-0.21207486048267202
14.415964523281596,-0.2619748580076559
14.449334811529933,-0.281619470742538
14.48270509977827,-0.25440451163670263
14.516075388026607,-0.1776572513217144
14.549445676274944,-0.06296246527153505
14.582815964523283,0.06841359550080427
14.61618625277162,0.19244796608193782
14.649556541019956,0.288710231065593
14.682926829268293,0.344475042549719
14.71629711751663,0.35644707036196965
14.749667405764967,0.330539473341122
14.783037694013304,0.27982938340147084
14.81640798226164,0.22054716994553525
14.849778270509978,0.16660385519420665
14.883148558758315,0.12454659059204254
14.916518847006651,0.09169740582144935
14.949889135254988,0.05925781394689218
14.983259423503327,0.019333501325163475
15.016629711751664,-0.028123196679170154
15.05,-0.07319102166603166
15.083370288248338,-0.10087383196015372
15.116740576496674,-0.10069405340018768
15.150110864745011,-0.07511985221791609
15.183481152993348,-0.04094222893058389
15.216851441241685,-0.02162380930165687
15.250221729490022,-0.034283071634957224
15.283592017738359,-0.07883991194855171
15.316962305986696,-0.13627363957554564
15.350332594235034,-0.17792958611819765
15.383702882483371,-0.18120513763718635
15.417073170731708,-0.1427988900552263
15.450443458980045,-0.08172204368035686
15.483813747228382,-0.029996251780525448
15.517184035476719,-0.01596503585212482
15.550554323725056,-0.049192586977754006
15.583924611973393,-0.11473223926435219
15.61729490022173,-0.17917392246610575
15.650665188470066,-0.20478632361791146
15.684035476718403,-0.16468976618157916
15.71740576496674,-0.052660716627575654
15.750776053215079,0.11530007720062611
15.784146341463416,0.3065923454618145
15.817516629711752,0.48154969730266645
15.85088691796009,0.6035202748093548
15.884257206208426,0.6472447715730392
15.917627494456763,0.6042361583955441
15.9509977827051,0.48416105433066925
15.984368070953437,0.31151209049601436
16.017738359201775,0.11804620647242128
16.05110864745011,-0.06655863553325848
16.08447893569845,-0.22198310769273283
16.117849223946784,-0.3393244009906449
16.151219512195123,-0.41763678068684457
16.184589800443458,-0.45800586492705986
16.217960088691797,-0.45971398039342687
16.251330376940132,-0.4214964770645008
16.28470066518847,-0.347116181560754
16.31807095343681,-0.2509478036049159
16.351441241685144,-0.15843136620951748
16.384811529933483,-0.0989323310535046
16.418181818181818,-0.09327384947586914
16.451552106430157,-0.1421251946242517
16.48492239467849,-0.2220470517264784
16.51829268292683,-0.29267994225412436
16.551662971175165,-0.31292964704708554
16.585033259423504,-0.2590367311056952
16.61840354767184,-0.13585609532870924
16.651773835920178,0.024489121268810612
16.685144124168513,0.17649316344478322
16.71851441241685,0.2815302712379986
16.75188470066519,0.32510639992550033
16.785254988913525,0.3229217743481018
16.818625277161864,0.3126529672728534
16.8519955654102,0.3349471265333958
16.885365853658538,0.4121501637939727
16.918736141906873,0.534487389040224
16.95210643015521,0.6603068117315202
16.985476718403547,0.73100886354252
17.018847006651885,0.6949612733594301
17.05221729490022,0.5305982488526719
17.08558758314856,0.2587455136976445
17.118957871396898,-0.061703741039316244
17.152328159645233,-0.35372864940994464
17.18569844789357,-0.5498502308195284
17.219068736141907,-0.6160704236423687
17.252439024390245,-0.5622073714682589
17.28580931263858,-0.4348406820141478
