Frequency (Hz),Amplitude
0.0,0.8193278452595476
0.019867549668874173,0.8190296535804392
0.039735099337748346,0.8181355939823822
0.059602649006622516,0.8166472138446426
0.07947019867549669,0.8145670956876906
0.09933774834437085,0.811898862564991
0.11920529801324503,0.8086471857305313
0.13907284768211922,0.8048177947030115
0.15894039735099338,0.8004174898842104
0.17880794701986755,0.7954541579278332
0.1986754966887417,0.7899367900955726
0.2185430463576159,0.7838755038802953
0.23841059602649006,0.7772815682213098
0.2582781456953642,0.7701674326850064
0.27814569536423844,0.7625467610341151
0.2980132450331126,0.7544344696614429
0.31788079470198677,0.745846771417328
0.33774834437086093,0.7368012254136227
0.3576158940397351,0.7273167934383516
0.3774834437086093,0.7174139036615934
0.3973509933774834,0.7071145223497838
0.4172185430463576,0.6964422343270634
0.4370860927152318,0.6854223329191562
0.45695364238410596,0.6740819200765839
0.4768211920529801,0.6624500172834961
0.49668874172185434,0.6505576876955127
0.5165562913907285,0.6384381696868676
0.5364238410596026,0.6261270215891076
0.5562913907284769,0.613662276825112
0.5761589403973509,0.6010846078292272
0.5960264900662252,0.5884374960297198
0.6158940397350993,0.5757674036788197
0.6357615894039735,0.5631239413651612
0.6556291390728477,0.5505600225547762
0.6754966887417219,0.5381319934145001
0.695364238410596,0.5258997224535767
0.7152317880794702,0.5139266302268681
0.7350993377483444,0.5022796346550182
0.7549668874172186,0.49102898280044505
0.7748344370860927,0.480247935818809
0.7947019867549668,0.4700122712289107
0.8145695364238411,0.46039956689420947
0.8344370860927152,0.4514882357484273
0.8543046357615894,0.44335629096316037
0.8741721854304636,0.4360798392696625
0.8940397350993378,0.42973132594615415
0.9139072847682119,0.4243775874280467
0.9337748344370861,0.42007780330995087
0.9536423841059603,0.4168814731123689
0.9735099337748344,0.41482656734361617
0.9933774834437087,0.413938009741403
1.0132450331125828,0.4142266328826003
1.033112582781457,0.4156887116693135
1.0529801324503312,0.41830612310360576
1.0728476821192052,0.4220471157418354
1.0927152317880795,0.42686761028129566
1.1125827814569538,0.43271290500671417
1.1324503311258278,0.4395196335191416
1.1523178807947019,0.44721781902969693
1.1721854304635762,0.45573288618284113
1.1920529801324504,0.46498752126700665
1.2119205298013245,0.4749033072282069
1.2317880794701985,0.4854020945872499
1.2516556291390728,0.49640709873126593
1.271523178807947,0.5078437359578369
1.2913907284768211,0.5196402248353159
1.3112582781456954,0.5317279868720758
1.3311258278145695,0.5440418827035667
1.3509933774834437,0.5565203186454593
1.370860927152318,0.5691052549619761
1.390728476821192,0.5817421426761279
1.410596026490066,0.594379810981776
1.4304635761589404,0.6069703227926255
1.4503311258278146,0.619468811944522
1.4701986754966887,0.631833312161971
1.4900662251655628,0.6440245851162969
1.5099337748344372,0.6560059526941288
1.5298013245033113,0.6677431368855223
1.5496688741721854,0.6792041094098642
1.5695364238410596,0.6903589522434986
1.5894039735099337,0.7011797295261385
1.609271523178808,0.7116403708417188
1.6291390728476822,0.7217165655445017
1.6490066225165563,0.7313856675926956
1.6688741721854303,0.7406266102286283
1.6887417218543048,0.7494198297825702
1.7086092715231789,0.7577471978583633
1.728476821192053,0.7655919611697563
1.7483443708609272,0.7729386883263125
1.7682119205298013,0.779773222910338
1.7880794701986755,0.7860826422354996
1.8079470198675496,0.7918552212307739
1.8278145695364238,0.7970804009470762
1.847682119205298,0.8017487612371111
1.8675496688741722,0.8058519972103142
1.8874172185430464,0.8093828991139764
1.9072847682119205,0.8123353353382227
1.9271523178807946,0.814704238286717
1.9470198675496688,0.8164855928964521
1.9668874172185429,0.8176764276296568
1.9867549668874174,0.8182748077981817
2.0066225165562916,0.8182798311168114
2.0264900662251657,0.8176916254166344
2.0463576158940397,0.8165113484834516
2.066225165562914,0.8147411900196493
2.086092715231788,0.8123843757612788
2.1059602649006623,0.8094451738156837
2.1258278145695364,0.8059289033193883
2.1456953642384105,0.8018419455511404
2.165562913907285,0.7971917576719466
2.185430463576159,0.7919868893020695
2.205298013245033,0.7862370021852996
2.2251655629139075,0.7799528932334059
2.2450331125827816,0.7731465212879101
2.2649006622516556,0.7658310379830647
2.2847682119205297,0.7580208231421977
2.3046357615894038,0.7497315251888653
2.324503311258278,0.7409801071033673
2.3443708609271523,0.7317848985027581
2.364238410596027,0.722165654465094
2.384105960264901,0.7121436217534458
2.403973509933775,0.701741613116325
2.423841059602649,0.6909840903410414
2.443708609271523,0.6798972567058306
2.463576158940397,0.6685091594011828
2.4834437086092715,0.6568498023527108
2.5033112582781456,0.6449512696542126
2.52317880794702,0.6328478594796132
2.543046357615894,0.6205762278478187
2.562913907284768,0.6081755409187409
2.5827814569536423,0.5956876335440219
2.6026490066225163,0.5831571705170567
2.622516556291391,0.5706318052915714
2.642384105960265,0.558162328793327
2.662251655629139,0.5458027982735478
2.6821192052980134,0.533610632912894
2.7019867549668874,0.521646659104667
2.7218543046357615,0.5099750841478407
2.741721854304636,0.49866337273428857
2.76158940397351,0.4877819966002823
2.781456953642384,0.477404024775309
2.801324503311258,0.4676045210473561
2.821192052980132,0.4584597178926826
2.8410596026490067,0.45004594365644307
2.8609271523178808,0.44243829355632547
2.8807947019867552,0.4357090558787124
2.9006622516556293,0.4299259321630731
2.9205298013245033,0.42515012212686126
2.9403973509933774,0.42143437643619913
2.9602649006622515,0.4188211472379383
2.9801324503311255,0.4173409808901109
3.0,0.4170112937423127
3.0198675496688745,0.4178356472661512
3.0397350993377485,0.41980359498403835
3.0596026490066226,0.4228911169732073
3.0794701986754967,0.42706159817420547
3.0993377483443707,0.4322672550547042
3.119205298013245,0.4384508799469471
3.1390728476821192,0.44554775786298734
3.1589403973509933,0.45348761619056815
3.1788079470198674,0.4621964888793465
3.198675496688742,0.4715984070283867
3.218543046357616,0.4816168606360193
3.23841059602649,0.4921760065065363
3.2582781456953644,0.5032016217637426
3.2781456953642385,0.514621819873654
3.2980132450331126,0.526367556764712
3.3178807947019866,0.5383729596576639
3.3377483443708607,0.5505755120256527
3.3576158940397347,0.5629161261221174
3.3774834437086096,0.5753391309404998
3.3973509933774837,0.5877921992092028
3.4172185430463577,0.6002262326914373
3.437086092715232,0.612595221026689
3.456953642384106,0.6248560858103345
3.47682119205298,0.6369685186307252
3.4966887417218544,0.6488948193610454
3.5165562913907285,0.6605997390868215
3.5364238410596025,0.6720503305697378
3.556291390728477,0.683215808030809
3.576158940397351,0.6940674172112493
3.596026490066225,0.7045783160749994
3.615894039735099,0.7147234661014444
3.6357615894039736,0.7244795338362235
3.6556291390728477,0.7338248021887785
3.6754966887417218,0.7427390908600777
3.695364238410596,0.7512036852318554
3.7152317880794703,0.7592012730347127
3.7350993377483444,0.7667158881237086
3.754966887417219,0.7737328607187558
3.774834437086093,0.7802387735067022
3.794701986754967,0.7862214230475123
3.814569536423841,0.7916697859756716
3.834437086092715,0.7965739895375339
3.854304635761589,0.8009252860544847
3.8741721854304636,0.8047160309491657
3.8940397350993377,0.8079396640177224
3.9139072847682117,0.8105906936744189
3.9337748344370858,0.8126646839362532
3.9536423841059607,0.8141582439540621
3.9735099337748347,0.8150690199340748
3.993377483443709,0.8153956893291487
4.013245033112583,0.8151379572132158
4.033112582781457,0.8142965547855772
4.052980132450331,0.8128732399841074
4.072847682119205,0.8108708002185511
4.0927152317880795,0.8082930572672012
4.112582781456953,0.8051448744125056
4.132450331125828,0.8014321659243572
4.152317880794702,0.7971619090335791
4.172185430463576,0.7923421585733329
4.19205298013245,0.7869820645024037
4.211920529801325,0.7810918925626137
4.231788079470199,0.7746830483615786
4.251655629139073,0.7677681052130352
4.271523178807947,0.7603608361086974
4.291390728476821,0.7524762502374255
4.311258278145695,0.7441306345090718
4.33112582781457,0.7353416005791867
4.3509933774834435,0.7261281379050817
4.370860927152318,0.7165106733899966
4.390728476821192,0.70651113818574
4.410596026490066,0.6961530422186799
4.43046357615894,0.6854615569710013
4.450331125827815,0.6744636069769946
4.470198675496689,0.6631879703683488
4.490066225165563,0.6516653886028032
4.509933774834438,0.6399286852131899
4.529801324503311,0.6280128929869541
4.549668874172186,0.6159553883922626
4.569536423841059,0.6037960312598517
4.589403973509934,0.5915773066576134
4.6092715231788075,0.5793444645003827
4.629139072847682,0.5671456506629258
4.649006622516556,0.5550320211604114
4.66887417218543,0.5430578282994211
4.688741721854305,0.5312804645994477
4.708609271523179,0.5197604468249619
4.728476821192054,0.5085613188496207
4.748344370860927,0.49774944864734055
4.768211920529802,0.4873936920212445
4.788079470198675,0.47756489452144435
4.80794701986755,0.468335204369081
4.827814569536423,0.45977717424819203
4.847682119205298,0.45196263966998507
4.867549668874172,0.4449613770471736
4.887417218543046,0.4388395656890032
4.9072847682119205,0.43365810349784445
4.927152317880794,0.4294708535479449
4.947019867549669,0.42632292374788516
4.966887417218543,0.4242490991964554
4.986754966887418,0.423272551472607
5.006622516556291,0.42340393736388443
5.026490066225166,0.42464097085794256
5.04635761589404,0.4269685098082344
5.066225165562914,0.4303591491628211
5.086092715231788,0.43477426450972395
5.105960264900662,0.44016541107055884
5.125827814569536,0.4464759598305539
5.14569536423841,0.45364284621747425
5.1655629139072845,0.4615983159761845
5.185430463576159,0.47027157336225484
5.205298013245033,0.4795902631541632
5.225165562913908,0.48948174524811533
5.245033112582782,0.4998741450004041
5.264900662251656,0.510697181852363
5.28476821192053,0.5218827923941673
5.304635761589404,0.5333655722324683
5.324503311258278,0.5450830647629628
5.344370860927152,0.556975925374118
5.364238410596027,0.568987987843655
5.3841059602649,0.5810662566739927
5.403973509933775,0.5931608455556543
5.4238410596026485,0.6052248785317882
5.443708609271523,0.6172143670608355
5.463576158940397,0.6290880731949429
5.483443708609272,0.6408073665681294
5.503311258278146,0.6523360808190547
5.52317880794702,0.6636403734212881
5.543046357615895,0.6746885916053555
5.562913907284768,0.6854511460735144
5.582781456953643,0.6959003934735667
5.602649006622516,0.7060105280614793
5.622516556291391,0.7157574826008842
5.642384105960264,0.7251188382849291
5.662251655629139,0.7340737432925938
5.682119205298013,0.7426028394856683
5.701986754966887,0.7506881966947695
5.7218543046357615,0.7583132540205991
5.741721854304636,0.7654627675783777
5.7615894039735105,0.7721227641323286
5.781456953642384,0.7782805000967351
5.801324503311259,0.7839244254166019
5.821192052980132,0.7890441518809317
5.841059602649007,0.7936304254639981
5.860927152317881,0.7976751023314643
5.880794701986755,0.801171128190202
5.900662251655629,0.8041125207004978
5.920529801324503,0.8064943547081964
5.940397350993377,0.8083127500910747
5.960264900662251,0.8095648620494933
5.980132450331126,0.8102488737049853
6.0,0.8103639909030979
6.0198675496688745,0.8099104391484184
6.039735099337749,0.8088894626302521
6.059602649006623,0.8073033253275954
6.079470198675497,0.8051553142118582
6.099337748344371,0.8024497445953878
6.119205298013245,0.7991919677039662
6.139072847682119,0.7953883805815165
6.158940397350993,0.791046438466368
6.178807947019867,0.7861746698097876
6.198675496688741,0.780782694139816
6.218543046357616,0.774881243006545
6.23841059602649,0.7684821842780146
6.258278145695365,0.7615985500896428
6.2781456953642385,0.754244568782855
6.298013245033113,0.7464357011994219
6.317880794701987,0.7381886817264575
6.337748344370861,0.7295215645094237
6.357615894039735,0.720453775265122
6.377483443708609,0.7110061691290427
6.397350993377484,0.7012010949562787
6.417218543046357,0.6910624664553914
6.437086092715232,0.6806158404611358
6.456953642384105,0.6698885025323612
6.47682119205298,0.6589095598812503
6.496688741721854,0.6477100413792592
6.516556291390729,0.636323004020937
6.5364238410596025,0.6247836447304167
6.556291390728477,0.6131294157332406
6.5761589403973515,0.6014001408508802
6.596026490066225,0.5896381289663217
6.6158940397351,0.5778882795166901
6.635761589403973,0.5661981731600338
6.655629139072848,0.5546181387221941
6.675496688741721,0.5432012851687942
6.695364238410596,0.5320034847313776
6.715231788079469,0.5210832905843795
6.735099337748344,0.5105017698631024
6.754966887417219,0.500322230710317
6.774834437086093,0.4906098209696769
6.794701986754967,0.4814309767936418
6.814569536423841,0.4728527025984188
6.8344370860927155,0.46494167028701716
6.854304635761589,0.45776313611520525
6.874172185430464,0.45137968821523944
6.894039735099337,0.4458498561246467
6.913907284768212,0.4412266342238398
6.933774834437086,0.43755599121966304
6.95364238410596,0.43487545427836943
6.973509933774834,0.43321286532335407
6.993377483443709,0.43258540512494814
7.013245033112583,0.43299896643445973
7.033112582781457,0.43444793122356185
7.052980132450331,0.43691537233676514
7.072847682119205,0.4403736618363458
7.0927152317880795,0.44478543311359475
7.112582781456954,0.4501048168601448
7.132450331125828,0.45627885568350945
7.152317880794702,0.4632489993851449
7.172185430463576,0.47095259116699534
7.19205298013245,0.4793242711271733
7.211920529801324,0.4882972435562109
7.231788079470198,0.4978043752495114
7.251655629139073,0.5077791106741311
7.271523178807947,0.518156204814783
7.291390728476822,0.5288722853145542
7.311258278145695,0.5398662622984906
7.33112582781457,0.5510796076472089
7.3509933774834435,0.5624565262791082
7.370860927152318,0.5739440410111838
7.390728476821192,0.5854920104975009
7.410596026490066,0.5970530971370185
7.430463576158941,0.6085826990875237
7.450331125827814,0.6200388578730709
7.470198675496689,0.6313821506742694
7.490066225165562,0.6425755743123327
7.509933774834438,0.6535844261954404
7.52980132450331,0.6643761860743521
7.549668874172186,0.6749204013206056
7.569536423841059,0.6851885775556281
7.589403973509934,0.6951540757813516
7.6092715231788075,0.7047920166544992
7.629139072847682,0.7140791921733
7.649006622516557,0.7229939847781197
7.66887417218543,0.7315162936823212
7.6887417218543055,0.7396274681268031
7.708609271523178,0.7473102471758126
7.728476821192054,0.7545487056303489
7.748344370860927,0.7613282056194828
7.768211920529802,0.7676353534315722
7.788079470198675,0.7734579611617449
7.80794701986755,0.7787850127746453
7.827814569536423,0.783606634209196
7.847682119205298,0.7879140671833981
7.8675496688741715,0.7916996463896581
7.887417218543046,0.7949567798045961
7.907284768211921,0.7976799318699175
7.927152317880795,0.7998646093337545
7.9470198675496695,0.8015073495730081
7.966887417218543,0.8026057112479631
7.986754966887418,0.8031582671699936
8.006622516556291,0.8031645992915939
8.026490066225167,0.8026252957560692
8.046357615894038,0.8015419499710114
8.066225165562914,0.7999171616966082
8.086092715231787,0.7977545401658614
8.105960264900663,0.7950587092798586
8.125827814569536,0.7918353149472543
8.14569536423841,0.7880910346628148
8.165562913907285,0.7838335894459375
8.185430463576159,0.7790717582858264
8.205298013245034,0.7738153952656943
8.225165562913906,0.7680754495635981
8.245033112582782,0.7618639885518154
8.264900662251655,0.7551942242395845
8.28476821192053,0.7480805433240919
8.304635761589404,0.7405385411312654
8.324503311258278,0.7325850597385258
8.344370860927151,0.7242382305743618
8.364238410596027,0.7155175217808638
8.3841059602649,0.7064437906010993
8.403973509933774,0.6970393410076448
8.42384105960265,0.687327986715427
8.443708609271523,0.6773351196113144
8.463576158940398,0.6670877834749387
8.483443708609272,0.656614752645345
8.503311258278146,0.6459466149908405
8.52317880794702,0.635115858145202
8.543046357615895,0.624156957460603
8.562913907284768,0.6131064634718006
8.582781456953642,0.6020030858430325
8.602649006622515,0.5908877697546808
8.62251655629139,0.5798037594638054
8.642384105960264,0.5687966423347229
8.66225165562914,0.5579143649965509
8.682119205298013,0.5472072114894837
8.701986754966887,0.5367277314018041
8.721854304635762,0.5265306042283703
8.741721854304636,0.5166724247310756
8.76158940397351,0.5072113932737887
8.781456953642383,0.49820689535258356
8.801324503311259,0.4897189563292237
8.821192052980132,0.48180756120840473
8.841059602649008,0.47453183561160067
8.86092715231788,0.46794909312934846
8.880794701986755,0.4621137658525377
8.90066225165563,0.45707624844610945
8.920529801324504,0.4528817003628011
8.940397350993377,0.44956886382336514
8.960264900662251,0.44716896472788803
8.980132450331126,0.4457047674200526
9.0,0.44518985044906656
9.019867549668875,0.445628158502911
9.039735099337747,0.4470138663298969
9.059602649006623,0.44933156602796387
9.079470198675496,0.45255676297217234
9.099337748344372,0.45665664165641223
9.119205298013245,0.4615910441607587
9.139072847682119,0.4673135929670048
9.158940397350994,0.4737728870608625
9.178807947019868,0.48091370486602564
9.198675496688743,0.48867815770173756
9.218543046357615,0.4970067508172516
9.23841059602649,0.5058393233712081
9.258278145695364,0.5151158521714108
9.27814569536424,0.5247771153700751
9.298013245033111,0.5347652210411661
9.317880794701987,0.5450240115770526
9.33774834437086,0.555499358401384
9.357615894039736,0.5661393630578354
9.37748344370861,0.5768944808108962
9.397350993377483,0.5877175819655625
9.417218543046358,0.5985639645837074
9.437086092715232,0.6093913304588442
9.456953642384107,0.6201597343303513
9.47682119205298,0.6308315145202169
9.496688741721854,0.6413712115429929
9.516556291390728,0.6517454798156799
9.536423841059603,0.6619229963874848
9.556291390728477,0.6718743696124648
9.57615894039735,0.6815720498812776
9.596026490066224,0.6909902438878165
9.6158940397351,0.7001048334069591
9.635761589403973,0.7088932991771608
9.655629139072847,0.7173346501939372
9.675496688741722,0.7254093585087574
9.695364238410596,0.7330992994762715
9.715231788079471,0.7403876972877402
9.735099337748345,0.7472590755593684
9.754966887417218,0.7536992127021938
9.774834437086092,0.7596951017785515
9.794701986754967,0.7652349145431124
9.814569536423841,0.7703079693707477
9.834437086092716,0.774904702784977
9.854304635761588,0.7790166443176854
9.874172185430464,0.7826363944512085
9.894039735099337,0.7857576054163078
9.913907284768213,0.7883749646434715
9.933774834437086,0.7904841806890306
9.95364238410596,0.7920819714822004
9.973509933774835,0.7931660547631637
9.993377483443709,0.7937351406061465
10.013245033112582,0.7937889259448383
10.033112582781456,0.793328091040193
10.052980132450331,0.7923542978531004
10.072847682119205,0.7908701903059988
10.09271523178808,0.7888793964390823
10.112582781456952,0.7863865324874497
10.132450331125828,0.78339720892602
10.152317880794701,0.7799180385489544
10.172185430463577,0.7759566466694181
10.192052980132452,0.7715216835442591
10.211920529801324,0.7666228391450887
10.2317880794702,0.7612708604134202
10.251655629139073,0.7554775711509736
10.271523178807948,0.7492558947070105
10.29139072847682,0.7426198796313582
10.311258278145695,0.7355847284629918
10.331125827814569,0.7281668298180362
10.350993377483444,0.7203837939253523
10.370860927152318,0.7122544917295869
10.390728476821192,0.7037990976365763
10.410596026490065,0.6950391359100854
10.43046357615894,0.6859975306357168
10.450331125827816,0.6766986590409281
10.470198675496688,0.6671684077905043
10.490066225165563,0.6574342316553395
10.509933774834437,0.6475252136673002
10.529801324503312,0.6374721255120958
10.549668874172186,0.6273074864622846
10.56953642384106,0.6170656186008803
10.589403973509933,0.6067826954209461
10.609271523178808,0.5964967801008294
10.629139072847682,0.5862478488474471
