Frequency (Hz),Amplitude
0.0,1.1318575908467468
0.019801980198019802,1.1327874023193454
0.039603960396039604,1.1355687493420523
0.0594059405940594,1.1401775800052147
0.07920792079207921,1.1465744952836094
0.09900990099009901,1.1547057348300083
0.1188118811881188,1.1645044715091422
0.13861386138613863,1.1758923405339918
0.15841584158415842,1.1887811220188311
0.1782178217821782,1.203074496038438
0.19801980198019803,1.2186697958187318
0.21782178217821782,1.2354596958073742
0.2376237623762376,1.253333785162521
0.25742574257425743,1.2721799918299992
0.27722772277227725,1.2918858363559647
0.297029702970297,1.3123395068520685
0.31683168316831684,1.3334307565027714
0.33663366336633666,1.3550516324857684
0.3564356435643564,1.3770970502712647
0.37623762376237624,1.3994652302709887
0.39603960396039606,1.4220580151129694
0.4158415841584158,1.4447810858362586
0.43564356435643564,1.4675440944146303
0.45544554455445546,1.4902607285585756
0.4752475247524752,1.5128487229736887
0.495049504950495,1.5352298293664302
0.5148514851485149,1.5573297556254588
0.5346534653465347,1.5790780828557964
0.5544554455445545,1.6004081673580242
0.5742574257425742,1.6212570332490026
0.594059405940594,1.6415652602191892
0.613861386138614,1.661276869908031
0.6336633663366337,1.6803392135368063
0.6534653465346534,1.6987028627505842
0.6732673267326733,1.7163215050660097
0.6930693069306931,1.7331518448812278
0.7128712871287128,1.7491535106594494
0.7326732673267327,1.7642889686318386
0.7524752475247525,1.778523443164253
0.7722772277227723,1.791824843784902
0.7920792079207921,1.8041636987630916
0.8118811881188118,1.8155130950568519
0.8316831683168316,1.825848624400649
0.8514851485148516,1.8351483352793083
0.8712871287128713,1.8433926905240616
0.891089108910891,1.8505645302690292
0.9108910891089109,1.8566490400186486
0.9306930693069307,1.8616337235956997
0.9504950495049505,1.8655083807622859
0.9702970297029703,1.8682650893360817
0.99009900990099,1.869898191652973
1.00990099009901,1.8704042852611227
1.0297029702970297,1.869782217765314
1.0495049504950495,1.8680330857746674
1.0693069306930694,1.8651602379440022
1.0891089108910892,1.8611692821331745
1.108910891089109,1.8560680967452075
1.1287128712871286,1.8498668463394907
1.1485148514851484,1.8425780016503188
1.1683168316831685,1.8342163641741578
1.188118811881188,1.824799095521384
1.2079207920792079,1.8143457517545505
1.227722772277228,1.802878322962842
1.2475247524752475,1.7904212783392814
1.2673267326732673,1.7770016170408731
1.2871287128712872,1.762648925114395
1.3069306930693068,1.7473954387605835
1.3267326732673268,1.7312761141829243
1.3465346534653466,1.7143287042203055
1.3663366336633662,1.6965938418866522
1.3861386138613863,1.6781151308314062
1.405940594059406,1.6589392425803369
1.4257425742574257,1.6391160202071693
1.4455445544554455,1.6186985878094402
1.4653465346534653,1.5977434648022695
1.4851485148514851,1.5763106835817118
1.504950495049505,1.5544639085300949
1.5247524752475248,1.5322705536129364
1.5445544554455446,1.5098018949341392
1.5643564356435644,1.4871331735502575
1.5841584158415842,1.4643436825832237
1.6039603960396038,1.4415168312017377
1.6237623762376237,1.4187401763755392
1.6435643564356437,1.3961054114671192
1.6633663366336633,1.373708298770995
1.683168316831683,1.3516485311362394
1.7029702970297032,1.3300295059667517
1.7227722772277227,1.3089579933931017
1.7425742574257426,1.288543679538215
1.7623762376237624,1.2688985659020806
1.782178217821782,1.2501362073851197
1.801980198019802,1.2323707747861752
1.8217821782178218,1.2157159331592826
1.8415841584158414,1.2002835354931
1.8613861386138615,1.186182141866171
1.881188118811881,1.1735153872931563
1.900990099009901,1.1623802362256381
1.920792079207921,1.1528651769430218
1.9405940594059405,1.1450484232277265
1.9603960396039604,1.1389962018087483
1.98019801980198,1.1347612100655198
2.0,1.1323813277101016
2.01980198019802,1.1318786576202058
2.0396039603960396,1.133258954729483
2.0594059405940595,1.1365114791360906
2.0792079207920793,1.1416092827003554
2.099009900990099,1.1485099104371148
2.118811881188119,1.1571564722319516
2.1386138613861387,1.167479019690688
2.1584158415841586,1.1793961492491127
2.1782178217821784,1.1928167468507234
2.1980198019801978,1.2076417912037976
2.217821782178218,1.2237661405791342
2.237623762376238,1.241080240455242
2.257425742574257,1.259471704029194
2.2772277227722775,1.2788267328272882
2.297029702970297,1.299031358887784
2.3168316831683167,1.3199725022556141
2.336633663366337,1.3415388473079906
2.3564356435643563,1.3636215486016554
2.376237623762376,1.38611478166736
2.3960396039603964,1.4089161568193913
2.4158415841584158,1.4319270150215002
2.4356435643564356,1.4550526245854796
2.455445544554456,1.4782022963664496
2.4752475247524752,1.5012894334856586
2.495049504950495,1.5242315297173978
2.514851485148515,1.5469501287056633
2.5346534653465347,1.5693707542646442
2.5544554455445545,1.591422820239991
2.5742574257425743,1.613039526815892
2.594059405940594,1.634157748761892
2.6138613861386135,1.6547179199245212
2.633663366336634,1.6746639172720714
2.6534653465346536,1.693942946978278
2.673267326732673,1.712505434361085
2.6930693069306932,1.7303049189581825
2.712871287128713,1.7472979555961876
2.7326732673267324,1.7634440219827723
2.7524752475247527,1.778705433097983
2.7722772277227725,1.7930472624733322
2.792079207920792,1.8064372703090794
2.811881188118812,1.8188458382832235
2.8316831683168315,1.8302459108405913
2.8514851485148514,1.8406129427109659
2.8712871287128716,1.8499248523847922
2.891089108910891,1.8581619812703072
2.910891089108911,1.865307058262343
2.9306930693069306,1.871345169468548
2.9504950495049505,1.8762637328604155
2.9702970297029703,1.880052477643748
2.99009900990099,1.8827034281733384
3.00990099009901,1.8842108922694796
3.0297029702970297,1.8845714538294742
3.0495049504950495,1.883783969662809
3.0693069306930694,1.8818495705166338
3.089108910891089,1.87877166629541
3.108910891089109,1.8745559555169666
3.128712871287129,1.8692104390857212
3.148514851485148,1.8627454385012012
3.1683168316831685,1.8551736186579624
3.1881188118811883,1.846510015429135
3.2079207920792077,1.8367720682606943
3.227722772277228,1.8259796580355647
3.2475247524752473,1.8141551504956108
3.267326732673267,1.8013234455327707
3.2871287128712874,1.7875120326776566
3.3069306930693068,1.7727510531201094
3.3267326732673266,1.7570733685912874
3.346534653465347,1.740514637413316
3.366336633663366,1.72311339797808
3.386138613861386,1.7049111598425064
3.4059405940594063,1.685952502517215
3.4257425742574257,1.6662851818676052
3.4455445544554455,1.6459602438295784
3.4653465346534653,1.6250321448513179
3.485148514851485,1.6035588780917323
3.504950495049505,1.5816021039134351
3.5247524752475248,1.5592272825839955
3.5445544554455446,1.5365038063170966
3.564356435643564,1.5135051268214055
3.5841584158415842,1.4903088733556746
3.603960396039604,1.4669969548930981
3.6237623762376234,1.4436556383661912
3.6435643564356437,1.420375593098231
3.6633663366336635,1.3972518894564991
3.683168316831683,1.37438393754688
3.702970297029703,1.3518753495167963
3.722772277227723,1.329833706913828
3.7425742574257423,1.3083702128019508
3.762376237623762,1.2875992072937354
3.7821782178217824,1.267637525224335
3.801980198019802,1.2486036763506558
3.8217821782178216,1.230616832218762
3.841584158415842,1.2137956101816465
3.8613861386138613,1.19825665431378
3.881188118811881,1.184113025245297
3.9009900990099013,1.1714724259166314
3.9207920792079207,1.1604353071006066
3.9405940594059405,1.1510929138363986
3.96039603960396,1.143525349706518
3.98019801980198,1.1377997478462119
4.0,1.1339686433719323
4.01980198019802,1.1320686396562842
4.03960396039604,1.1321194495834124
4.0594059405940595,1.1341233728978701
4.079207920792079,1.1380652437360212
4.099009900990099,1.1439128513593804
4.118811881188119,1.151617805696662
4.138613861386139,1.1611167913105656
4.158415841584159,1.1723331319637298
4.178217821782178,1.1851785750272097
4.198019801980198,1.1995552011057817
4.217821782178218,1.2153573686756713
4.237623762376238,1.2324736144788495
4.257425742574258,1.2507884456113456
4.2772277227722775,1.2701839763391438
4.297029702970297,1.290541379641108
4.316831683168317,1.3117421387986634
4.336633663366336,1.3336690970971425
4.356435643564357,1.3562073134784685
4.376237623762377,1.3792447388149351
4.3960396039603955,1.4026727316650427
4.415841584158416,1.426386434384603
4.435643564356436,1.450285030804695
4.455445544554455,1.4742719058393992
4.475247524752476,1.4982547257705914
4.4950495049504955,1.5221454559128134
4.514851485148514,1.5458603301459601
4.534653465346535,1.5693197845955869
4.554455445544555,1.592448365658877
4.574257425742574,1.6151746206866535
4.594059405940594,1.6374309779712617
4.613861386138614,1.6591536212635283
4.633663366336633,1.6802823628419061
4.653465346534653,1.7007605181637753
4.673267326732674,1.7205347843209733
4.693069306930693,1.7395551238731046
4.712871287128713,1.7577746551202948
4.732673267326733,1.775149549478536
4.752475247524752,1.7916389363154057
4.772277227722772,1.8072048153755145
4.792079207920793,1.8218119767574823
4.811881188118812,1.83542792828547
4.8316831683168315,1.8480228300383026
4.851485148514852,1.8595694357495243
4.871287128712871,1.8700430407649422
4.891089108910891,1.879421436235977
4.910891089108912,1.8876848692320194
4.930693069306931,1.8948160084706942
4.9504950495049505,1.9007999153878583
4.97029702970297,1.9056240202981325
4.99009900990099,1.9092781034297135
5.00990099009901,1.9117542806531485
5.02970297029703,1.9130469937621952
5.0495049504950495,1.9131530052046288
5.069306930693069,1.9120713972016796
5.089108910891089,1.9098035752370777
5.108910891089109,1.9063532759387525
5.128712871287129,1.901726579419527
5.148514851485149,1.8959319261862102
5.1683168316831685,1.888980138769894
5.188118811881188,1.880884448273219
5.207920792079208,1.871660526073043
5.227722772277227,1.8613265209579093
5.247524752475248,1.8499031020191834
5.267326732673268,1.8374135076507172
5.2871287128712865,1.823883601043283
5.306930693069307,1.8093419325847793
5.326732673267327,1.7938198095927034
5.346534653465346,1.7773513738074058
5.366336633663367,1.7599736870597331
5.3861386138613865,1.7417268254881815
5.405940594059405,1.7226539826112686
5.425742574257426,1.7028015814512176
5.445544554455446,1.682219395744484
5.465346534653465,1.6609606800468404
5.485148514851486,1.6390823082312418
5.504950495049505,1.6166449194625356
5.524752475247524,1.5937130701910955
5.544554455445545,1.5703553900112768
5.564356435643565,1.5466447383472695
5.584158415841584,1.522658357828606
5.603960396039604,1.4984780188672029
5.623762376237624,1.4741901483194106
5.643564356435643,1.4498859331915595
5.663366336633663,1.425661388124968
5.683168316831684,1.401617372900526
5.702970297029703,1.377859543504514
5.7227722772277225,1.3544982175192537
5.742574257425743,1.3316481319512739
5.762376237623762,1.3094280693821825
5.782178217821782,1.2879603269345354
5.801980198019803,1.2673700025044339
5.821782178217822,1.2477840746413924
5.841584158415841,1.229330257011863
5.861386138613861,1.2121356161859131
5.881188118811881,1.1963249529774664
5.900990099009901,1.1820189628432205
5.920792079207921,1.169332209459662
5.9405940594059405,1.1583709664098345
5.96039603960396,1.1492310030019937
5.98019801980198,1.1419954089962612
6.0,1.1367325664074557
6.01980198019802,1.133494381639332
6.03960396039604,1.1323148857631782
6.0594059405940595,1.1332092939024054
6.079207920792079,1.1361735873238261
6.099009900990099,1.141184646709257
6.118811881188119,1.1482009263934052
6.138613861386139,1.1571636220044317
6.158415841584159,1.167998252561081
6.178217821782178,1.1806165561463702
6.198019801980198,1.1949185875431043
6.217821782178218,1.210794906581948
6.237623762376237,1.2281287557391123
6.257425742574258,1.2467981420463543
6.2772277227722775,1.2666777585923725
6.297029702970296,1.2876407019696452
6.316831683168317,1.3095599617049445
6.336633663366337,1.3323096745199652
6.356435643564356,1.355766149453774
6.376237623762377,1.37980867931291
6.396039603960396,1.4043201598978365
6.415841584158415,1.4291875415354893
6.435643564356436,1.4543021382743555
6.455445544554456,1.4795598193077295
6.475247524752475,1.5048611053432532
6.495049504950495,1.5301111901903452
6.514851485148515,1.5552199051354216
6.534653465346534,1.580101640962809
6.554455445544554,1.6046752399155306
6.574257425742575,1.62886386756608
6.594059405940594,1.652594872528398
6.6138613861386135,1.6757996401973252
6.633663366336634,1.698413445240751
6.653465346534653,1.7203753063676404
6.673267326732673,1.7416278459235066
6.693069306930694,1.7621171560906017
6.712871287128713,1.7817926728639377
6.732673267326732,1.800607058505253
6.752475247524753,1.8185160928230175
6.772277227722772,1.835478573362909
6.792079207920792,1.8514562244031834
6.811881188118813,1.8664136145167696
6.8316831683168315,1.880318082374563
6.851485148514851,1.8931396704118761
6.871287128712871,1.9048510659540996
6.891089108910891,1.9154275493925415
6.910891089108911,1.924846949010214
6.930693069306931,1.9330896020795896
6.9504950495049505,1.9401383218821202
6.97029702970297,1.9459783703356852
6.99009900990099,1.95059743595464
7.00990099009901,1.9539856169103242
7.02970297029703,1.9561354090039111
7.0495049504950495,1.9570416984098935
7.069306930693069,1.9567017590957698
7.089108910891089,1.9551152548715436
7.108910891089109,1.952284246071569
7.128712871287128,1.948213200921006
7.148514851485149,1.9429090116893868
7.1683168316831685,1.9363810157843881
7.188118811881187,1.9286410219907621
7.207920792079208,1.9197033421107668
7.227722772277228,1.9095848283142391
7.247524752475247,1.8983049165579045
7.267326732673268,1.8858856764834393
7.287128712871287,1.8723518682515536
7.306930693069306,1.8577310068132566
7.326732673267327,1.8420534341570076
7.346534653465347,1.8253524000991759
7.366336633663366,1.8076641522008534
7.3861386138613865,1.789028035391363
7.405940594059406,1.7694866018512334
7.425742574257425,1.7490857316460506
7.445544554455446,1.7278747644962835
7.465346534653466,1.7059066429029002
7.485148514851485,1.683238066606927
7.504950495049505,1.6599296580210467
7.524752475247524,1.6360461378072029
7.544554455445544,1.6116565091542916
7.564356435643565,1.5868342484980917
7.584158415841584,1.561657499381023
7.603960396039604,1.5362092648260706
7.623762376237624,1.5105775919530477
7.643564356435643,1.4848557405530325
7.663366336633663,1.459142324925313
7.683168316831684,1.4335414154613324
7.702970297029703,1.4081625832534987
7.7227722772277225,1.3831208674943867
7.742574257425743,1.358536641772314
7.762376237623762,1.334535351828032
7.782178217821782,1.3112470943175858
7.801980198019803,1.2888060041871072
7.821782178217822,1.2673494181297775
7.841584158415841,1.2470167841243647
7.861386138613862,1.2279482931781658
7.881188118811881,1.210283219975877
7.900990099009901,1.1941579747627844
7.92079207920792,1.1797038895223642
7.9405940594059405,1.1670447865899354
7.96039603960396,1.156294405468809
7.980198019801979,1.1475537908570401
8.0,1.1409087678870173
8.01980198019802,1.1364276450342166
8.03960396039604,1.1341592871689694
8.05940594059406,1.1341316882733317
8.07920792079208,1.1363511451291533
8.099009900990099,1.1408020921943987
8.118811881188119,1.1474476088171943
8.138613861386139,1.1562305594203497
8.158415841584159,1.1670752821507346
8.178217821782178,1.1798897074257
8.198019801980198,1.1945677683032507
8.217821782178218,1.2109919604405701
8.237623762376238,1.2290359188981739
8.257425742574258,1.2485668987604093
8.277227722772277,1.2694480722625123
8.297029702970297,1.2915405827431732
8.316831683168317,1.314705321950209
8.336633663366337,1.338804419755009
8.356435643564357,1.36370245301619
8.376237623762377,1.3892673929248913
8.396039603960396,1.4153713180576923
8.415841584158416,1.4418909243251419
8.435643564356436,1.4687078639413964
8.455445544554456,1.4957089443431
8.475247524752476,1.5227862154296976
8.495049504950495,1.5498369702036403
8.514851485148515,1.5767636803184282
8.534653465346535,1.6034738845130385
8.554455445544555,1.6298800446209114
8.574257425742575,1.6558993809016145
8.594059405940595,1.6814536958970352
8.613861386138613,1.706469193865948
8.633663366336634,1.7308763010761061
8.653465346534654,1.7546094907945837
8.673267326732672,1.7776071156709046
8.693069306930694,1.7998112493091198
8.712871287128714,1.8211675381324777
8.732673267326732,1.8416250641198986
8.752475247524753,1.861136218604776
8.772277227722773,1.8796565870452258
8.792079207920791,1.8971448444779504
8.811881188118813,1.9135626612374503
8.831683168316832,1.9288746184405514
8.85148514851485,1.943048132694752
8.871287128712872,1.9560533894744172
8.891089108910892,1.9678632846164914
8.91089108910891,1.9784533734101861
8.930693069306932,1.9878018267889233
8.950495049504951,1.995889394174839
8.97029702970297,2.0026993725726183
8.990099009900991,2.0082175815605927
9.00990099009901,2.0124323438796736
9.029702970297029,2.015334471375353
9.04950495049505,2.0169172561035147
9.06930693069307,2.017176466466709
9.089108910891088,2.016110348305105
9.10891089108911,2.0137196309231147
9.12871287128713,2.0100075380912243
9.148514851485148,2.004979804121932
9.16831683168317,1.9986446951784513
9.188118811881187,1.991013036036604
9.207920792079207,1.9820982425829519
9.227722772277229,1.9719163603962842
9.247524752475247,1.9604861098244486
9.267326732673267,1.9478289380350022
9.287128712871288,1.9339690785834371
9.306930693069306,1.9189336191081623
9.326732673267326,1.902752577823514
9.346534653465348,1.885458989539239
9.366336633663366,1.8670890019836965
9.386138613861386,1.8476819832439628
9.405940594059407,1.8272806411529054
9.425742574257425,1.8059311554424913
9.445544554455445,1.7836833234340328
9.465346534653467,1.7605907199356159
9.485148514851485,1.7367108718455848
9.504950495049505,1.7121054476973196
9.524752475247526,1.6868404619946262
9.544554455445544,1.6609864936442023
9.564356435643564,1.634618917048106
9.584158415841586,1.6078181434242138
9.603960396039604,1.580669868616914
9.623762376237623,1.5532653219770178
9.643564356435645,1.5257015087611918
9.663366336633663,1.4980814358571366
9.683168316831683,1.470514307427748
9.702970297029704,1.4431156732576578
9.722772277227723,1.4160075081983363
9.742574257425742,1.3893181962495544
9.762376237623764,1.3631823877025102
9.782178217821782,1.3377406927926685
9.801980198019802,1.3131391710643139
9.821782178217823,1.2895285729787938
9.841584158415841,1.2670632903085939
9.861386138613861,1.245899975863834
9.881188118811881,1.2261958025047013
9.900990099009901,1.2081063474593436
9.92079207920792,1.191783111457249
9.94059405940594,1.177370712920725
9.96039603960396,1.165003833856738
9.98019801980198,1.1548040328647329
10.0,1.1468765768166889
10.01980198019802,1.1413074700546038
10.03960396039604,1.138160872020846
10.05940594059406,1.1374770860665464
10.07920792079208,1.139271271663593
10.099009900990099,1.1435329812780686
10.118811881188119,1.1502265578146451
10.138613861386139,1.1592923580232513
10.158415841584159,1.1706487019437561
10.178217821782178,1.1841943975279494
10.198019801980198,1.1998116590374355
10.217821782178218,1.2173692295265561
10.237623762376238,1.23672552955202
10.257425742574258,1.257731681197172
10.277227722772277,1.2802342922344794
10.297029702970297,1.304077923610129
10.316831683168317,1.32910719946618
10.336633663366337,1.3551685493653813
10.356435643564357,1.3821115956913692
10.376237623762377,1.409790215184249
10.396039603960396,1.4380633129857194
10.415841584158416,1.4667953516474588
10.435643564356436,1.4958566776835636
10.455445544554454,1.5251236857177464
10.475247524752476,1.5544788561736833
10.495049504950495,1.5838106976167237
10.514851485148514,1.6130136198659808
10.534653465346535,1.6419877592411138
10.554455445544555,1.6706387730070196
10.574257425742573,1.698877616337161
10.594059405940595,1.7266203119542132
10.613861386138614,1.7537877200007552
10.633663366336632,1.7803053135896698
10.653465346534654,1.806102963818579
10.673267326732674,1.8311147367368652
10.693069306930692,1.8552787037648424
