Time (s),Filtered Signal
0.0,0.01931303426714853
0.03337028824833703,0.20603832304564185
0.06674057649667406,0.4410610242170907
0.10011086474501109,0.7440737081891781
0.13348115299334812,1.0915699006292203
0.16685144124168516,1.424391923870147
0.20022172949002218,1.672792308343655
0.2335920177383592,1.7859158788826153
0.26696230598669624,1.7508417807628536
0.3003325942350333,1.592533355289921
0.3337028824833703,1.3567203276309685
0.3670731707317073,1.0868166716808303
0.40044345898004435,0.8082591246575447
0.4338137472283814,0.5279521022742137
0.4671840354767184,0.2465151210615633
0.5005543237250555,-0.026921791202853856
0.5339246119733925,-0.2686160114783052
0.5672949002217295,-0.44770601990574094
0.6006651884700666,-0.5428509115403285
0.6340354767184035,-0.5572418068239604
0.6674057649667406,-0.5217817953462947
0.7007760532150776,-0.4831185576540123
0.7341463414634146,-0.482072620376808
0.7675166297117517,-0.5336201485801785
0.8008869179600887,-0.6189701244047929
0.8342572062084257,-0.694075377899477
0.8676274944567628,-0.7106565440267175
0.9009977827050998,-0.6397416479567637
0.9343680709534368,-0.4866450940360483
0.9677383592017739,-0.29045525302548664
1.001108647450111,-0.10827775417166213
1.0344789356984478,0.008695494808494703
1.067849223946785,0.036726700704273224
1.101219512195122,-0.010719247597132893
1.134589800443459,-0.08927926320535132
1.167960088691796,-0.14342241823172477
1.2013303769401331,-0.13117682724128785
1.23470066518847,-0.043117499119718974
1.268070953436807,0.09283323331689862
1.3014412416851442,0.22312501754769745
1.3348115299334813,0.2917550643157618
1.3681818181818182,0.26455200286082226
1.4015521064301553,0.1436771609474739
1.4349223946784924,-0.03393326812681191
1.4682926829268292,-0.2128578187923467
1.5016629711751663,-0.3420007720901157
1.5350332594235034,-0.3929363156817506
1.5684035476718403,-0.36550751468772397
1.6017738359201774,-0.27928831234109114
1.6351441241685145,-0.1571139007942384
1.6685144124168514,-0.01114648860444064
1.7018847006651885,0.15969810450985156
1.7352549889135256,0.35915083693264865
1.7686252771618625,0.5766308327249853
1.8019955654101996,0.7758436439481036
1.8353658536585367,0.898942836653899
1.8687361419068735,0.8878430035052477
1.9021064301552106,0.7138308352524003
1.9354767184035477,0.40015407392313135
1.9688470066518848,0.023854005640684097
2.002217294900222,-0.30748629462714816
2.035587583148559,-0.4957804441679914
2.0689578713968957,-0.4917598993359306
2.102328159645233,-0.3153670161418473
2.13569844789357,-0.04743585703526153
2.1690687361419068,0.20378950821293
2.202439024390244,0.3462220147206815
2.235809312638581,0.33834969739428866
2.269179600886918,0.200168639786078
2.302549889135255,-0.0024669865859555827
2.335920177383592,-0.1911095353333322
2.369290465631929,-0.3093280910361975
2.4026607538802662,-0.3429787343992932
2.436031042128603,-0.3182634321680373
2.46940133037694,-0.28077435031832404
2.5027716186252773,-0.2676623760257421
2.536141906873614,-0.28762457822817433
2.569512195121951,-0.31848378883136896
2.6028824833702884,-0.3224163162988209
2.6362527716186253,-0.2695413170525779
2.6696230598669626,-0.15657873369181222
2.7029933481152995,-0.010631434769370928
2.7363636363636363,0.12325170717410627
2.7697339246119737,0.20325983778196902
2.8031042128603105,0.20923894410017388
2.8364745011086474,0.1495004972108384
2.8698447893569847,0.054353491756217016
2.9032150776053216,-0.03831617079052411
2.9365853658536585,-0.0972985269832141
2.969955654101996,-0.10624202603754865
3.0033259423503327,-0.06463883298869723
3.0366962305986696,0.015750795914941572
3.070066518847007,0.11568827802829197
3.1034368070953438,0.21281729757019097
3.1368070953436806,0.285799518819004
3.170177383592018,0.31868780682235415
3.203547671840355,0.30484601518775795
3.2369179600886917,0.2487427092888329
3.270288248337029,0.16440959405230826
3.303658536585366,0.07101784166625658
3.337028824833703,-0.012522608958851818
3.37039911308204,-0.07195697949152344
3.403769401330377,-0.10024408587889327
3.437139689578714,-0.09861943783497498
3.470509977827051,-0.07658693839433298
3.503880266075388,-0.05034860572064674
3.537250554323725,-0.038518387815507954
3.5706208425720622,-0.05483981894789415
3.603991130820399,-0.10005080405157461
3.637361419068736,-0.15738180058698556
3.6707317073170733,-0.19617743670141544
3.70410199556541,-0.18469903060144702
3.737472283813747,-0.10761438041591405
3.7708425720620844,0.020655822354870713
3.8042128603104213,0.15539773302993531
3.8375831485587586,0.23699629647151796
3.8709534368070955,0.21699584953513568
3.9043237250554323,0.08294495123613331
3.9376940133037697,-0.13069347468009648
3.9710643015521065,-0.35235201968632124
4.004434589800444,-0.5007439177292182
4.037804878048781,-0.5178735823845356
4.071175166297118,-0.3927273535853291
4.1045454545454545,-0.16512079092304227
4.137915742793791,0.09137507354775558
4.171286031042128,0.29900708360093947
4.204656319290466,0.4046133537011554
4.238026607538803,0.3959326287830438
4.27139689578714,0.30040388581531074
4.304767184035477,0.16933256466443658
4.3381374722838135,0.055821927489660576
4.371507760532151,-0.004019821687733024
4.404878048780488,-9.727373688308111e-05
4.438248337028825,0.05383615822246791
4.471618625277162,0.13031780120175554
4.504988913525499,0.20077103918014705
4.538359201773836,0.24541766654910763
4.571729490022173,0.2575844712921341
4.60509977827051,0.2421825695123776
4.638470066518847,0.21025663379134824
4.671840354767184,0.1725476289044147
4.705210643015521,0.13491437097786513
4.738580931263858,0.09733858331437881
4.771951219512196,0.056437088218307487
4.8053215077605325,0.009626920871292906
4.838691796008869,-0.04173919102257357
4.872062084257206,-0.09224351919856914
4.905432372505543,-0.13534323590686384
4.93880266075388,-0.16750474768059165
4.972172949002218,-0.19093306315496722
5.005543237250555,-0.21316913468395532
5.0389135254988915,-0.24361249135360985
5.072283813747228,-0.2885908183468014
5.105654101995565,-0.347194223837284
5.139024390243902,-0.4096826395346852
5.17239467849224,-0.45925608012921926
5.205764966740577,-0.4767746036998615
5.239135254988914,-0.44696574734242606
5.2725055432372505,-0.364087021037886
5.305875831485587,-0.2351707453364208
5.339246119733925,-0.0798251674603963
5.372616407982262,0.07331502775784512
5.405986696230599,0.19254510288267873
5.439356984478936,0.25020916421625433
5.472727272727273,0.2298091319435859
5.5060975609756095,0.13191313141677244
5.539467849223947,-0.022714569495428705
5.572838137472284,-0.1947612256113786
5.606208425720621,-0.33435850335543926
5.639578713968958,-0.3949889731317705
5.672949002217295,-0.34967754187737443
5.706319290465632,-0.20312380707179561
5.7396895787139695,0.00672557554722957
5.773059866962306,0.22077845849475966
5.806430155210643,0.3817739439854877
5.83980044345898,0.4595540388873211
5.873170731707317,0.4673552304714324
5.906541019955654,0.4600408541160375
5.939911308203992,0.512046648699441
5.9732815964523285,0.6819407479811231
6.006651884700665,0.978055779251829
6.040022172949002,1.3417132662446103
6.073392461197339,1.6590070749071222
6.106762749445676,1.8002151152258656
6.140133037694014,1.6725287459713023
6.173503325942351,1.2634754715403678
6.2068736141906875,0.6540413278755077
6.240243902439024,-0.007594672316064543
6.273614190687361,-0.563401222247606
6.306984478935698,-0.9105008749367521
6.340354767184036,-1.044899019207499
6.373725055432373,-1.0624033547028533
6.40709534368071,-1.1132495153597548
6.4404656319290465,-1.328168613064656
6.473835920177383,-1.7483300445378671
6.507206208425721,-2.292207673624979
6.540576496674058,-2.777422104903506
6.573946784922395,-2.99094899105871
6.607317073170732,-2.7780622074331247
6.640687361419069,-2.1105141897215445
6.674057649667406,-1.1034067169643467
6.707427937915743,0.025905828906301463
6.74079822616408,1.036766156027183
6.774168514412417,1.746047783002071
6.807538802660754,2.0775786311351716
6.840909090909091,2.0651592183865937
6.874279379157428,1.816935956491319
6.9076496674057655,1.463885892672594
6.941019955654102,1.1162774050127544
6.974390243902439,0.8416451225549916
7.007760532150776,0.664082218573915
7.041130820399113,0.5754814836074176
7.07450110864745,0.5483043628910732
7.107871396895788,0.5447020426233353
7.1412416851441245,0.5232910238796773
7.174611973392461,0.44777958636321835
7.207982261640798,0.299234297382192
7.241352549889135,0.08825313502148915
7.274722838137472,-0.14081935804550555
7.30809312638581,-0.3204170639524386
7.341463414634147,-0.3850078022962099
7.3748337028824835,-0.3020426136163468
7.40820399113082,-0.09385537074410051
7.441574279379157,0.1623977253006387
7.474944567627494,0.36025302591573544
7.508314855875832,0.40589253631911154
7.541685144124169,0.2584987510582243
7.575055432372506,-0.049578305291357934
7.6084257206208425,-0.42288665450479085
7.641796008869179,-0.7396050285385584
7.675166297117517,-0.8992807161675967
7.708536585365854,-0.8611158547349466
7.741906873614191,-0.6569896721045851
7.775277161862528,-0.3750014884915643
7.808647450110865,-0.12213510981406593
7.842017738359202,0.017294943147157734
7.875388026607539,0.01063789073139013
7.908758314855876,-0.11655062654548086
7.942128603104213,-0.2964277651515642
7.97549889135255,-0.44886887526629227
8.008869179600888,-0.5130624109529629
8.042239467849225,-0.4688305627004616
8.075609756097561,-0.34023549013870935
8.108980044345898,-0.1807480050354566
8.142350332594235,-0.04641094685994416
8.175720620842572,0.03135295101992234
8.209090909090909,0.060806218657169
8.242461197339246,0.08510048704683543
8.275831485587583,0.1588562029760835
8.30920177383592,0.31662716523529416
8.342572062084257,0.5485925071366511
8.375942350332595,0.7963103718937273
8.409312638580932,0.9723114923454077
8.442682926829269,0.9959803511402461
8.476053215077606,0.8300871436254996
8.509423503325943,0.5014025729627719
8.54279379157428,0.0954881575009196
8.576164079822616,-0.27305638053999515
8.609534368070953,-0.5029077181639752
8.64290465631929,-0.5434036984141714
8.676274944567627,-0.4115586227199386
8.709645232815964,-0.18198639489234944
8.743015521064303,0.04536924356461517
8.77638580931264,0.18535243908544533
8.809756097560976,0.1982191970818564
8.843126385809313,0.09835017157001291
8.87649667405765,-0.06077868907962978
8.909866962305987,-0.21607692751827384
8.943237250554324,-0.3233346253287118
8.97660753880266,-0.37114140015881175
9.009977827050998,-0.37532777720986793
9.043348115299334,-0.35977610721973013
9.076718403547671,-0.3364247763158789
9.110088691796008,-0.2968187914394166
9.143458980044347,-0.22009676123890795
9.176829268292684,-0.09210745649845535
9.21019955654102,0.07681979575684873
9.243569844789358,0.247842866237534
9.276940133037694,0.3680454447040362
9.310310421286031,0.39691125604001504
9.343680709534368,0.33022117963231956
9.377050997782705,0.2068095134983568
9.410421286031042,0.0924856448571938
9.443791574279379,0.048303523918098605
9.477161862527716,0.09968544817518647
9.510532150776053,0.22299105336569736
9.543902439024391,0.3567578324319891
9.577272727272728,0.4314927202287882
9.610643015521065,0.4023161101813702
9.644013303769402,0.2681960049176335
9.677383592017739,0.06963220806501623
9.710753880266076,-0.13185236513884757
9.744124168514412,-0.28080513313750155
9.77749445676275,-0.3487388254448965
9.810864745011086,-0.34117684869060655
9.844235033259423,-0.2906121376346327
9.87760532150776,-0.24064822091521362
9.910975609756099,-0.22830875058951008
9.944345898004435,-0.2702244596294395
9.977716186252772,-0.35611604327806745
10.01108647450111,-0.4510322168502154
10.044456762749446,-0.5061442427182162
10.077827050997783,-0.4758320565298863
10.11119733924612,-0.3362229713164002
10.144567627494457,-0.09840699011051043
10.177937915742794,0.1900033597051258
10.21130820399113,0.4575834359248349
10.244678492239467,0.6327409430074286
10.278048780487804,0.6695284303665422
10.311419068736143,0.5649317157541259
10.34478935698448,0.35993658281102037
10.378159645232817,0.12350404484972188
10.411529933481154,-0.07387941731191815
10.44490022172949,-0.1857700350121857
10.478270509977827,-0.2036761830152797
10.511640798226164,-0.1540248148234789
10.545011086474501,-0.08075534190434468
10.578381374722838,-0.022597428176931476
10.611751662971175,0.003861408712364039
10.645121951219512,0.007555724186562414
10.67849223946785,0.012114831691277531
10.711862527716187,0.037547223868305606
10.745232815964524,0.0850560761281234
10.778603104212861,0.13389786907393633
10.811973392461198,0.15254024835641328
10.845343680709535,0.11812569142498758
10.878713968957872,0.03295595524048162
10.912084257206208,-0.07228474800177077
10.945454545454545,-0.15161714524950337
10.978824833702882,-0.16668950904989036
11.012195121951219,-0.10698872335539805
11.045565410199556,0.003922682514754687
11.078935698447895,0.11944561849228563
11.112305986696231,0.19186775211221133
11.145676274944568,0.1932718906510506
11.179046563192905,0.12520945933956773
11.212416851441242,0.014105607481710244
11.245787139689579,-0.10283758688950057
11.279157427937916,-0.1927147817352027
11.312527716186253,-0.23619409035192462
11.34589800443459,-0.22926234214405333
11.379268292682926,-0.18014033491966222
11.412638580931263,-0.10520156045741358
11.4460088691796,-0.025681831614700935
11.479379157427939,0.03582248991956185
11.512749445676276,0.060898741733336
11.546119733924613,0.04270459528730153
11.57949002217295,-0.008247681750198648
11.612860310421286,-0.064783759746671
11.646230598669623,-0.09270664618581624
11.67960088691796,-0.06648885410922134
11.712971175166297,0.016678341060802928
11.746341463414634,0.13268694666554104
11.77971175166297,0.23955679029642724
11.813082039911308,0.29567538200023064
11.846452328159646,0.27786302547519964
11.879822616407983,0.190136122758078
11.91319290465632,0.059595603472083605
11.946563192904657,-0.07695256026844456
11.979933481152994,-0.18769818808852431
12.01330376940133,-0.25468334964020184
12.046674057649668,-0.274395991741079
12.080044345898004,-0.2528854550932757
12.113414634146341,-0.200451969448474
12.146784922394678,-0.12925165388581658
12.180155210643015,-0.053344884778589674
12.213525498891352,0.011916349311684666
12.24689578713969,0.05358075788458899
12.280266075388028,0.06695523255242103
12.313636363636364,0.05961870300644958
12.347006651884701,0.049489000069162827
12.380376940133038,0.05621949678371922
12.413747228381375,0.08989018852758035
12.447117516629712,0.14367157093806904
12.480487804878049,0.19569698325607837
12.513858093126386,0.22020732028486004
12.547228381374723,0.2021215500378766
12.58059866962306,0.1464013872697708
12.613968957871396,0.07613190276253377
12.647339246119735,0.01993233490488688
12.680709534368072,-0.003995019514814086
12.714079822616409,0.002433242414943596
12.747450110864746,0.019641441541640305
12.780820399113082,0.02351695097713725
12.81419068736142,0.0011969669146557674
12.847560975609756,-0.04010593527222007
12.880931263858093,-0.0767311119692882
12.91430155210643,-0.08279117186004809
12.947671840354767,-0.046888833783621
12.981042128603104,0.0183445059383387
13.014412416851442,0.07966157596501099
13.04778270509978,0.09824381617173847
13.081152993348116,0.0487767064071925
13.114523281596453,-0.06710443023893373
13.14789356984479,-0.21958875343655454
13.181263858093127,-0.36204334554286993
13.214634146341464,-0.44939400690080206
13.2480044345898,-0.4552772971853027
13.281374722838137,-0.3810370507906306
13.314745011086474,-0.25373659721281155
13.348115299334811,-0.11496256608193908
13.381485587583148,-0.005367345445494592
13.414855875831487,0.04921540265801083
13.448226164079824,0.04542837186203293
13.48159645232816,0.0016558711422140246
13.514966740576497,-0.05029943308156259
13.548337028824834,-0.07766592198259939
13.581707317073171,-0.058320352145996825
13.615077605321508,0.012967765503942663
13.648447893569845,0.1257531719882342
13.681818181818182,0.26112999720668184
13.715188470066519,0.4005880268066184
13.748558758314855,0.5315547619538628
13.781929046563192,0.6468300366833104
13.815299334811531,0.7389274402273889
13.848669623059868,0.7936598760970107
13.882039911308205,0.7881990615756732
13.915410199556542,0.6966429692125559
13.948780487804878,0.5018791951374524
13.982150776053215,0.20848285687981988
14.015521064301552,-0.15017727882485454
14.048891352549889,-0.5154909609725482
14.082261640798226,-0.8180611069684587
14.115631929046563,-0.9983072777919078
14.1490022172949,-1.0254759372526807
14.182372505543238,-0.9076028550718509
14.215742793791575,-0.6883245507542629
14.249113082039912,-0.4315254915248692
14.282483370288249,-0.199706277896626
14.315853658536586,-0.03462799319337136
14.349223946784923,0.052187322288324324
14.38259423503326,0.07605262013930578
14.415964523281596,0.06587260244519516
14.449334811529933,0.04867651102235306
14.48270509977827,0.039933062596463516
14.516075388026607,0.04353253690524498
14.549445676274944,0.05907702444724791
14.582815964523283,0.08960377601247263
14.61618625277162,0.14299241071765922
14.649556541019956,0.22509492295392772
14.682926829268293,0.32905615139529737
14.71629711751663,0.429114256391074
14.749667405764967,0.48556906787559256
14.783037694013304,0.46107833951128435
14.81640798226164,0.340756355379252
14.849778270509978,0.14465271562376333
14.883148558758315,-0.07588981873110806
14.916518847006651,-0.25789116657242234
14.949889135254988,-0.3529943156822511
14.983259423503327,-0.3467581840733525
15.016629711751664,-0.26116548771639486
15.05,-0.1399653496263748
15.083370288248338,-0.025827130629895098
15.116740576496674,0.05791583422921916
15.150110864745011,0.11173854080345728
15.183481152993348,0.1498441624471858
15.216851441241685,0.18302728643968103
15.250221729490022,0.20560461956950452
15.283592017738359,0.19484235985757642
15.316962305986696,0.12397169612779024
15.350332594235034,-0.01811688295355555
15.383702882483371,-0.2118180010007444
15.417073170731708,-0.40607326502056784
15.450443458980045,-0.5345754313261241
15.483813747228382,-0.5426243261670499
15.517184035476719,-0.4122788220965992
15.550554323725056,-0.1735271079040396
15.583924611973393,0.10455968435427299
15.61729490022173,0.3394826059233675
15.650665188470066,0.46681763590394576
15.684035476718403,0.4638725293642361
15.71740576496674,0.35524943363878464
15.750776053215079,0.19821199288732036
15.784146341463416,0.055054293460702945
15.817516629711752,-0.03425767871846725
15.85088691796009,-0.0662882784897191
15.884257206208426,-0.06923043065501924
15.917627494456763,-0.08283400599956856
15.9509977827051,-0.13448258258013865
15.984368070953437,-0.2236623897618583
16.017738359201775,-0.3215204687841363
16.05110864745011,-0.3839340261180116
16.08447893569845,-0.37038435915916623
16.117849223946784,-0.2598412291728924
16.151219512195123,-0.05826483843348977
16.184589800443458,0.2028101810357613
16.217960088691797,0.47391532118971225
16.251330376940132,0.6983408155776262
16.28470066518847,0.8238819565773866
16.31807095343681,0.8145350011241229
16.351441241685144,0.6606058240182816
16.384811529933483,0.3845008683568378
16.418181818181818,0.039048696407183975
16.451552106430157,-0.3032906851346953
16.48492239467849,-0.5687284854995951
16.51829268292683,-0.7028886968976723
16.551662971175165,-0.6870745878752039
16.585033259423504,-0.5440241878322739
16.61840354767184,-0.3304835684818085
16.651773835920178,-0.11849702040247541
16.685144124168513,0.028562380751293682
16.71851441241685,0.0769784609723624
16.75188470066519,0.03306327103294651
16.785254988913525,-0.061185804045430024
16.818625277161864,-0.14582351695807236
16.8519955654102,-0.16747580772032927
16.885365853658538,-0.10110505348768528
16.918736141906873,0.03965262732860428
16.95210643015521,0.20777000769440773
16.985476718403547,0.3415776652669337
17.018847006651885,0.38927269748140336
17.05221729490022,0.329143890770495
17.08558758314856,0.17741447380662384
17.118957871396898,-0.019035469159375918
17.152328159645233,-0.20145534790345165
17.18569844789357,-0.32137560775280133
17.219068736141907,-0.3571047316622211
17.252439024390245,-0.3184394402514716
