Frequency (Hz),Amplitude
0.0,0.5690080601161305
0.019823788546255508,0.5863102294831253
0.039647577092511016,0.6353337510807513
0.059471365638766524,0.7093663456622137
0.07929515418502203,0.8012614583175507
0.09911894273127755,0.905293633060366
0.11894273127753305,1.0174019251400457
0.13876651982378857,1.134819683307756
0.15859030837004406,1.2556599025844046
0.17841409691629956,1.3786078756989593
0.1982378854625551,1.5027193065556381
0.2180616740088106,1.6272925146226667
0.2378854625550661,1.7517878362440962
0.25770925110132165,1.8757762442966053
0.27753303964757714,1.9989060394158051
0.29735682819383263,2.1208808445075666
0.31718061674008813,2.241444786834224
0.3370044052863437,2.360372336001393
0.3568281938325991,2.4774612154200044
0.37665198237885467,2.5925273803861635
0.3964757709251102,2.7054014103766075
0.41629955947136565,2.815925885203273
0.4361233480176212,2.9239534562195706
0.4559471365638767,3.0293454155676893
0.4757709251101322,3.1319706269869454
0.49559471365638774,3.2317047222521413
0.5154185022026433,3.3284294948877284
0.5352422907488987,3.4220324418255132
0.5550660792951543,3.512406416971488
0.5748898678414097,3.5994493700619747
0.5947136563876653,3.6830641509342787
0.6145374449339208,3.763158364223754
0.6343612334801763,3.839644263077344
0.6541850220264318,3.9124386731201994
0.6740088105726874,3.9814629398880936
0.6938325991189428,4.046642894426973
0.7136563876651982,4.107908832892677
0.7334801762114539,4.165195506851192
0.7533039647577093,4.218442121649317
0.7731277533039648,4.267592340747696
0.7929515418502204,4.31259429431726
0.8127753303964759,4.3534005907241475
0.8325991189427313,4.389968329786045
0.8524229074889869,4.422259116890637
0.8722466960352424,4.450239077234922
0.8920704845814978,4.473878869582466
0.9118942731277534,4.493153699049223
0.931718061674009,4.508043328524951
0.9515418502202644,4.51853208841827
0.9713656387665199,4.5246088844843335
0.9911894273127755,4.526267203556251
1.0110132158590308,4.523505117058
1.0308370044052866,4.516325282228959
1.0506607929515421,4.504734941040609
1.0704845814977975,4.488745916835296
1.090308370044053,4.4683746087680465
1.1101321585903086,4.443641984185346
1.1299559471365639,4.414573569132674
1.1497797356828194,4.381199437246952
1.1696035242290752,4.343554197362741
1.1894273127753305,4.301676980246212
1.209251101321586,4.255611424970453
1.2290748898678416,4.205405665565549
1.248898678414097,4.151112318721797
1.2687224669603525,4.0927884735013595
1.288546255506608,4.0304956842335375
1.3083700440528636,3.9642999680416273
1.3281938325991192,3.8942718087933104
1.3480176211453747,3.820486169701964
1.36784140969163,3.7430225173626464
1.3876651982378856,3.6619648607224224
1.4074889867841411,3.5774018094141176
1.4273127753303965,3.489426657097731
1.4471365638766522,3.3981374970575815
1.4669603524229078,3.303637379436843
1.4867841409691631,3.206034522357995
1.5066079295154187,3.1054425930644856
1.5264317180616742,3.001981080545827
1.5462555066079295,2.8957757884849853
1.5660792951541853,2.7869594877018575
1.5859030837004409,2.675672781922234
1.6057268722466962,2.562065261753282
1.6255506607929517,2.446297052403274
1.6453744493392073,2.328540905979233
1.6651982378854626,2.208985057157775
1.6850220264317182,2.087837164658426
1.7048458149779737,1.965329821675013
1.7246696035242293,1.8417283720909274
1.7444933920704848,1.7173421767926327
1.7643171806167404,1.5925411402621086
1.7841409691629957,1.4677804123272171
1.8039647577092512,1.343638032193487
1.8237885462555068,1.2208733895699089
1.8436123348017623,1.100519482496283
1.863436123348018,0.9840297354469092
1.8832599118942732,0.8735094158304694
1.9030837004405288,0.7720619946922156
1.9229074889867843,0.6842292818790767
1.9427312775330399,0.6162841469535265
1.9625550660792954,0.5756299402333007
1.982378854625551,0.5683338527659445
2.002202643171806,0.5956596339866741
2.0220264317180616,0.653188607275773
2.041850220264317,0.7336647112142509
2.061674008810573,0.8301831225015208
2.0814977973568287,0.9374900641261448
2.1013215859030843,1.0519377053213694
2.1211453744493394,1.1710539572216054
2.140969162995595,1.2931477223782406
2.1607929515418505,1.4170323991079679
2.180616740088106,1.5418479471074575
2.2004405286343616,1.6669489709968996
2.220264317180617,1.7918341422345958
2.2400881057268722,1.9161010794088373
2.2599118942731278,2.039416977699669
2.2797356828193833,2.16149911639666
2.299559471365639,2.282101672751892
2.319383259911895,2.40100663923009
2.3392070484581504,2.5180174620183746
2.3590308370044055,2.632954517635407
2.378854625550661,2.7456518528633924
2.3986784140969166,2.8559548071882803
2.418502202643172,2.9637182610962025
2.4383259911894277,3.068805334433631
2.4581497797356833,3.171086412573654
2.4779735682819384,3.2704384141367533
2.497797356828194,3.366744238592921
2.5176211453744495,3.4598923490867604
2.537444933920705,3.549776457763377
2.5572687224669606,3.6362952893498552
2.577092511013216,3.7193524048395648
2.5969162995594717,3.798856071553297
2.6167400881057272,3.874719169101412
2.6365638766519828,3.946859123181741
2.6563876651982383,4.015197860952031
2.676211453744494,4.07966178307828
2.6960352422907494,4.1401817485989065
2.715859030837005,4.196693069541153
2.73568281938326,4.2491355128442985
2.7555066079295156,4.297453307625231
2.775330396475771,4.341595156201455
2.7951541850220267,4.381514247586139
2.8149779735682823,4.4171682724105485
2.834801762114538,4.44851943842191
2.854625550660793,4.475534485862269
2.874449339207049,4.498184702163266
2.8942731277533045,4.516445935498471
2.91409691629956,4.530298606825953
2.9339207048458156,4.539727720130413
2.953744493392071,4.544722870641683
2.9735682819383262,4.545278250866099
2.993392070484582,4.541392654321533
3.0132158590308373,4.533069476918049
3.033039647577093,4.520316715975076
3.0528634361233484,4.503146966914949
3.072687224669604,4.481577417723338
3.092511013215859,4.455629841319924
3.1123348017621146,4.425330586041294
3.1321585903083706,4.390710564502872
3.151982378854626,4.351805241181222
3.1718061674008817,4.308654619144721
3.1916299559471373,4.261303226463408
3.2114537444933924,4.209800102952057
3.231277533039648,4.15419878805015
3.2511013215859035,4.094557310826908
3.270925110132159,4.030938183326576
3.2907488986784146,3.9634083987549333
3.31057268722467,3.892039436366401
3.3303964757709252,3.816907275367738
3.350220264317181,3.7380924207379755
3.3700440528634363,3.6556799446184765
3.389867841409692,3.5697595479074944
3.4096916299559474,3.480425647980114
3.4295154185022034,3.3877775001570702
3.4493392070484585,3.291919362818222
3.469162995594714,3.192960719119455
3.4889867841409696,3.0910165724402163
3.508810572687225,2.9862078384222266
3.5286343612334807,2.8786618644327073
3.5484581497797363,2.7685131185045666
3.5682819383259914,2.6559041057896993
3.588105726872247,2.5409865936394844
3.6079295154185025,2.4239232602182663
3.627753303964758,2.3048899317841056
3.6475770925110136,2.1840786496234927
3.667400881057269,2.0617019241120373
3.6872246696035247,1.9379987154225105
3.7070484581497802,1.8132429701249388
3.726872246696036,1.6877560125278857
3.7466960352422913,1.5619248643768084
3.7665198237885464,1.4362298648390321
3.7863436123348024,1.3112871613646488
3.8061674008810575,1.1879153630676071
3.8259911894273135,1.067241786453141
3.8458149779735686,0.9508729872895672
3.8656387665198246,0.8411644907535604
3.8854625550660797,0.741619900689592
3.905286343612335,0.6573676980333797
3.925110132158591,0.5953510835336872
3.9449339207048464,0.5632595963628267
3.964757709251102,0.5663537712675321
3.9845814977973575,0.6040995502233678
4.004405286343612,0.6705570505174877
4.024229074889869,0.7580063754483262
4.044052863436123,0.859792417660122
4.06387665198238,0.9710937220595427
4.083700440528634,1.0886352215654518
4.103524229074891,1.210212612400702
4.123348017621146,1.3343158827788928
4.143171806167401,1.4598792186454945
4.162995594713657,1.586123641654637
4.182819383259912,1.712458947850226
4.2026431718061685,1.8384220449696005
4.222466960352423,1.9636375178590553
4.242290748898679,2.087791907287574
4.262114537444934,2.2106165921743415
4.28193832599119,2.3318761745686367
4.301762114537445,2.4513604547777654
4.321585903083701,2.5688787947461336
4.3414096916299565,2.68425609983577
4.361233480176212,2.797329916544095
4.381057268722468,2.907948312233057
4.400881057268723,3.0159683111127547
4.420704845814979,3.1212547313651275
4.440528634361234,3.223679315200984
4.46035242290749,3.3231200752841237
4.4801762114537445,3.4194608026179
4.500000000000001,3.512590696027342
4.5198237885462555,3.602404083947649
4.539647577092512,3.688800216762511
4.559471365638767,3.771683113362748
4.579295154185023,3.8509614495489184
4.599118942731278,3.926548478810587
4.618942731277533,3.998361978177609
4.63876651982379,4.066324213460602
4.658590308370044,4.130361919425549
4.678414096916301,4.190406291384975
4.6982378854625555,4.24639298540869
4.718061674008811,4.29826212491749
4.737885462555067,4.345958311859968
4.757709251101322,4.389430641017974
4.777533039647578,4.428632716259597
4.797356828193833,4.463522667778338
4.817180616740089,4.4940631695338125
4.837004405286344,4.5202214562541725
4.856828193832599,4.541969339479164
4.876651982378855,4.559283222221923
4.896475770925111,4.572144111911642
4.9162995594713665,4.580537631350859
4.936123348017622,4.584454027484473
4.955947136563877,4.583888177833543
4.975770925110133,4.57883959449866
4.995594713656388,4.569312425686614
5.015418502202644,4.555315454760902
5.035242290748899,4.536862096864781
5.055066079295155,4.513970393214168
5.07488986784141,4.486663003210842
5.094713656387666,4.454967194583544
5.114537444933921,4.418914831829824
5.134361233480177,4.378542363305875
5.154185022026432,4.333890807398889
5.174008810572688,4.2850057383200655
5.193832599118943,4.231937272181507
5.213656387665199,4.1747400541721795
5.2334801762114544,4.1134732478357305
5.25330396475771,4.048200527685439
5.2731277533039655,3.9789900766836914
5.292951541850221,3.9059145904817036
5.312775330396477,3.8290512907850554
5.332599118942731,3.7484819508132254
5.352422907488988,3.6642929366021675
5.372246696035242,3.5765752689166086
5.392070484581499,3.4854247118794226
5.4118942731277535,3.390941896203911
5.43171806167401,3.293232487298683
5.451541850220265,3.1924074117390124
5.47136563876652,3.088583160005186
5.491189427312777,2.981882189475556
5.511013215859031,2.8724334601675947
5.530837004405288,2.7603731477501565
5.550660792951542,2.6458455955858997
5.570484581497798,2.5290045925986746
5.5903083700440535,2.4100151006662904
5.610132158590309,2.289055610494724
5.6299559471365646,2.166321389048669
5.64977973568282,2.0420290119407647
5.669603524229076,1.9164227798732902
5.689427312775331,1.789783949157668
5.709251101321586,1.6624442492703213
5.729074889867842,1.5348060682845348
5.748898678414098,1.4073732312205636
5.768722466960353,1.2807989542745153
5.788546255506609,1.1559621339269524
5.808370044052864,1.034090802246437
5.82819383259912,0.9169632631596171
5.848017621145375,0.8072298397615549
5.867841409691631,0.7088875576066446
5.887665198237886,0.6278139026202094
5.907488986784142,0.5718120563272474
5.927312775330397,0.5488875123473508
5.9471365638766525,0.5632149517405752
5.966960352422908,0.6121602207392924
5.986784140969164,0.68823691931051
6.00660792951542,0.7833530161534178
6.026431718061675,0.8911419365412605
6.04625550660793,1.0072056534441618
6.066079295154186,1.1286224249767
6.085903083700441,1.2534407374522243
6.105726872246697,1.380322777110153
6.125550660792952,1.5083189575715457
6.145374449339208,1.6367293326374535
6.1651982378854635,1.7650181965487886
6.185022026431718,1.8927606448574013
6.204845814977975,2.019608449722263
6.224669603524229,2.145267794142585
6.244493392070486,2.2694844342511873
6.264317180616741,2.392033613680421
6.284140969162996,2.512713082295377
6.303964757709252,2.6313381839148366
6.323788546255507,2.7477383491681255
6.3436123348017635,2.8617545594982507
6.363436123348018,2.9732374933131056
6.3832599118942746,3.08204615846699
6.403083700440529,3.1880468762157026
6.422907488986785,3.2911125223459474
6.44273127753304,3.3911219585959675
6.462555066079296,3.487959606293022
6.482378854625551,3.581515127220335
6.502202643171807,3.671683185950703
6.5220264317180625,3.758363274467754
6.541850220264318,3.8414595846484882
6.561674008810574,3.920880917650474
6.581497797356829,3.9965406218047224
6.601321585903085,4.068356552521058
6.62114537444934,4.1362510491442395
6.640969162995596,4.200150924785127
6.6607929515418505,4.259987465981305
6.680616740088107,4.315696439682091
6.700440528634362,4.367218105550308
6.720264317180618,4.414497231962937
6.740088105726873,4.457483114400724
6.759911894273129,4.496129595161802
6.779735682819384,4.530395083530779
6.799559471365639,4.560242575694173
6.819383259911895,4.585639673823248
6.83920704845815,4.606558603852559
6.859030837004407,4.622976231572808
6.8788546255506615,4.634874076732897
6.898678414096917,4.64223832491163
6.918502202643173,4.645059836977761
6.938325991189428,4.643334156009165
6.958149779735684,4.637061511589843
6.977973568281939,4.626246821449314
6.997797356828195,4.610899690453891
7.01762114537445,4.5910344070042814
7.037444933920705,4.566669936941603
7.0572687224669615,4.537829915114622
7.077092511013216,4.50454263481669
7.096916299559473,4.4668410353650705
7.116740088105728,4.424762688167755
7.136563876651983,4.378349781709386
7.156387665198239,4.3276491059900675
7.176211453744494,4.272712037075085
7.19603524229075,4.213594522564983
7.215859030837005,4.150357068981655
7.235682819383261,4.083064732300177
7.255506607929516,4.011787113147635
7.275330396475772,3.936598358561409
7.295154185022027,3.857577172673145
7.314977973568283,3.7748068392942997
7.334801762114538,3.6883752601708846
7.354625550660794,3.5983750137121557
7.374449339207049,3.5049034403665007
7.394273127753305,3.4080627626426603
7.4140969162995605,3.307960250227853
7.433920704845816,3.2047084439893694
7.453744493392072,3.098425457223822
7.473568281938327,2.9892353788740262
7.493392070484583,2.877268812364515
7.513215859030838,2.762663596411758
7.533039647577093,2.6455657724890767
7.552863436123348,2.5261308904342434
7.572687224669605,2.4045257835173106
7.59251101321586,2.280931004445763
7.612334801762115,2.1555442062597274
7.6321585903083715,2.0285848969126477
7.651982378854627,1.900301227734338
7.671806167400882,1.7709798534370655
7.691629955947137,1.6409605303616852
7.711453744493394,1.5106581904867171
7.731277533039649,1.3805970878152987
7.751101321585904,1.2514648901528913
7.7709251101321595,1.1242003856668208
7.790748898678416,1.0001384980308374
7.81057268722467,0.8812520965232267
7.830396475770926,0.7705473623999567
7.850220264317182,0.6726527996577952
7.870044052863436,0.5944471373765338
7.889867841409693,0.5448850194701901
7.909691629955948,0.5322870671424257
7.929515418502204,0.55924757466606
7.9493392070484585,0.6205764586073598
7.969162995594715,0.707221005581297
7.9889867841409705,0.8108561771850354
8.008810572687224,0.9254816969827275
8.02863436123348,1.0471409987551505
8.048458149779737,1.1732626523595628
8.068281938325994,1.3021419196365078
8.088105726872246,1.4326088371709755
8.107929515418503,1.5638276331002003
8.12775330396476,1.6951762900880811
8.147577092511014,1.8261732331284208
8.167400881057269,1.9564317371815265
8.187224669603525,2.0856308941809925
8.207048458149782,2.213496685877123
8.226872246696036,2.3397893685952575
8.246696035242293,2.464294892304553
8.266519823788547,2.586818955854334
8.286343612334802,2.7071828208737134
8.306167400881058,2.8252203217224716
8.325991189427315,2.9407757034194564
8.345814977973568,3.0537020421463867
8.365638766519824,3.163860081793525
8.38546255506608,3.2711173716597433
8.405286343612337,3.3753476248232794
8.42511013215859,3.4764302399886433
8.444933920704846,3.574249945619477
8.464757709251103,3.668696536321009
8.484581497797357,3.759664679311128
8.504405286343614,3.8470537744501656
8.524229074889869,3.9307678553711836
8.544052863436125,4.010715522230569
8.56387665198238,4.086809898797045
8.583700440528636,4.158968608239306
8.60352422907489,4.227113763206376
8.623348017621145,4.291171966733904
8.643171806167402,4.351074321227781
8.662995594713658,4.406756443332154
8.682819383259913,4.458158482920398
8.702643171806168,4.505225144787638
8.722466960352424,4.547905711891128
8.74229074889868,4.586154069199373
8.762114537444935,4.619928727382557
8.78193832599119,4.649192845717053
8.801762114537446,4.673914253691131
8.821585903083701,4.694065470894227
8.841409691629957,4.709623724851469
8.861233480176212,4.720570966533831
8.881057268722468,4.726893883332476
8.900881057268723,4.728583909338728
8.92070484581498,4.725637232817624
8.940528634361234,4.718054800807523
8.960352422907489,4.705842320819914
8.980176211453745,4.689010259655034
9.000000000000002,4.667573839391429
9.019823788546258,4.641553030651581
9.039647577092511,4.610972543294008
9.059471365638768,4.575861814735284
9.079295154185024,4.536254996165989
9.099118942731279,4.492190936994608
9.118942731277533,4.443713167935902
9.13876651982379,4.390869883259413
9.158590308370046,4.333713922832948
9.1784140969163,4.272302754743024
9.198237885462555,4.206698459455578
9.218061674008812,4.136967716707164
9.237885462555067,4.063181796602506
9.257709251101323,3.9854165567574906
9.27753303964758,3.9037524477921495
9.297356828193834,3.818274530078821
9.317180616740089,3.729072505434284
9.337004405286345,3.6362407684732028
9.356828193832602,3.539878483704292
9.376651982378855,3.440089696276315
9.396475770925111,3.3369834867470565
9.416299559471367,3.230674183616325
9.436123348017622,3.121281652011965
9.455947136563877,3.008931683408691
9.475770925110133,2.8937565204357516
9.49559471365639,2.7758955639761544
9.515418502202644,2.655496328862036
9.5352422907489,2.5327157426521323
9.555066079295155,2.4077219242357595
9.57488986784141,2.280696643497321
9.594713656387666,2.1518387635598293
9.614537444933923,2.021369126260598
9.634361233480178,1.889537599543427
9.654185022026432,1.7566334335492664
9.674008810572689,1.6230007997050044
9.693832599118945,1.489062654139296
9.713656387665198,1.3553583263068225
9.733480176211454,1.22260434526153
9.75330396475771,1.091795576858959
9.773127753303967,0.964377462726057
9.792951541850222,0.8425431571588264
9.812775330396477,0.7297373001947846
9.832599118942733,0.6314280983274781
9.852422907488988,0.5559016057626022
9.872246696035244,0.5137220385799278
9.892070484581499,0.5134147004974342
9.911894273127754,0.5551072680454145
9.93171806167401,0.6304325643951478
9.951541850220266,0.7288395275743523
9.971365638766521,0.8419987737341351
9.991189427312776,0.9643999332399275
10.011013215859032,1.0925693309059332
10.030837004405289,1.2242952055801846
10.050660792951543,1.358119935192306
10.070484581497798,1.4930401521417396
10.090308370044054,1.6283328780959838
10.11013215859031,1.7634534568030353
10.129955947136565,1.8979741943753372
10.14977973568282,2.031546459683081
10.169603524229077,2.1638766360983555
10.189427312775331,2.2947104706114225
10.209251101321588,2.423822649315561
10.229074889867842,2.551009708028047
10.248898678414099,2.676085121376322
10.268722466960353,2.798875845749926
10.28854625550661,2.9192198518443964
10.308370044052865,3.0369643430111224
10.32819383259912,3.151964456728993
10.348017621145376,3.264082311505953
10.367841409691632,3.3731863040931884
10.387665198237887,3.479150590278022
10.407488986784141,3.5818547017552307
10.427312775330398,3.681183264809871
10.447136563876654,3.7770257957793327
10.466960352422909,3.869276554792887
10.486784140969164,3.957834443961938
10.50660792951542,4.042602939581033
10.526431718061675,4.123490050379285
10.546255506607931,4.200408295696505
10.566079295154186,4.273274698829025
10.585903083700442,4.3420107918240385
10.605726872246697,4.40654262878723
10.625550660792953,4.466800805372151
10.645374449339208,4.522720482586495
10.665198237885463,4.574241413414654
10.685022026431719,4.621307971042096
10.704845814977975,4.663869177694241
10.724669603524232,4.701878733283872
10.744493392070485,4.735295043207612
