Frequency (Hz),Amplitude
0.0,3.1608186694412472
0.019801980198019802,3.1719666190804885
0.039603960396039604,3.2051344308554643
0.0594059405940594,3.2595221333295075
0.07920792079207921,3.333883625200311
0.09900990099009901,3.4266369680549955
0.1188118811881188,3.535985847328571
0.13861386138613863,3.6600333994414287
0.15841584158415842,3.7968761679718193
0.1782178217821782,3.9446732159687
0.19801980198019803,4.101691065472478
0.21782178217821782,4.266328371846049
0.2376237623762376,4.437125381496541
0.25742574257425743,4.612763009212649
0.27722772277227725,4.792055511768175
0.297029702970297,4.973939711533244
0.31683168316831684,5.157462795435176
0.33663366336633666,5.341769978913165
0.3564356435643564,5.5260927902908765
0.37623762376237624,5.709738367776671
0.39603960396039606,5.892079928133557
0.4158415841584158,6.072548424987978
0.43564356435643564,6.250625335525848
0.45544554455445546,6.42583647480991
0.4752475247524752,6.597746721818266
0.495049504950495,6.765955540383481
0.5148514851485149,6.930093184993986
0.5346534653465347,7.089817491876844
0.5544554455445545,7.244811167517097
0.5742574257425742,7.394779498424882
0.594059405940594,7.53944841682702
0.613861386138614,7.678562866712821
0.6336633663366337,7.811885423209729
0.6534653465346534,7.939195125634144
0.6732673267326733,8.060286490848748
0.6930693069306931,8.17496867888172
0.7128712871287128,8.283064787250195
0.7326732673267327,8.384411254201336
0.7524752475247525,8.478857354249449
0.7722772277227723,8.566264772042574
0.7920792079207921,8.646507242821672
0.8118811881188118,8.719470249610204
0.8316831683168316,8.785050768853198
0.8514851485148516,8.84315705756176
0.8712871287128713,8.893708476156041
0.891089108910891,8.936635342170907
0.9108910891089109,8.971878810825187
0.9306930693069307,8.99939077918103
0.9504950495049505,9.019133811258351
0.9702970297029703,9.031081082035762
0.99009900990099,9.035216338783167
1.00990099009901,9.031533878642513
1.0297029702970297,9.020038541818034
1.0495049504950495,9.000745720164721
1.0693069306930694,8.97368138138643
1.0891089108910892,8.938882109482343
1.108910891089109,8.89639516252523
1.1287128712871286,8.846278549326527
1.1485148514851484,8.788601127056248
1.1683168316831685,8.723442722453088
1.188118811881188,8.650894279896873
1.2079207920792079,8.571058040342011
1.227722772277228,8.484047755946042
1.2475247524752475,8.389988946198283
1.2673267326732673,8.289019202489156
1.2871287128712872,8.181288549396962
1.3069306930693068,8.066959872547791
1.3267326732673268,7.946209424776958
1.3465346534653466,7.819227424546217
1.3663366336633662,7.686218763222327
1.3861386138613863,7.547403840981182
1.405940594059406,7.403019554865345
1.4257425742574257,7.253320466999999
1.4455445544554455,7.0985801862823354
1.4653465346534653,6.939093003129318
1.4851485148514851,6.7751758242154425
1.504950495049505,6.607170462650347
1.5247524752475248,6.435446348763628
1.5445544554455446,6.2604037374856585
1.5643564356435644,6.082477499917492
1.5841584158415842,5.902141598358117
1.6039603960396038,5.71991435445147
1.6237623762376237,5.536364626838403
1.6435643564356437,5.352119013742078
1.6633663366336633,5.167870180801902
1.683168316831683,4.984386375091113
1.7029702970297032,4.802522107377098
1.7227722772277227,4.623229844314469
1.7425742574257426,4.4475723203683755
1.7623762376237624,4.276734718178265
1.782178217821782,4.112035435121947
1.801980198019802,3.9549334227205817
1.8217821782178218,3.80702916273566
1.8415841584158414,3.6700553262689297
1.8613861386138615,3.5458523047580104
1.881188118811881,3.4363235832144623
1.900990099009901,3.3433670460376246
1.920792079207921,3.268781502276635
1.9405940594059405,3.214153307014184
1.9603960396039604,3.1807351720186703
1.98019801980198,3.1693358165017367
2.0,3.180241689289448
2.01980198019802,3.213187976073418
2.0396039603960396,3.2673856821365077
2.0594059405940595,3.34159842479581
2.0792079207920793,3.4342519813379777
2.099009900990099,3.5435553856703463
2.118811881188119,3.6676147592416966
2.1386138613861387,3.804527540123698
2.1584158415841586,3.952452010571707
2.1782178217821784,4.109652684761728
2.1980198019801978,4.274525392239879
2.217821782178218,4.4456070705550905
2.237623762376238,4.621575095119658
2.257425742574257,4.801240130248497
2.2772277227722775,4.9835354690078475
2.297029702970297,5.167504902190863
2.3168316831683167,5.352290419372886
2.336633663366337,5.5371205081302035
2.3564356435643563,5.721299451614568
2.376237623762376,5.9041977892143604
2.3960396039603964,6.085243962166429
2.4158415841584158,6.26391708543543
2.4356435643564356,6.439740746722696
2.455445544554456,6.612277717686956
2.4752475247524752,6.781125461107452
2.495049504950495,6.9459123242221255
2.514851485148515,7.106294318755259
2.5346534653465347,7.261952399778111
2.5544554455445545,7.4125901671415395
2.5742574257425743,7.5579319240538165
2.594059405940594,7.697721037116861
2.6138613861386135,7.831718550679015
2.633663366336634,7.959702015736373
2.6534653465346536,8.081464499909698
2.673267326732673,8.196813750357492
2.6930693069306932,8.305571485983208
2.712871287128713,8.407572799075623
2.7326732673267324,8.502665649695853
2.7524752475247527,8.59071043878766
2.7722772277227725,8.671579648225697
2.792079207920792,8.745157537897358
2.811881188118812,8.811339891501037
2.8316831683168315,8.870033804086333
2.8514851485148514,8.921157505503107
2.8712871287128716,8.964640214901536
2.891089108910891,9.000422022265797
2.910891089108911,9.028453793692933
2.9306930693069306,9.04869709776955
2.9504950495049505,9.061124150968528
2.9702970297029703,9.065717780503636
2.99009900990099,9.062471403553955
3.00990099009901,9.051389022217053
3.0297029702970297,9.032485233979033
3.0495049504950495,9.005785257914752
3.0693069306930694,8.971324977260833
3.089108910891089,8.929150999450634
3.108910891089109,8.879320735174858
3.128712871287129,8.82190249854626
3.148514851485148,8.756975631016717
3.1683168316831685,8.6846306523349
3.1881188118811883,8.604969442561442
3.2079207920792077,8.518105459997367
3.227722772277228,8.4241640008551
3.2475247524752473,8.323282507640707
3.267326732673267,8.215610934554876
3.2871287128712874,8.101312179802592
3.3069306930693068,7.980562596576594
3.3267326732673266,7.853552596708162
3.346534653465347,7.7204873636306495
3.366336633663366,7.581587694459526
3.386138613861386,7.437090994752533
3.4059405940594063,7.287252453982811
3.4257425742574257,7.132346435054355
3.4455445544554455,6.972668117435472
3.4653465346534653,6.808535440796971
3.485148514851485,6.640291404505438
3.504950495049505,6.4683067879597145
3.5247524752475248,6.292983367465138
3.5445544554455446,6.114757716781575
3.564356435643564,5.934105689931208
3.5841584158415842,5.7515476949390205
3.603960396039604,5.56765487349511
3.6237623762376234,5.383056300047291
3.6435643564356437,5.198447298075432
3.6633663366336635,5.014598931179753
3.683168316831683,4.8323686469893135
3.702970297029703,4.652711910959142
3.722772277227723,4.476694435216483
3.7425742574257423,4.30550424770736
3.762376237623762,4.140462319300911
3.7821782178217824,3.9830297422314462
3.801980198019802,3.834808542124175
3.8217821782178216,3.6975322052750452
3.841584158415842,3.5730411656822603
3.8613861386138613,3.463238294387518
3.881188118811881,3.370020553102033
3.9009900990099013,3.2951861349383176
3.9207920792079207,3.2403219219032584
3.9405940594059405,3.2066831867454844
3.96039603960396,3.195083919820614
3.98019801980198,3.205818725830527
4.0,3.238633339022792
4.01980198019802,3.2927506096493606
4.03960396039604,3.366945879118843
4.0594059405940595,3.4596551679953262
4.079207920792079,3.5690952806350165
4.099009900990099,3.6933771529693806
4.118811881188119,3.8306000766973005
4.138613861386139,3.9789215643758733
4.158415841584159,4.136603254663546
4.178217821782178,4.302036557598622
4.198019801980198,4.473752964966772
4.217821782178218,4.6504238100085695
4.237623762376238,4.830853448717338
4.257425742574258,5.013968837337626
4.2772277227722775,5.198807561763329
4.297029702970297,5.384505639124602
4.316831683168317,5.570285873573837
4.336633663366336,5.755447179628928
4.356435643564357,5.939355047989408
4.376237623762377,6.121433183204303
4.3960396039603955,6.3011562598507105
4.415841584158416,6.478043701760664
4.435643564356436,6.651654371826727
4.455445544554455,6.821582057688744
4.475247524752476,6.987451644495889
4.4950495049504955,7.148915875805034
4.514851485148514,7.305652615029846
4.534653465346535,7.457362531272337
4.554455445544555,7.603767144091691
4.574257425742574,7.744607171439666
4.594059405940594,7.87964113350055
4.613861386138614,8.008644172531852
4.633663366336633,8.131407055092959
4.653465346534653,8.247735328386334
4.673267326732674,8.357448606941524
4.693069306930693,8.460379969663464
4.712871287128713,8.55637545045238
4.732673267326733,8.645293608277473
4.752475247524752,8.727005164835004
4.772277227722772,8.801392699812927
4.792079207920793,8.868350395381254
4.811881188118812,8.927783822878089
4.8316831683168315,8.97960976581097
4.851485148514852,9.023756074275356
4.871287128712871,9.060161546739135
4.891089108910891,9.088775835876808
4.910891089108912,9.109559375783654
4.930693069306931,9.122483328474342
4.9504950495049505,9.127529548091434
4.97029702970297,9.124690561727425
4.99009900990099,9.113969566214973
5.00990099009901,9.09538044067433
5.02970297029703,9.068947775035353
5.0495049504950495,9.034706915185922
5.069306930693069,8.992704025849353
5.089108910891089,8.942996172772386
5.108910891089109,8.885651426325483
5.128712871287129,8.820748989192126
5.148514851485149,8.748379351469563
5.1683168316831685,8.668644477238326
5.188118811881188,8.581658027503792
5.207920792079208,8.487545625393533
5.227722772277227,8.386445170641846
5.247524752475248,8.278507211739933
5.267326732673268,8.163895385721444
5.2871287128712865,8.042786937437297
5.306930693069307,7.915373332410752
5.326732673267327,7.781860980023179
5.346534653465346,7.642472086945288
5.366336633663367,7.497445664490594
5.3861386138613865,7.347038718033731
5.405940594059405,7.191527651919955
5.425742574257426,7.031209929512095
5.445544554455446,6.866406035285077
5.465346534653465,6.697461794263498
5.485148514851486,6.524751113614205
5.504950495049505,6.348679221727153
5.524752475247524,6.169686491287544
5.544554455445545,5.988252943898881
5.564356435643565,5.80490354334821
5.584158415841584,5.620214390153067
5.603960396039604,5.434819927514029
5.623762376237624,5.249421251690931
5.643564356435643,5.064795578021773
5.663366336633663,4.881806832227663
5.683168316831684,4.701417193709399
5.702970297029703,4.524699184092018
5.7227722772277225,4.352847534263269
5.742574257425743,4.187189538558769
5.762376237623762,4.029191889027823
5.782178217821782,3.880461088700553
5.801980198019803,3.7427335703293414
5.821782178217822,3.617850848343973
5.841584158415841,3.507714870499374
5.861386138613861,3.414219878235851
5.881188118811881,3.339160220061639
5.900990099009901,3.2841189651274845
5.920792079207921,3.2503490796796544
5.9405940594059405,3.238665180812772
5.96039603960396,3.249366340846717
5.98019801980198,3.282206614731297
6.0,3.336420061916253
6.01980198019802,3.4107944537555457
6.03960396039604,3.503777589489947
6.0594059405940595,3.613595817448393
6.079207920792079,3.738366390010126
6.099009900990099,3.8761913447032086
6.118811881188119,4.0252275545495975
6.138613861386139,4.183733149138377
6.158415841584159,4.350093816685848
6.178217821782178,4.522833773243737
6.198019801980198,4.700616102589224
6.217821782178218,4.882236405243903
6.237623762376237,5.06661272793359
6.257425742574258,5.2527738420810275
6.2772277227722775,5.439847210798782
6.297029702970296,5.627047446071815
6.316831683168317,5.813665686864553
6.336633663366337,5.999060087164147
6.356435643564356,6.182647454152299
6.376237623762377,6.363895991126151
6.396039603960396,6.542319055375025
6.415841584158415,6.717469822460365
6.435643564356436,6.888936744825632
6.455445544554456,7.056339697626864
6.475247524752475,7.2193267138903625
6.495049504950495,7.37757122201099
6.514851485148515,7.530769709721505
6.534653465346534,7.67863974919073
6.554455445544554,7.820918327458056
6.574257425742575,7.957360434846157
6.594059405940594,8.087737871310443
6.6138613861386135,8.211838236954623
6.633663366336634,8.329464078274587
6.653465346534653,8.440432166200797
6.673267326732673,8.544572885810293
6.693069306930694,8.641729720775917
6.712871287128713,8.731758818308577
6.732673267326732,8.814528622609492
6.752475247524753,8.889919566754422
6.772277227722772,8.957823814540292
6.792079207920792,9.018145045187712
6.811881188118813,9.070798274952505
6.8316831683168315,9.115709710692029
6.851485148514851,9.15281663128749
6.871287128712871,9.182067293567092
6.891089108910891,9.20342086002882
6.910891089108911,9.216847346243732
6.930693069306931,9.222327586347639
6.9504950495049505,9.219853215514572
6.97029702970297,9.209426668762685
6.99009900990099,9.191061195883943
7.00990099009901,9.164780892723982
7.02970297029703,9.130620749479363
7.0495049504950495,9.08862671713748
7.069306930693069,9.038855793670546
7.089108910891089,8.981376132123138
7.108910891089109,8.916267173316262
7.128712871287128,8.843619806545895
7.148514851485149,8.763536562399224
7.1683168316831685,8.676131842668424
7.188118811881187,8.581532193335011
7.207920792079208,8.479876627758431
7.227722772277228,8.371317008564139
7.247524752475247,8.256018498332992
7.267326732673268,8.134160091094387
7.287128712871287,8.005935238878623
7.306930693069306,7.8715525902596255
7.326732673267327,7.731236860996982
7.346534653465347,7.585229860658447
7.366336633663366,7.433791703572301
7.3861386138613865,7.277202237733857
7.405940594059406,7.115762731482006
7.425742574257425,6.949797864969076
7.445544554455446,6.779658081733149
7.465346534653466,6.605722365034781
7.485148514851485,6.428401513887532
7.504950495049505,6.248142004495935
7.524752475247524,6.065430533304621
7.544554455445544,5.880799346577004
7.564356435643565,5.694832465819862
7.584158415841584,5.508172914274667
7.603960396039604,5.321531030483535
7.623762376237624,5.135693910439953
7.643564356435643,4.951535934995579
7.663366336633663,4.770030192665093
7.683168316831684,4.59226037123628
7.702970297029703,4.419432329914842
7.7227722772277225,4.252884041424164
7.742574257425743,4.09409188761604
7.762376237623762,3.9446704202859633
7.782178217821782,3.8063617653987594
7.801980198019803,3.6810101068542758
7.821782178217822,3.570516590256568
7.841584158415841,3.4767711788778506
7.861386138613862,3.40156111854624
7.881188118811881,3.346460953153923
7.900990099009901,3.3127157094506896
7.92079207920792,3.301134827359482
7.9405940594059405,3.3120166707420173
7.96039603960396,3.3451197037347042
7.980198019801979,3.3996868543882384
8.0,3.4745174784353416
8.01980198019802,3.5680714235053097
8.03960396039604,3.6785854412599237
8.05940594059406,3.804184039121587
8.07920792079208,3.9429726310062367
8.099009900990099,4.0931075477251975
8.118811881188119,4.2528428964067855
8.138613861386139,4.420557548691114
8.158415841584159,4.594766859925651
8.178217821782178,4.774123705411297
8.198019801980198,4.957412713698819
8.217821782178218,5.1435406512980375
8.237623762376238,5.331525034638044
8.257425742574258,5.5204823272402175
8.277227722772277,5.709616545402774
8.297029702970297,5.898208723495553
8.316831683168317,6.085607445119644
8.336633663366337,6.271220493991339
8.356435643564357,6.454507589517833
8.376237623762377,6.634974124831362
8.396039603960396,6.812165804090141
8.415841584158416,6.985664070667124
8.435643564356436,7.1550822215867775
8.455445544554456,7.320062111907336
8.475247524752476,7.480271363035376
8.495049504950495,7.635400999651754
8.514851485148515,7.785163450169006
8.534653465346535,7.929290855002185
8.554455445544555,8.067533635250797
8.574257425742575,8.19965928163371
8.594059405940595,8.325451329751345
8.613861386138613,8.444708493062732
8.633663366336634,8.557243929470108
8.653465346534654,8.662884621208034
8.673267326732672,8.761470850940862
8.693069306930694,8.852855759673025
8.712871287128714,8.936904974351831
8.732673267326732,9.013496294961861
8.752475247524753,9.082519432532692
8.772277227722773,9.14387579085838
8.792079207920791,9.197478285899535
8.811881188118813,9.24325119784375
8.831683168316832,9.281130051666569
8.85148514851485,9.311061522789556
8.871287128712872,9.333003365096106
8.891089108910892,9.346924359156487
8.91089108910891,9.35280427905061
8.930693069306932,9.350633876670267
8.950495049504951,9.340414882849615
8.97029702970297,9.322160025120763
8.990099009900991,9.295893062336562
9.00990099009901,9.261648836851796
9.029702970297029,9.219473345421871
9.04950495049505,9.169423830474823
9.06930693069307,9.111568893951297
9.089108910891088,9.04598863650287
9.10891089108911,8.97277482550733
9.12871287128713,8.892031096119423
9.148514851485148,8.803873190448185
9.16831683168317,8.708429240963163
9.188118811881187,8.605840105411733
9.207920792079207,8.496259761913073
9.227722772277229,8.379855774524108
9.247524752475247,8.256809841497391
9.267326732673267,8.127318440730402
9.287128712871288,7.991593589606306
9.306930693069306,7.849863739628138
9.326732673267326,7.70237483003982
9.346534653465348,7.54939152910683
9.366336633663366,7.391198697000194
9.386138613861386,7.228103110392278
9.405940594059407,7.060435496014941
9.425742574257425,6.888552928595817
9.445544554455445,6.712841657735988
9.465346534653467,6.533720438231622
9.485148514851485,6.351644448621589
9.504950495049505,6.167109892478731
9.524752475247526,5.980659384577643
9.544554455445544,5.792888226903207
9.564356435643564,5.604451673191965
9.584158415841586,5.416073258546936
9.603960396039604,5.228554222346993
9.623762376237623,5.042783963115452
9.643564356435645,4.859751312116497
9.663366336633663,4.680556170453923
9.683168316831683,4.506420689264405
9.702970297029704,4.338698651560097
9.722772277227723,4.178881019269685
9.742574257425742,4.028594764110935
9.762376237623764,3.8895912171360854
9.782178217821782,3.763719504772427
9.801980198019802,3.6528806347617833
9.821782178217823,3.55895906418198
9.841584158415841,3.4837317139477904
9.861386138613861,3.428759553381782
9.881188118811881,3.3952732684292655
9.900990099009901,3.3840701034735576
9.92079207920792,3.3954409280680835
9.94059405940594,3.4291428221321443
9.96039603960396,3.4844232655989535
9.98019801980198,3.560090475409921
10.0,3.6546149997742634
10.01980198019802,3.7662435933516836
10.03960396039604,3.8931080809352543
10.05940594059406,4.033317357396742
10.07920792079208,4.185027065095647
10.099009900990099,4.346486735138405
10.118811881188119,4.516067417498536
10.138613861386139,4.692274181793964
10.158415841584159,4.873747922746407
10.178217821782178,5.059260265732813
10.198019801980198,5.247704493127703
10.217821782178218,5.438084565599958
10.237623762376238,5.629503611316693
10.257425742574258,5.821152727731363
10.277227722772277,6.012300568883988
10.297029702970297,6.202283943850711
10.316831683168317,6.390499496099392
10.336633663366337,6.576396441089584
10.356435643564357,6.75947028914704
10.376237623762377,6.939257457144962
10.396039603960396,7.115330665360501
10.415841584158416,7.287295018127216
10.435643564356436,7.4547846741518144
10.455445544554454,7.617460021871312
10.475247524752476,7.775005285369558
10.495049504950495,7.927126496233869
10.514851485148514,8.073549775839098
10.534653465346535,8.214019880693765
10.554455445544555,8.348298970621332
10.574257425742573,8.476165565717935
10.594059405940595,8.59741366330726
10.613861386138614,8.71185199060273
10.633663366336632,8.819303372589681
10.653465346534654,8.919604197852497
10.673267326732674,9.012603967783432
10.693069306930692,9.09816491689808
10.712871287128714,9.176161693917068
10.732673267326733,9.246481094911069
10.752475247524751,9.309021841198158
10.772277227722773,9.363694395869253
10.792079207920793,9.410420813836456
10.81188118811881,9.449134621178532
10.831683168316832,9.479780720324916
10.851485148514852,9.502315318295087
10.87128712871287,9.516705875813665
10.891089108910892,9.522931075668266
