Frequency (Hz),Amplitude
0.0,3.239693412838231
0.019823788546255508,3.2381370954442064
0.039647577092511016,3.233469794672734
0.059471365638766524,3.2256964643719415
0.07929515418502203,3.2148253597032013
0.09911894273127755,3.200868035355058
0.11894273127753305,3.1838393432309045
0.13876651982378857,3.1637574298053597
0.15859030837004406,3.1406437334114634
0.17841409691629956,3.11452298179652
0.1982378854625551,3.0854231903714036
0.2180616740088106,3.0533756616818124
0.2378854625550661,3.018414986751944
0.25770925110132165,2.9805790490997195
0.27753303964757714,2.9399090324027166
0.29735682819383263,2.8964494330164072
0.31718061674008813,2.850248078821506
0.3370044052863437,2.8013561562215594
0.3568281938325991,2.7498282475456657
0.37665198237885467,2.6957223816607203
0.3964757709251102,2.639100101300222
0.41629955947136565,2.5800265515201466
0.4361233480176212,2.5185705948634793
0.4559471365638767,2.454804960344199
0.4757709251101322,2.3888064353738714
0.49559471365638774,2.3206561124235203
0.5154185022026433,2.250439705785026
0.5352422907488987,2.1782479586156778
0.5550660792951543,2.1041771670135128
0.5748898678414097,2.0283298568945023
0.5947136563876653,1.9508156619717654
0.6145374449339208,1.8717524687096518
0.6343612334801763,1.7912679190322591
0.6541850220264318,1.7095013972443052
0.6740088105726874,1.6266066792766354
0.6938325991189428,1.5427554979301124
0.7136563876651982,1.4581423893893806
0.7334801762114539,1.3729913524332655
0.7533039647577093,1.2875651004552005
0.7731277533039648,1.2021780586822555
0.7929515418502204,1.1172148111990556
0.8127753303964759,1.0331564996494889
0.8325991189427313,0.9506187534363454
0.8524229074889869,0.8704059610353331
0.8722466960352424,0.7935873808531383
0.8920704845814978,0.7215984499401515
0.9118942731277534,0.6563596283556897
0.931718061674009,0.600372814611897
0.9515418502202644,0.556688128024726
0.9713656387665199,0.5285556038466837
0.9911894273127755,0.5186302138112817
1.0110132158590308,0.527979966213552
1.0308370044052866,0.5555992145117286
1.0506607929515421,0.5988686487798035
1.0704845814977975,0.6545432429004934
1.090308370044053,0.7195598743780296
1.1101321585903086,0.7913984865506346
1.1299559471365639,0.8681220168336015
1.1497797356828194,0.9482819807533298
1.1696035242290752,1.0307995056260295
1.1894273127753305,1.1148632912150775
1.209251101321586,1.1998527596510637
1.2290748898678416,1.285283200556023
1.248898678414097,1.3707674198894775
1.2687224669603525,1.4559890485555738
1.288546255506608,1.540683894489708
1.3083700440528636,1.624626807699627
1.3281938325991192,1.7076223333088119
1.3480176211453747,1.7894979863552785
1.36784140969163,1.8700993589452168
1.3876651982378856,1.9492865221331228
1.4074889867841411,2.026931353102821
1.4273127753303965,2.1029155311740326
1.4471365638766522,2.177129022615282
1.4669603524229078,2.2494689264946897
1.4867841409691631,2.3198385898785197
1.5066079295154187,2.3881469258653363
1.5264317180616742,2.454307885702076
1.5462555066079295,2.518240048885575
1.5660792951541853,2.579866304266497
1.5859030837004409,2.6391136017996053
1.6057268722466962,2.6959127594490946
1.6255506607929517,2.7501983133615067
1.6453744493392073,2.8019084021117897
1.6651982378854626,2.8509846778578263
1.6850220264317182,2.897372238780562
1.7048458149779737,2.94101957836745
1.7246696035242293,2.9818785480075833
1.7444933920704848,3.019904330074723
1.7643171806167404,3.055055419228334
1.7841409691629957,3.0872936100992785
1.8039647577092512,3.116583989873868
1.8237885462555068,3.142894934566971
1.8436123348017623,3.1661981079986687
1.863436123348018,3.186468462670457
1.8832599118942732,3.203684241886146
1.9030837004405288,3.217826982585903
1.9229074889867843,3.2288815184656503
1.9427312775330399,3.236835983041703
1.9625550660792954,3.241681812397005
1.982378854625551,3.2434137474121734
2.002202643171806,3.242029835344984
2.0220264317180616,3.237531430678318
2.041850220264317,3.2299231952096257
2.061674008810573,3.219213097407885
2.0814977973568287,3.205412411117055
2.1013215859030843,3.1885357137415737
2.1211453744493394,3.168600884109341
2.140969162995595,3.145629100274944
2.1607929515418505,3.11964483760179
2.180616740088106,3.090675867549494
2.2004405286343616,3.0587532576964027
2.220264317180617,3.0239113736500527
2.2400881057268722,2.9861878836467812
2.2599118942731278,2.9456237668231013
2.2797356828193833,2.9022633263636477
2.299559471365639,2.8561542090068865
2.319383259911895,2.807347432734501
2.3392070484581504,2.755897424905051
2.3590308370044055,2.70186207364255
2.378854625550661,2.6453027959943403
2.3986784140969166,2.5862846272763806
2.418502202643172,2.524876337195786
2.4383259911894277,2.461150579869464
2.4581497797356833,2.395184086869163
2.4779735682819384,2.327057915090088
2.497797356828194,2.2568577648065555
2.5176211453744495,2.1846743880883164
2.537444933920705,2.110604114297729
2.5572687224669606,2.034749528382899
2.577092511013216,1.9572203501620435
2.5969162995594717,1.8781345802851617
2.6167400881057272,1.7976200033296428
2.6365638766519828,1.7158161739365434
2.6563876651982383,1.6328770631665546
2.676211453744494,1.548974617172154
2.6960352422907494,1.4643035907890625
2.715859030837005,1.3790881829463109
2.73568281938326,1.2935912463011756
2.7555066079295156,1.2081272103393372
2.775330396475771,1.1230804001585408
2.7951541850220267,1.0389312150734584
2.8149779735682823,0.9562936849764454
2.834801762114538,0.8759691189037591
2.854625550660793,0.7990212195585997
2.874449339207049,0.7268759314524748
2.8942731277533045,0.6614385546017348
2.91409691629956,0.6051893039311965
2.9339207048458156,0.561153244526322
2.953744493392071,0.5325637766237857
2.9735682819383262,0.522087316589572
2.993392070484582,0.5308424327817624
3.0132158590308373,0.5578957055205342
3.033039647577093,0.6006871625801176
3.0528634361233484,0.6559990962894727
3.072687224669604,0.7207683734411668
3.092511013215859,0.7924609898298458
3.1123348017621146,0.8691222031983741
3.1321585903083706,0.9492870758840343
3.151982378854626,1.0318630973
3.1718061674008817,1.116028207268381
3.1916299559471373,1.2011534964682138
3.2114537444933924,1.2867478220981803
3.231277533039648,1.3724189946518497
3.2511013215859035,1.4578467231174412
3.270925110132159,1.5427636936494484
3.2907488986784146,1.6269422327176297
3.31057268722467,1.7101848119609495
3.3303964757709252,1.7923172141273775
3.350220264317181,1.8731835598994144
3.3700440528634363,1.9526426501137595
3.389867841409692,2.030565248301464
3.4096916299559474,2.1068320430312775
3.4295154185022034,2.1813321071417318
3.4493392070484585,2.253961724009285
3.469162995594714,2.3246234876532395
3.4889867841409696,2.3932256090643995
3.508810572687225,2.4596813791944174
3.5286343612334807,2.523908751909562
3.5484581497797363,2.5858300194775823
3.5682819383259914,2.64537155989425
3.588105726872247,2.7024636403019753
3.6079295154185025,2.7570402644170424
3.627753303964758,2.809039054620108
3.6475770925110136,2.858401161428039
3.667400881057269,2.9050711946326433
3.6872246696035247,2.9489971715919747
3.7070484581497802,2.990130479085649
3.726872246696036,3.028425845864926
3.7466960352422913,3.0638413235913013
3.7665198237885464,3.0963382743011993
3.7863436123348024,3.1258813628866706
3.8061674008810575,3.1524385533636035
3.8259911894273135,3.1759811079265967
3.8458149779735686,3.196483587973456
3.8656387665198246,3.213923856434263
3.8854625550660797,3.228283080865033
3.905286343612335,3.239545736871246
3.925110132158591,3.2476996115156904
3.9449339207048464,3.2527358064427045
3.964757709251102,3.2546487405185194
3.9845814977973575,3.2534361518492148
4.004405286343612,3.2490990990943875
4.024229074889869,3.2416419620491275
4.044052863436123,3.231072441519817
4.06387665198238,3.2174015585740556
4.083700440528634,3.200643653301085
4.103524229074891,3.180816383281162
4.123348017621146,3.157940722029519
4.143171806167401,3.1320409577580124
4.162995594713657,3.1031446928865254
4.182819383259912,3.0712828448405243
4.2026431718061685,3.03648964879631
4.222466960352423,2.998802663185525
4.242290748898679,2.958262778953942
4.262114537444934,2.9149142337949114
4.28193832599119,2.8688046328568335
4.301762114537445,2.819984977773452
4.321585903083701,2.7685097063041924
4.3414096916299565,2.7144367454287255
4.361233480176212,2.657827581449704
4.381057268722468,2.5987473515706063
4.400881057268723,2.537264962597669
4.420704845814979,2.4734532439568344
4.440528634361234,2.407389144243223
4.46035242290749,2.3391539832072255
4.4801762114537445,2.268833774669285
4.500000000000001,2.196519640692241
4.5198237885462555,2.122308343916864
4.539647577092512,2.0463029739931042
4.559471365638767,1.9686138365505634
4.579295154185023,1.8893596106646842
4.599118942731278,1.8086688655424437
4.618942731277533,1.7266820625426718
4.63876651982379,1.6435542197434498
4.658590308370044,1.5594584907816622
4.678414096916301,1.4745910193443443
4.6982378854625555,1.3891775932796822
4.718061674008811,1.3034828644648266
4.737885462555067,1.2178232609932405
4.757709251101322,1.1325852490866286
4.777533039647578,1.048251361506089
4.797356828193833,0.9654374224712047
4.817180616740089,0.8849455273185813
4.837004405286344,0.8078378958412724
4.856828193832599,0.7355345273555915
4.876651982378855,0.6699269900423415
4.896475770925111,0.6134703080257293
4.9162995594713665,0.5691524962143676
4.936123348017622,0.540168531648281
4.955947136563877,0.5291711287812184
4.975770925110133,0.5373157025858334
4.995594713656388,0.5637492194055315
5.015418502202644,0.6059946739778203
5.035242290748899,0.6608854471408374
5.055066079295155,0.7253731662583711
5.07488986784141,0.7969153940235012
5.094713656387666,0.8735393333422522
5.114537444933921,0.9537604554738845
5.134361233480177,1.0364686115014476
5.154185022026432,1.120827041155968
5.174008810572688,1.206194986202683
5.193832599118943,1.292071866815361
5.213656387665199,1.378057981037241
5.2334801762114544,1.4638270215164768
5.25330396475771,1.549106809100457
5.2731277533039655,1.6336656887623169
5.292951541850221,1.7173028311276053
5.312775330396477,1.799841244707485
5.332599118942731,1.8811226865807433
5.352422907488988,1.961003916594486
5.372246696035242,2.039353912875689
5.392070484581499,2.1160517828328835
5.4118942731277535,2.1909851828157842
5.43171806167401,2.264049113689823
5.451541850220265,2.335144996988193
5.47136563876652,2.4041799624403364
5.491189427312777,2.4710662961275167
5.511013215859031,2.5357210116775746
5.530837004405288,2.598065516393139
5.550660792951542,2.658025351105831
5.570484581497798,2.715529987614897
5.5903083700440535,2.7705126713225594
5.610132158590309,2.822910299484314
5.6299559471365646,2.872663327607174
5.64977973568282,2.9197156981360055
5.669603524229076,2.9640147867983715
5.689427312775331,3.005511362927535
5.709251101321586,3.04415956082101
5.729074889867842,3.0799168597693685
5.748898678414098,3.1127440708451495
5.768722466960353,3.142605328903082
5.788546255506609,3.169468088531825
5.808370044052864,3.1933031229303386
5.82819383259912,3.2140845248713625
5.848017621145375,3.231789709069544
5.867841409691631,3.246399415400493
5.887665198237886,3.2578977125247017
5.907488986784142,3.2662720015620943
5.927312775330397,3.271513019541877
5.9471365638766525,3.2736148424224965
5.966960352422908,3.2725748875391996
5.986784140969164,3.268393915395124
6.00660792951542,3.2610760307673297
6.026431718061675,3.250628683154003
6.04625550660793,3.2370626666442295
6.066079295154186,3.220392119350424
6.085903083700441,3.200634522605883
6.105726872246697,3.177810700199652
6.125550660792952,3.1519448179997505
6.145374449339208,3.123064384406956
6.1651982378854635,3.0912002521883233
6.185022026431718,3.056386622367405
6.204845814977975,3.0186610510018497
6.224669603524229,2.978064459866481
6.244493392070486,2.934641152290353
6.264317180616741,2.8884388356814736
6.284140969162996,2.83950865262938
6.303964757709252,2.787905222923778
6.323788546255507,2.7336866993950593
6.3436123348017635,2.6769148412065062
6.363436123348018,2.6176551091580786
6.3832599118942746,2.555976788765003
6.403083700440529,2.4919531484429345
6.422907488986785,2.4256616421917236
6.44273127753304,2.357184168897122
6.462555066079296,2.2866074040103053
6.482378854625551,2.2140232242653535
6.502202643171807,2.1395292527505525
6.5220264317180625,2.063229560771718
6.541850220264318,1.9852355755691415
6.561674008810574,1.9056672605893479
6.581497797356829,1.824654659909827
6.601321585903085,1.74233993391184
6.62114537444934,1.6588800644142725
6.640969162995596,1.5744504818011813
6.6607929515418505,1.489249975664936
6.680616740088107,1.4035074114153085
6.700440528634362,1.317491013792917
6.720264317180618,1.2315213309379012
6.740088105726873,1.1459895079009634
6.759911894273129,1.0613832271610066
6.779735682819384,0.9783236286067093
6.799559471365639,0.8976175448309978
6.819383259911895,0.8203297803413772
6.83920704845815,0.7478777738133002
6.859030837004407,0.6821404005396465
6.8788546255506615,0.625543348935077
6.898678414096917,0.58102476985798
6.918502202643173,0.5517184740595875
6.938325991189428,0.5402369762172281
6.958149779735684,0.5477568586911336
6.977973568281939,0.5735120118922877
6.997797356828195,0.6151323049713517
7.01762114537445,0.6695281568111294
7.037444933920705,0.7336833974250846
7.0572687224669615,0.805054715247041
7.077092511013216,0.8816520415344589
7.096916299559473,0.961968593002501
7.116740088105728,1.0448726479003656
7.136563876651983,1.1295086672774486
7.156387665198239,1.215220305295279
7.176211453744494,1.301494300295686
7.19603524229075,1.3879206916916984
7.215859030837005,1.474164855167013
7.235682819383261,1.5599478225896246
7.255506607929516,1.6450323443611585
7.275330396475772,1.7292129298312406
7.295154185022027,1.8123086578965963
7.314977973568283,1.8941579327520346
7.334801762114538,1.974614619062407
7.354625550660794,2.053545165786281
7.374449339207049,2.1308264462525495
7.394273127753305,2.206344122678246
7.4140969162995605,2.279991398639477
7.433920704845816,2.351668061345049
7.453744493392072,2.421279742395528
7.473568281938327,2.4887373446798864
7.493392070484583,2.553956596609903
7.513215859030838,2.616857704661662
7.533039647577093,2.6773650823073023
7.552863436123348,2.7354071386483074
7.572687224669605,2.790916113937119
7.59251101321586,2.8438279520734455
7.612334801762115,2.8940822023476054
7.6321585903083715,2.9416219443645906
7.651982378854627,2.986393731355636
7.671806167400882,3.0283475480661557
7.691629955947137,3.0674367801723186
7.711453744493394,3.1036181927764352
7.731277533039649,3.1368519160023256
7.751101321585904,3.1671014360862904
7.7709251101321595,3.1943335906584664
7.790748898678416,3.218518567150754
7.81057268722467,3.2396299034633445
7.830396475770926,3.257644490183021
7.850220264317182,3.2725425737792704
7.870044052863436,3.284307760316107
7.889867841409693,3.29292701931244
7.909691629955948,3.298390687465821
7.929515418502204,3.3006924720267055
7.9493392070484585,3.29982945367566
7.969162995594715,3.295802088816226
7.9889867841409705,3.288614211253789
8.008810572687224,3.2782730332874888
8.02863436123348,3.2647891462994387
8.048458149779737,3.248176520986298
8.068281938325994,3.2284525074426846
8.088105726872246,3.2056378353785138
8.107929515418503,3.179756614833594
8.12775330396476,3.1508363378473256
8.147577092511014,3.118907881652296
8.167400881057269,3.084005514092292
8.187224669603525,3.0461669021247246
8.207048458149782,3.005433124460879
8.226872246696036,2.961848689635514
8.246696035242293,2.915461561092081
8.266519823788547,2.866323191237341
8.286343612334802,2.814488566881527
8.306167400881058,2.760016269065214
8.325991189427315,2.7029685510193335
8.345814977973568,2.6434114389619707
8.365638766519824,2.5814148616724335
8.38546255506608,2.5170528163937016
8.405286343612337,2.450403580727664
8.42511013215859,2.3815499829813787
8.444933920704846,2.310579747146697
8.464757709251103,2.2375859337015225
8.484581497797357,2.162667504207212
8.504405286343614,2.0859300469622832
8.524229074889869,2.0074867137930563
8.544052863436125,1.927459435935358
8.56387665198238,1.845980512120102
8.583700440528636,1.763194697733997
8.60352422907489,1.6792619752382545
8.623348017621145,1.5943612603173172
8.643171806167402,1.508695406638335
8.662995594713658,1.4224980312240558
8.682819383259913,1.336042916539246
8.702643171806168,1.249657088422189
8.722466960352424,1.1637391639840609
8.74229074889868,1.0787852514805991
8.762114537444935,0.9954255599076232
8.78193832599119,0.9144757542154353
8.801762114537446,0.8370072448877195
8.821585903083701,0.7644379049705117
8.841409691629957,0.6986340441300576
8.861233480176212,0.6419863279638568
8.881057268722468,0.5973681794930358
8.900881057268723,0.567827300618812
8.92070484581498,0.5559073470435193
8.940528634361234,0.5627881997285158
8.960352422907489,0.5877957789877915
8.980176211453745,0.6286916205962126
9.000000000000002,0.6824924021687166
9.019823788546258,0.7462355595683235
9.039647577092511,0.8173875933115998
9.059471365638768,0.8939437972791976
9.079295154185024,0.9743732818199702
9.099118942731279,1.0575189788437174
9.118942731277533,1.142502311179927
9.13876651982379,1.228647276861414
9.158590308370046,1.3154243147284248
9.1784140969163,1.4024100957504069
9.198237885462555,1.489259046165717
9.218061674008812,1.5756831923231518
9.237885462555067,1.6614378229395232
9.257709251101323,1.746311207274448
9.27753303964758,1.8301171517535135
9.297356828193834,1.912689557518708
9.317180616740089,1.9938784014483457
9.337004405286345,2.073546740041526
9.356828193832602,2.1515684559323063
9.376651982378855,2.2278265491390634
9.396475770925111,2.3022118318983313
9.416299559471367,2.3746219253787326
9.436123348017622,2.4449604842513843
9.455947136563877,2.5131365947062134
9.475770925110133,2.5790643055355553
9.49559471365639,2.6426622620424824
9.515418502202644,2.7038534199213733
9.5352422907489,2.762564821695765
9.555066079295155,2.8187274223343923
9.57488986784141,2.8722759536875353
9.594713656387666,2.9231488196655873
9.614537444933923,2.9712880158161967
9.634361233480178,3.016639068285288
9.654185022026432,3.059150988173775
9.674008810572689,3.0987762380996933
9.693832599118945,3.135470708400733
9.713656387665198,3.1691937009050704
9.733480176211454,3.199907918590029
9.75330396475771,3.227579459761512
9.773127753303967,3.2521778156397194
9.792951541850222,3.273675870441912
9.812775330396477,3.29204990322162
9.832599118942733,3.3072795908630286
9.852422907488988,3.319348011746439
9.872246696035244,3.32824164970009
9.892070484581499,3.3339503979396254
9.911894273127754,3.336467562772369
9.93171806167401,3.335789866911746
9.951541850220266,3.3319174523107367
9.971365638766521,3.3248538824833402
9.991189427312776,3.3146061443425454
10.011013215859032,3.3011846496436785
10.030837004405289,3.2846032361850424
10.050660792951543,3.2648791689860084
10.070484581497798,3.2420331417384216
10.090308370044054,3.216089278912494
10.11013215859031,3.187075138997468
10.129955947136565,3.1550217194734023
10.14977973568282,3.119963464248645
10.169603524229077,3.081938274464197
10.189427312775331,3.0409875237687616
10.209251101321588,2.9971560794171253
10.229074889867842,2.950492330852475
10.248898678414099,2.901048227816945
10.268722466960353,2.8488793305170566
10.28854625550661,2.7940448749801114
10.308370044052865,2.7366078575139343
10.32819383259912,2.676635143177248
10.348017621145376,2.6141976044528934
10.367841409691632,2.5493702979864965
10.387665198237887,2.48223268944189
10.407488986784141,2.41286893941317
10.427312775330398,2.3413682671772693
10.447136563876654,2.267825414226537
10.466960352422909,2.1923412364958565
10.486784140969164,2.1150234637173755
10.50660792951542,2.0359876774421997
10.526431718061675,1.9553585774815219
10.546255506607931,1.8732716320628087
10.566079295154186,1.7898752431512681
10.585903083700442,1.7053336100133176
10.605726872246697,1.6198305484206008
10.625550660792953,1.533574630613738
10.645374449339208,1.4468061679611892
10.665198237885463,1.3598067866075574
10.685022026431719,1.2729126766667516
10.704845814977975,1.1865330637055553
