Time (s),Filtered Signal
0.0,0.02587126412433204
0.03337008452774715,-0.06913567687745419
0.0667401690554943,-0.14014861352106472
0.10011025358324147,-0.1757110110019214
0.1334803381109886,-0.18282582369349393
0.16685042263873576,-0.1825103887528816
0.20022050716648293,-0.19753655987384186
0.23359059169423008,-0.23893733697517983
0.2669606762219772,-0.29855362486699616
0.30033076074972437,-0.3517687517842248
0.3337008452774715,-0.36929792600753114
0.36707092980521866,-0.3321590551083513
0.40044101433296586,-0.2421321466032327
0.433811098860713,-0.12206456448329475
0.46718118338846015,-0.00537800730647303
0.5005512679162073,0.0803069066977521
0.5339213524439544,0.1271728959393042
0.5672914369717016,0.15130771207228808
0.6006615214994487,0.18407621777348518
0.6340316060271959,0.2544260695711606
0.667401690554943,0.3707850296433591
0.7007717750826902,0.5119787016544395
0.7341418596104373,0.6325024145154657
0.7675119441381845,0.6804414953883655
0.8008820286659317,0.6199285422572248
0.8342521131936789,0.44761688270395333
0.867622197721426,0.19553150787686166
0.9009922822491732,-0.08070764523732203
0.9343623667769203,-0.3224455658050697
0.9677324513046675,-0.4879351842690217
1.0011025358324146,-0.5635150106748658
1.0344726203601617,-0.5627632027671858
1.0678427048879089,-0.5160045129563848
1.101212789415656,-0.45612561115183675
1.1345828739434032,-0.40691968962794867
1.1679529584711503,-0.3777216968616084
1.2013230429988975,-0.36462323927595724
1.2346931275266446,-0.355828424784421
1.2680632120543918,-0.33773497017254567
1.301433296582139,-0.2991081353017802
1.334803381109886,-0.232502703647764
1.3681734656376332,-0.13383859992097033
1.4015435501653803,-0.001906014489784565
1.4349136346931275,0.16076515710235953
1.4682837192208746,0.3455379289742632
1.5016538037486218,0.5352283379987618
1.535023888276369,0.7039424406307879
1.568393972804116,0.8211059349666883
1.6017640573318634,0.8596888205821276
1.6351341418596106,0.8060157574900151
1.6685042263873577,0.6667507988463603
1.7018743109151049,0.4690629599499474
1.735244395442852,0.2528559280863574
1.7686144799705992,0.057885521480141186
1.8019845644983463,-0.08871240309888223
1.8353546490260935,-0.17917826537979445
1.8687247335538406,-0.22385754284552953
1.9020948180815878,-0.24352172679115652
1.935464902609335,-0.2595334253516245
1.968834987137082,-0.2862404462176714
2.002205071664829,-0.32800733493097695
2.0355751561925763,-0.3806533801566554
2.0689452407203235,-0.43522806867852676
2.1023153252480706,-0.4817185729825272
2.1356854097758178,-0.5112275850000639
2.169055494303565,-0.5165900118130203
2.202425578831312,-0.4924559860312544
2.235795663359059,-0.43602258579442055
2.2691657478868064,-0.348821001951454
2.3025358324145535,-0.2387314690423807
2.3359059169423007,-0.12048461212537709
2.369276001470048,-0.013029911746973372
2.402646085997795,0.06647742820359093
2.436016170525542,0.11023695650809406
2.4693862550532892,0.12540023808237746
2.5027563395810364,0.13406971093099643
2.5361264241087835,0.16599419504022847
2.5694965086365307,0.24568118232418723
2.602866593164278,0.37901956572308204
2.636236677692025,0.5459320329310988
2.669606762219772,0.703812352851723
2.7029768467475193,0.8018620685946277
2.7363469312752664,0.8009750670247258
2.7697170158030135,0.6904346771483354
2.8030871003307607,0.4935151174615863
2.836457184858508,0.25904721091504335
2.869827269386255,0.042663621238522034
2.903197353914002,-0.11373339470640632
2.9365674384417493,-0.19526683266067385
2.9699375229694964,-0.2150964128388968
3.0033076074972436,-0.20419243831630057
3.0366776920249907,-0.19584850172114518
3.070047776552738,-0.21231866036925237
3.103417861080485,-0.25863297549771797
3.136787945608232,-0.32438699839692325
3.1701580301359793,-0.39067804163817643
3.203528114663727,-0.4380847616077267
3.236898199191474,-0.45265247426749455
3.270268283719221,-0.4289000750887483
3.3036383682469683,-0.37037241528458004
3.3370084527747155,-0.2885477231561548
3.3703785373024626,-0.20037070250206676
3.4037486218302098,-0.12423551311966001
3.437118706357957,-0.07455549728384588
3.470488790885704,-0.056092288996675226
3.503858875413451,-0.060288650983923074
3.5372289599411983,-0.06604983810102591
3.5705990444689455,-0.04618331616898778
3.6039691289966926,0.021752080240803443
3.63733921352444,0.14406199342716197
3.670709298052187,0.304183052110473
3.704079382579934,0.46468167226006885
3.7374494671076812,0.5786072789402738
3.7708195516354284,0.606446960712828
3.8041896361631755,0.5318334049165614
3.8375597206909227,0.36910092285702817
3.87092980521867,0.15904057209188077
3.904299889746417,-0.045668674203763714
3.937669974274164,-0.19931700150011383
3.9710400588019112,-0.2784543111186055
4.004410143329658,-0.28749944746955974
4.0377802278574055,-0.25295798180802676
4.071150312385153,-0.20950237474907737
4.1045203969129,-0.1844261954672619
4.137890481440647,-0.18716917929003715
4.171260565968394,-0.20783637976840036
4.204630650496141,-0.22436741039545577
4.238000735023888,-0.2143035236766522
4.2713708195516356,-0.165569898174979
4.304740904079383,-0.08176783427274345
4.33811098860713,0.019686586754809925
4.371481073134877,0.11514460130937555
4.404851157662624,0.18454380437727264
4.438221242190371,0.2194993525230934
4.471591326718118,0.22659031174273495
4.504961411245866,0.22452642760609634
4.538331495773613,0.23604807490901367
4.57170158030136,0.2774892086859559
4.605071664829107,0.35021447269836586
4.638441749356854,0.43783851948179014
4.671811833884601,0.5109390718387309
4.7051819184123485,0.537620835722002
4.738552002940096,0.4954537697830168
4.771922087467843,0.37965004803113744
4.80529217199559,0.20429939524486188
4.838662256523337,-0.003115872110898576
4.872032341051084,-0.21083204189804522
4.905402425578831,-0.39153482042756826
4.9387725101065785,-0.527817640587114
4.972142594634326,-0.6135511893396591
5.005512679162073,-0.6520896557119193
5.03888276368982,-0.6529250305328553
5.072252848217567,-0.6281144130019948
5.105622932745314,-0.5891406564224538
5.138993017273061,-0.5444264819929904
5.1723631018008085,-0.497728152465038
5.205733186328556,-0.4478472093784817
5.239103270856303,-0.39006907980271877
5.27247335538405,-0.31920758073482913
5.305843439911797,-0.23328120312806172
5.339213524439544,-0.13618728812644507
5.372583608967291,-0.03778437246574589
5.4059536934950385,0.049292559924773334
5.439323778022786,0.11527587054281582
5.472693862550533,0.15915207556723265
5.50606394707828,0.1919455081783776
5.539434031606027,0.23514114303942293
5.572804116133774,0.313741345541852
5.606174200661521,0.44577329043697356
5.6395442851892685,0.6320077012984167
5.672914369717016,0.8502831632325699
5.706284454244763,1.0576581958511153
5.73965453877251,1.200874677360859
5.773024623300257,1.2322900828268544
5.806394707828004,1.1258934772524243
5.839764792355751,0.8874438300324907
5.873134876883499,0.5545950458089254
5.906504961411246,0.1865159543870498
5.939875045938993,-0.1534609355132645
5.97324513046674,-0.4159176706248472
6.006615214994487,-0.5777030005014364
6.039985299522234,-0.6445144713528159
6.073355384049981,-0.6436745884216334
6.106725468577729,-0.6109446270299321
6.140095553105476,-0.5772578960527931
6.173465637633223,-0.5605377119665313
6.20683572216097,-0.5647115156631254
6.240205806688717,-0.5842954470138072
6.273575891216464,-0.610544140335607
6.3069459757442115,-0.6353677404946323
6.340316060271959,-0.6516495072644181
6.373686144799706,-0.6515126353802145
6.407056229327454,-0.6255036941667004
6.440426313855201,-0.5646916698768782
6.473796398382948,-0.46512252863976894
6.507166482910695,-0.33181772085786104
6.540536567438442,-0.1791990694195347
6.5739066519661895,-0.0267038455470119
6.607276736493937,0.10881695142756474
6.640646821021684,0.22031534549820614
6.674016905549431,0.31369959227592925
6.707386990077178,0.40500987685542134
6.740757074604925,0.5123357695465398
6.774127159132672,0.6455462608911126
6.8074972436604195,0.798127139202767
6.840867328188167,0.9450660874322803
6.874237412715914,1.0487217323067874
6.907607497243661,1.0714125492052669
6.940977581771408,0.9902095111649524
6.974347666299155,0.8077107830030458
7.007717750826902,0.5536543786781142
7.0410878353546495,0.2760069776740834
7.074457919882397,0.024964544703022912
7.107828004410144,-0.1633831820049517
7.141198088937891,-0.2769511048729871
7.174568173465638,-0.3276062594664042
7.207938257993385,-0.342363753840849
7.241308342521132,-0.3507046095696439
7.27467842704888,-0.37381872123431886
7.308048511576627,-0.41967215511253075
7.341418596104374,-0.4844044147444478
7.374788680632121,-0.5575618090814951
7.408158765159868,-0.6274919584399342
7.441528849687615,-0.6841947435874345
7.4748989342153624,-0.7192159898663012
7.50826901874311,-0.7242770536056157
7.541639103270857,-0.6909530327617166
7.575009187798604,-0.6125616072610929
7.608379272326351,-0.48743160267222596
7.641749356854098,-0.3213635641369831
7.675119441381845,-0.1273397311926351
7.7084895259095925,0.07781117651865337
7.74185961043734,0.27818016301936566
7.775229694965087,0.4624373806750889
7.808599779492834,0.6244652164490153
7.841969864020581,0.7608122415764725
7.875339948548328,0.8666968697781128
7.908710033076075,0.9332186923289709
7.9420801176038225,0.9478814596208002
7.97545020213157,0.8987707822871734
8.008820286659317,0.7806850526706834
8.042190371187063,0.6002562111587809
8.075560455714811,0.37727254401314025
8.108930540242557,0.14097342525397685
8.142300624770305,-0.07767514505044767
8.175670709298052,-0.25481288008786973
8.2090407938258,-0.380044488719407
8.242410878353546,-0.45768261385225634
8.275780962881294,-0.5024220838640654
8.30915104740904,-0.5314649651045865
8.342521131936788,-0.5566945002965861
8.375891216464534,-0.5803679906195548
8.409261300992283,-0.5959660814591244
8.442631385520029,-0.5932056201421556
8.476001470047777,-0.5641983737039267
8.509371554575523,-0.5074463308943876
8.542741639103271,-0.4279461457209266
8.57611172363102,-0.3341222596812848
8.609481808158765,-0.23405719526140722
8.642851892686513,-0.13344509619957098
8.67622197721426,-0.03599865506844859
8.709592061742008,0.055016455752739654
8.742962146269754,0.13631579325196383
8.776332230797502,0.2063873667816299
8.809702315325248,0.26852718042635404
8.843072399852996,0.33234236052890087
8.876442484380743,0.41109091033622286
8.90981256890849,0.5145438337897322
8.943182653436237,0.6402847576701947
8.976552737963985,0.7684179126847267
9.009922822491731,0.8639374598129592
9.04329290701948,0.8875204359714123
9.076662991547225,0.8109951465940307
9.110033076074973,0.6307368998458399
9.14340316060272,0.3725507302479687
9.176773245130468,0.08519947013076196
9.210143329658214,-0.1751820199152226
9.243513414185962,-0.3635156708216538
9.276883498713708,-0.45968309016702336
9.310253583241456,-0.4727010729388575
9.343623667769203,-0.4341982603534699
9.37699375229695,-0.3845159993934624
9.410363836824697,-0.3573140211934588
9.443733921352445,-0.3685281377159676
9.477104005880191,-0.41322516239200524
9.51047409040794,-0.4705245313279145
9.543844174935685,-0.5137543938489609
9.577214259463434,-0.5214629000761389
9.61058434399118,-0.485165151184501
9.643954428518928,-0.4113969755710485
9.677324513046674,-0.3179553145096845
9.710694597574422,-0.22626782217635275
9.744064682102168,-0.15302097973044207
9.777434766629916,-0.10419805284319102
9.810804851157663,-0.0735933236496387
9.84417493568541,-0.046069436985714925
9.877545020213157,-0.0039826748934097995
9.910915104740905,0.06592851386695667
9.944285189268651,0.1678194535173244
9.9776552737964,0.2955978942762469
10.011025358324146,0.435101411423978
10.044395442851894,0.5680662049621252
10.07776552737964,0.6761130601812032
10.111135611907388,0.7436972080847858
10.144505696435134,0.7600146187284745
10.177875780962882,0.7204263156584676
10.211245865490628,0.627665307545585
10.244615950018376,0.49227318089266153
10.277986034546123,0.3312260503078897
10.31135611907387,0.16421348350211432
10.344726203601617,0.008386024879263872
10.378096288129365,-0.12632794517232693
10.411466372657111,-0.23901515622048164
10.44483645718486,-0.33552880204652874
10.478206541712606,-0.4230359026023563
10.511576626240354,-0.5039366365668639
10.5449467107681,-0.5722772373443286
10.578316795295848,-0.6147808338527562
10.611686879823594,-0.6164702101208214
10.645056964351342,-0.5685259216139097
10.678427048879088,-0.4746561035127825
10.711797133406836,-0.3526141399151863
10.745167217934583,-0.22953558136204352
10.77853730246233,-0.13256835669679287
10.811907386990077,-0.078508895793761
10.845277471517825,-0.06676209281042263
10.878647556045571,-0.07865323967671455
10.91201764057332,-0.0835757196065296
10.945387725101066,-0.04981962310416395
10.978757809628814,0.04373390667198589
11.01212789415656,0.19904158226902147
11.045497978684308,0.39628913377698627
11.078868063212054,0.5981856885026079
11.112238147739802,0.760059174091891
11.145608232267548,0.8428880243378709
11.178978316795297,0.825264772050802
11.212348401323043,0.7101966148160719
11.24571848585079,0.5240045357975859
11.279088570378537,0.30731352157385183
11.312458654906285,0.10133275617348274
11.345828739434031,-0.06519761756397173
11.37919882396178,-0.18315104376611996
11.412568908489526,-0.261635692333991
11.445938993017274,-0.3194064036148468
11.47930907754502,-0.37363387468503034
11.512679162072768,-0.43150109117013047
11.546049246600514,-0.48822990526816357
11.579419331128262,-0.5315764054688931
11.612789415656009,-0.5495419371284451
11.646159500183757,-0.5367788229988502
11.679529584711503,-0.49647099895144414
11.71289966923925,-0.43740309591102466
11.746269753766997,-0.36868290977690554
11.779639838294745,-0.29557286440963515
11.813009922822491,-0.21870553037026794
11.84638000735024,-0.1365409247660977
11.879750091877986,-0.04887422351689576
11.913120176405734,0.04125366536684744
11.94649026093348,0.1286197639436999
11.979860345461228,0.20914444468431997
12.013230429988974,0.28315319170118924
12.046600514516722,0.356043739650906
12.079970599044469,0.4351572479503589
12.113340683572217,0.5238433101640149
12.146710768099963,0.6156336910134476
12.180080852627711,0.6920343963662737
12.213450937155457,0.7262108500839711
12.246821021683205,0.6921521744732259
12.280191106210951,0.5759610200832432
12.3135611907387,0.38426573811913495
12.346931275266446,0.14546715244420672
12.380301359794194,-0.09748486807179386
12.41367144432194,-0.3002228130509356
12.447041528849688,-0.43067169385760146
12.480411613377434,-0.47779546193233513
12.513781697905182,-0.45225163151730197
12.547151782432929,-0.37955371553129397
12.580521866960677,-0.28947092085090065
12.613891951488423,-0.20646649644665493
12.647262036016171,-0.14468585116802038
12.680632120543917,-0.10825926851687066
12.714002205071665,-0.09503976660854564
12.747372289599411,-0.10070108064629846
12.78074237412716,-0.12080664833542015
12.814112458654908,-0.15039129432337578
12.847482543182654,-0.1825108157960227
12.880852627710402,-0.20795770862225987
12.914222712238148,-0.2174808994077902
12.947592796765896,-0.20589434365073048
12.980962881293642,-0.17562817615121967
13.01433296582139,-0.13684414384190335
13.047703050349137,-0.10276102335386567
13.081073134876885,-0.08168332179039889
13.114443219404631,-0.06980323404762818
13.147813303932379,-0.049463543117826386
13.181183388460125,0.0045385588668678855
13.214553472987873,0.11213091878978977
13.24792355751562,0.2742334005456911
13.281293642043368,0.4654085024055042
13.314663726571114,0.6380931742128318
13.348033811098862,0.7382826976371742
13.381403895626608,0.7265269823888834
13.414773980154356,0.5947169656389292
13.448144064682102,0.3705516284646384
13.48151414920985,0.10734899782765325
13.514884233737597,-0.1360053202093317
13.548254318265345,-0.3155840799068049
13.581624402793091,-0.4144249719679777
13.614994487320839,-0.44195381558481633
13.648364571848585,-0.42323833919249265
13.681734656376333,-0.3849064013746306
13.71510474090408,-0.3448421117218755
13.748474825431828,-0.3093713352301384
13.781844909959574,-0.2769775626463087
13.815214994487322,-0.2443969279253858
13.848585079015068,-0.21072664346376446
13.881955163542816,-0.1775273049639216
13.915325248070562,-0.14597185216887815
13.94869533259831,-0.11390238219345977
13.982065417126057,-0.07527523423317085
14.015435501653805,-0.022488994376079798
14.048805586181551,0.049953683963145014
14.082175670709299,0.14270864261280597
14.115545755237045,0.2510954853356035
14.148915839764793,0.3664614207505963
14.18228592429254,0.4779110494000252
14.215656008820288,0.5731885600658364
14.249026093348034,0.6388239277889832
14.282396177875782,0.6608475283451716
14.315766262403528,0.6273520495566017
14.349136346931276,0.5328033551239313
14.382506431459023,0.3822394081719405
14.41587651598677,0.1927240534627811
14.449246600514517,-0.009603975275152611
14.482616685042265,-0.19629209650466609
14.515986769570011,-0.34441651044433397
14.54935685409776,-0.4421384343209487
14.582726938625505,-0.4898637825577842
14.616097023153253,-0.49722569527494914
14.649467107681,-0.47804069647812575
14.682837192208748,-0.4458107941377399
14.716207276736494,-0.41122464500428446
14.749577361264242,-0.38144637935350817
14.782947445791988,-0.360014985356781
14.816317530319736,-0.34648574524700115
14.849687614847483,-0.33606227971325664
14.88305769937523,-0.3203160059813911
14.916427783902977,-0.28984848922820716
14.949797868430725,-0.23848588809015075
14.983167952958471,-0.16719112101735611
15.01653803748622,-0.08539085166572512
15.049908122013965,-0.008321443533343542
15.083278206541713,0.04909478643002027
15.11664829106946,0.07942917457155348
15.150018375597208,0.08769588838471026
15.183388460124954,0.09144847902946815
15.216758544652702,0.11535369915626816
15.250128629180448,0.18194708637494977
15.283498713708196,0.3020090560394365
15.316868798235943,0.4683254590250116
15.35023888276369,0.6553757379517935
15.383608967291437,0.8252643314389452
15.416979051819185,0.9379325025047389
15.450349136346931,0.9622768039835531
15.48371922087468,0.8847115515007371
15.517089305402425,0.7127787818173913
15.550459389930174,0.4730422210285082
15.58382947445792,0.2040870528971011
15.617199558985668,-0.05336898523226014
15.650569643513414,-0.26655835662997834
15.683939728041162,-0.4180946374922907
15.717309812568908,-0.5084529353482565
15.750679897096656,-0.5526098648654081
15.784049981624403,-0.5720389389821985
15.81742006615215,-0.5852468107000797
15.850790150679897,-0.6008252411141836
15.884160235207645,-0.6158809962111791
15.917530319735391,-0.6200547807958164
15.95090040426314,-0.6025510387481617
15.984270488790886,-0.5582760650829157
16.017640573318634,-0.49006002576592844
16.05101065784638,-0.40639504276279154
16.084380742374126,-0.31661451592950757
16.117750826901876,-0.22653766712670834
16.151120911429622,-0.13685861949132455
16.18449099595737,-0.044662204246984735
16.217861080485115,0.05333986680303931
16.251231165012864,0.1579488880158237
16.28460124954061,0.26649541169000723
16.317971334068357,0.3739055388747835
16.351341418596103,0.47476676164351966
16.384711503123853,0.5648561278934554
16.4180815876516,0.6410375334346325
16.451451672179346,0.6995420595132703
16.484821756707092,0.7338172513501376
16.51819184123484,0.7336993185203741
16.551561925762588,0.6872273167060877
16.584932010290334,0.5851073030906445
16.61830209481808,0.4262827055823884
16.65167217934583,0.22209358220610909
16.685042263873576,-0.003329965952715561
16.718412348401323,-0.21748697730634164
16.75178243292907,-0.38785330997426704
16.78515251745682,-0.49151598549561804
16.818522601984565,-0.5226067958188525
16.85189268651231,-0.4945244737195991
16.885262771040058,-0.4356573631579242
16.918632855567807,-0.3797141334834859
16.952002940095554,-0.35393545692893014
16.9853730246233,-0.3694890263899872
17.018743109151046,-0.4177231129577654
17.052113193678796,-0.4738100450807215
17.085483278206542,-0.5064573262163122
17.11885336273429,-0.48996609917715894
17.15222344726204,-0.41398933373284236
17.185593531789785,-0.2872747621459132
17.21896361631753,-0.13405091841247876
17.252333700845277,0.015464822513203195
17.285703785373027,0.13675372464112945
