Frequency (Hz),Amplitude
0.0,1.5190645790411006
0.01993355481727575,1.5185939109457478
0.0398671096345515,1.5171828863503092
0.059800664451827246,1.514834446137584
0.079734219269103,1.5115534978310943
0.09966777408637874,1.5073469247285598
0.11960132890365449,1.5022235987984742
0.13953488372093023,1.496194397447757
0.159468438538206,1.4892722242974443
0.17940199335548174,1.4814720341293792
0.19933554817275748,1.4728108621906446
0.21926910299003324,1.463307858061812
0.23920265780730898,1.4529843243091882
0.25913621262458475,1.4418637601475648
0.27906976744186046,1.4299719103372757
0.29900332225913623,1.417336819522898
0.318936877076412,1.4039888921888817
0.3388704318936877,1.3899609583531092
0.3588039867109635,1.3752883450384636
0.37873754152823924,1.360008953446239
0.39867109634551495,1.3441633415966645
0.4186046511627907,1.3277948119884744
0.4385382059800665,1.3109495035505012
0.4584717607973422,1.2936764867990669
0.47840531561461797,1.2760278606587143
0.49833887043189373,1.2580588488349196
0.5182724252491695,1.2398278929253481
0.5382059800664452,1.2213967386057938
0.5581395348837209,1.202830510211876
0.5780730897009968,1.1841977678489317
0.5980066445182725,1.1655705398017557
0.6179401993355482,1.1470243214985538
0.637873754152824,1.128638030650334
0.6578073089700996,1.1104939065085082
0.6777408637873754,1.0926773395740936
0.6976744186046512,1.0752766167160364
0.717607973421927,1.0583825657372323
0.7375415282392027,1.042088083251128
0.7574750830564785,1.026487530635836
0.7774086378737541,1.011675985189918
0.7973421926910299,0.997748337783899
0.8172757475083057,0.9847982345737291
0.8372093023255814,0.972916868847938
0.8571428571428572,0.9621916396909904
0.877076411960133,0.9527047063856593
0.8970099667774087,0.9445314804529358
0.9169435215946844,0.9377391096317229
0.9368770764119602,0.932385018308023
0.9568106312292359,0.9285155751727765
0.9767441860465116,0.9261649596679903
0.9966777408637875,0.9253542930520424
1.0166112956810631,0.9260910874975378
1.036544850498339,0.928369048362966
1.0564784053156147,0.9321682424663154
1.0764119601328903,0.9374556213664392
1.0963455149501662,0.9441858661337171
1.1162790697674418,0.9523025014345983
1.1362126245847177,0.9617392138454997
1.1561461794019936,0.9724213030629655
1.176079734219269,0.984267194982061
1.196013289036545,0.9971899515095641
1.2159468438538206,1.0110987219381726
1.2358803986710964,1.0259000929972848
1.255813953488372,1.041499307670987
1.275747508305648,1.0578013352015658
1.2956810631229239,1.0747117854489083
1.3156146179401993,1.0921376694477722
1.3355481727574752,1.1099880144443404
1.3554817275747508,1.1281743460151812
1.3754152823920267,1.1466110523561819
1.3953488372093024,1.1652156468330481
1.4152823920265782,1.1839089447812183
1.435215946843854,1.202615169673372
1.4551495016611296,1.2212620024250924
1.4750830564784054,1.239780586014175
1.495016611295681,1.2581054959132263
1.514950166112957,1.2761746851976985
1.5348837209302328,1.293929411665453
1.5548172757475083,1.3113141529310124
1.5747508305647842,1.3282765142576978
1.5946843853820598,1.344767132862818
1.6146179401993357,1.3607395815692471
1.6345514950166113,1.3761502739647755
1.6544850498338872,1.39095837265185
1.6744186046511629,1.4051257017067733
1.6943521594684385,1.418616664101219
1.7142857142857144,1.431398164554402
1.73421926910299,1.443439538066562
1.754152823920266,1.4547124842216235
1.7740863787375416,1.465191007228104
1.7940199335548175,1.4748513615833656
1.8139534883720931,1.4836720031908242
1.8338870431893688,1.491633545725168
1.8538205980066447,1.4987187220240101
1.8737541528239203,1.504912350279594
1.893687707641196,1.5102013048104026
1.9136212624584719,1.5145744912061665
1.9335548172757475,1.5180228256578105
1.9534883720930232,1.5205392183077528
1.9734219269102993,1.5221185604815952
1.993355481727575,1.5227577156908483
2.0132890365448506,1.522455514325306
2.0332225913621262,1.5212127519847611
2.0531561461794023,1.5190321914311642
2.073089700996678,1.5159185681721654
2.0930232558139537,1.511878599719565
2.1129568106312293,1.5069209985953842
2.132890365448505,1.5010564891882814
2.1528239202657806,1.4942978285903186
2.1727574750830567,1.4866598315703976
2.1926910299003324,1.478159399862571
2.212624584717608,1.4688155559660707
2.2325581395348837,1.458649481666934
2.25249169435216,1.4476845614956892
2.2724252491694354,1.4359464313316317
2.292358803986711,1.4234630323462105
2.312292358803987,1.4102646704441828
2.332225913621263,1.3963840813052069
2.352159468438538,1.3818565010460717
2.3720930232558137,1.3667197424061182
2.39202657807309,1.3510142761986363
2.4119601328903655,1.334783317557291
2.431893687707641,1.318072916228064
2.4518272425249172,1.3009320498001353
2.471760797342193,1.2834127183162083
2.4916943521594686,1.2655700381405983
2.511627906976744,1.247462332271375
2.5315614617940203,1.229151213446288
2.551495016611296,1.210701655397838
2.5714285714285716,1.1921820464503012
2.5913621262458477,1.1736642183264694
2.611295681063123,1.1552234415568359
2.6312292358803986,1.1369383773050343
2.6511627906976742,1.1188909738046282
2.6710963455149503,1.1011662940613762
2.691029900332226,1.0838522601679346
2.7109634551495017,1.0670392987236605
2.7308970099667778,1.0508198717240549
2.7508305647840534,1.0352878782076205
2.770764119601329,1.0205379142767466
2.7906976744186047,1.006664383185302
2.810631229235881,0.9937604532827067
2.8305647840531565,0.9819168698407478
2.850498338870432,0.9712206370402566
2.870431893687708,0.9617535982009672
2.8903654485049834,0.9535909548452239
2.910299003322259,0.9467997771527199
2.9302325581395348,0.9414375682372734
2.950166112956811,0.9375509508059706
2.9700996677740865,0.9351745456550096
2.990033222591362,0.9343301061341259
3.0099667774086383,0.935025960969214
3.029900332225914,0.9372568004333993
3.0498338870431896,0.9410038194903814
3.0697674418604657,0.9462352085880104
3.089700996677741,0.9529069609263408
3.1096345514950166,0.960963946735523
3.129568106312292,0.9703411922190902
3.1495016611295683,0.9809652942855218
3.169435215946844,0.9927559019762024
3.1893687707641196,1.005627200741003
3.2093023255813957,1.0194893449969267
3.2292358803986714,1.034249796084494
3.249169435215947,1.0498145352269475
3.2691029900332227,1.066089133091215
3.289036544850499,1.082979668118096
3.3089700996677744,1.100393494408871
3.32890365448505,1.1182398664381887
3.3488372093023258,1.136430432297278
3.3687707641196014,1.1548796098011056
3.388704318936877,1.1735048609549514
3.4086378737541527,1.1922268803239235
3.428571428571429,1.2109697121140146
3.4485049833887045,1.2296608095408892
3.46843853820598,1.2482310485568788
3.4883720930232562,1.2666147064013251
3.508305647840532,1.2847494138513855
3.5282392026578075,1.3025760885578486
3.548172757475083,1.320038855499656
3.5681063122923593,1.3370849594012788
3.588039867109635,1.353664672934157
3.60797342192691,1.3697312036605898
3.6279069767441863,1.3852406019622263
3.647840531561462,1.4001516716111646
3.6677740863787376,1.4144258841706159
3.6877076411960132,1.4280272980386963
3.7076411960132893,1.4409224826568536
3.727574750830565,1.4530804481801507
3.7475083056478407,1.4644725807366912
3.7674418604651168,1.4750725832796199
3.787375415282392,1.484856421945326
3.807308970099668,1.493802277771564
3.8272425249169437,1.5018905035908707
3.8471760797342194,1.509103585894109
3.867109634551495,1.5154261114513996
3.887043189368771,1.5208447384816781
3.9069767441860463,1.525348172172435
3.9269102990033224,1.5289271443685668
3.9468438538205985,1.531574397270612
3.9667774086378738,1.5332846710068653
3.98671096345515,1.5340546949712048
4.0066445182724255,1.5338831828461343
4.026578073089701,1.5327708312603752
4.046511627906977,1.5307203220598435
4.0664451827242525,1.5277363282009144
4.086378737541528,1.5238255233042335
4.106312292358805,1.518996594936513
4.1262458471760795,1.513260261715086
4.146179401993356,1.5066292943563206
4.166112956810632,1.4991185408120398
4.186046511627907,1.4907449556585053
4.205980066445183,1.481527633917818
4.225913621262459,1.4714878495012242
4.245847176079734,1.4606490984651173
4.26578073089701,1.4490371472615815
4.2857142857142865,1.4366800861429059
4.305647840531561,1.423608387839896
4.325581395348838,1.4098549715715776
4.345514950166113,1.395455272354579
4.365448504983389,1.3804473154558072
4.385382059800665,1.3648717956643797
4.40531561461794,1.348772160837466
4.425249169435216,1.3321946988890006
4.445182724252492,1.315188627026729
4.465116279069767,1.2978061815864852
4.485049833887043,1.2801027062491162
4.50498338870432,1.2621367357375106
4.524916943521594,1.243970071266386
4.544850498338871,1.2256678430432515
4.5647840531561465,1.2072985539911636
4.584717607973422,1.1889340975878302
4.604651162790698,1.170649741312783
4.624584717607974,1.1525240657076878
4.644518272425249,1.1346388475582212
4.664451827242526,1.11707887431108
4.6843853820598005,1.099931675705405
4.704318936877076,1.0832871579323005
4.724252491694353,1.0672371257002256
4.7441860465116275,1.0518746786820021
4.764119601328904,1.0372934712712512
4.78405315614618,1.0235868286892025
4.803986710963455,1.0108467184843375
4.823920265780731,0.9991625844344423
4.8438538205980075,0.9886200596393522
4.863787375415282,0.9792995867147465
4.883720930232559,0.9712749846419616
4.9036544850498345,0.964612012824069
4.92358803986711,0.9593669918184097
4.943521594684386,0.9555855455565155
4.963455149501661,0.9533015303009041
4.983388704318937,0.9525362102707939
5.003322259136213,0.953297728666448
5.023255813953488,0.9555809064662114
5.043189368770764,0.9593673814294795
5.063122923588041,0.9646260783929781
5.083056478405315,0.9713139816253938
5.102990033222592,0.9793771629521615
5.122923588039868,0.9887520072608186
5.142857142857143,0.9993665707167081
5.162790697674419,1.011142006562079
5.182724252491695,1.0239939979822992
5.20265780730897,1.037834145939324
5.222591362126246,1.0525712706011214
5.242524916943522,1.068112596586962
5.262458471760797,1.0843648034880484
5.282392026578074,1.1012349331296727
5.3023255813953485,1.1186311532972422
5.322259136212625,1.1364633839529383
5.342192691029901,1.1546437963690916
5.362126245847176,1.1730871983055418
5.382059800664452,1.1917113196574294
5.4019933554817285,1.210437013219135
5.421926910299003,1.229188384653837
5.44186046511628,1.2478928646961456
5.4617940199335555,1.2664812352622907
5.48172757475083,1.2848876196646648
5.501661129568107,1.3030494456433945
5.5215946843853825,1.320907388516441
5.541528239202658,1.338405300458453
5.561461794019934,1.3554901307722287
5.5813953488372094,1.3721118410230184
5.601328903654485,1.3882233180598644
5.621262458471762,1.4037802872438783
5.641196013289036,1.4187412276206
5.661129568106313,1.4330672903040869
5.681063122923589,1.4467222209623833
5.700996677740864,1.4596722869978842
5.72093023255814,1.4718862097850098
5.740863787375416,1.4833351021524517
5.760797342192691,1.4939924111653247
5.780730897009967,1.5038338661684645
5.800664451827243,1.51283743198468
5.820598006644518,1.520983267119277
5.840531561461795,1.528253686795866
5.8604651162790695,1.5346331306374452
5.880398671096346,1.5401081348057162
5.900332225913622,1.5446673084193856
5.920265780730897,1.5483013140858592
5.940199335548173,1.5510028523993764
5.960132890365449,1.5527666502806488
5.980066445182724,1.5535894530573033
6.0,1.55347002021078
6.0199335548172765,1.5524091247422476
6.039867109634551,1.550409556137988
6.059800664451828,1.5474761269420858
6.0797342192691035,1.5436156829718573
6.099667774086379,1.5388371172375583
6.119601328903655,1.5331513876527503
6.139534883720931,1.526571538644696
6.159468438538206,1.5191127267936022
6.179401993355482,1.5107922506456166
6.1993355481727574,1.5016295848550987
6.219269102990033,1.4916464188151246
6.23920265780731,1.4808666999302151
6.259136212624584,1.4693166816685344
6.279069767441861,1.4570249764992782
6.299003322259137,1.44402261377099
6.318936877076412,1.4303431025130897
6.338870431893688,1.4160224990400534
6.3588039867109645,1.401099479098437
6.378737541528239,1.385615414113806
6.398671096345516,1.3696144508559687
6.418604651162791,1.353143593538625
6.438538205980066,1.33625278698859
6.458471760797343,1.3189949990489478
6.4784053156146175,1.3014262998044828
6.498338870431894,1.2836059345259627
6.51827242524917,1.2655963864077342
6.538205980066445,1.2474634242177929
6.558139534883721,1.2292761288882283
6.578073089700998,1.2111068918605934
6.598006644518272,1.1930313766920353
6.617940199335549,1.175128434075552
6.6378737541528245,1.1574799591107978
6.6578073089701,1.1401706784971788
6.677740863787376,1.1232878544664142
6.6976744186046515,1.1069208919304827
6.717607973421927,1.0911608357369829
6.737541528239203,1.0760997463720898
6.7574750830564785,1.0618299452104178
6.777408637873754,1.0484431247285522
6.797342192691031,1.0360293251331874
6.8172757475083055,1.0246757866104974
6.837209302325582,1.0144656956617186
6.857142857142858,1.0054768542493462
6.877076411960133,0.9977803109268136
6.897009966777409,0.9914390026690296
6.9169435215946855,0.9865064634814521
6.93687707641196,0.9830256597478938
6.956810631229236,0.9810280116017104
6.9767441860465125,0.9805326537471768
6.996677740863787,0.9815459781470034
7.016611295681064,0.9840614856066976
7.036544850498339,0.9880599549961417
7.056478405315615,0.9935099196078865
7.076411960132891,1.0003684220764668
7.096345514950166,1.0085820042890568
7.116279069767442,1.0180878782072766
7.136212624584719,1.0288152181914965
7.156146179401993,1.0406865152244138
7.17607973421927,1.053618937691177
7.196013289036546,1.0675256509746254
7.21594684385382,1.0823170577706074
7.235880398671097,1.0979019314553993
7.2558139534883725,1.1141884249825085
7.275747508305648,1.1310849468721704
7.295681063122924,1.1485009034162503
7.3156146179402,1.1663473120599077
7.335548172757475,1.1845372950641881
7.355481727574752,1.2029864651686928
7.3754152823920265,1.2216132163115665
7.395348837209303,1.2403389328037366
7.415282392026579,1.2590881299657544
7.435215946843854,1.277788538357396
7.45514950166113,1.2963711425601332
7.475083056478406,1.3147701841627613
7.495016611295681,1.332923137263381
7.514950166112956,1.350770663512247
7.5348837209302335,1.3682565525281354
7.554817275747508,1.385327652452089
7.574750830564784,1.4019337944666812
7.5946843853820605,1.418027714306771
7.614617940199336,1.4335649731112632
7.634551495016611,1.4485038794041964
7.6544850498338874,1.462805413534074
7.674418604651163,1.476433155529756
7.694352159468439,1.4893532170357853
7.714285714285715,1.5015341777589477
7.73421926910299,1.5129470266785754
7.754152823920266,1.523565108138273
7.774086378737542,1.533364072836457
7.794019933554818,1.5423218336616953
7.813953488372093,1.5504185262703336
7.83388704318937,1.5576364742730167
7.853820598006645,1.5639601588809657
7.8737541528239205,1.569376192856904
7.893687707641197,1.5738732986198054
7.913621262458472,1.5774422903620697
7.9335548172757475,1.5800760600528996
7.953488372093024,1.581769567220365
7.9734219269103,1.582519832425801
7.9933554817275745,1.5823259343673668
8.013289036544851,1.5811890105736048
8.033222591362128,1.579112261672665
8.053156146179402,1.576100959247099
8.073089700996679,1.5721624573082549
8.093023255813954,1.5673062074467248
8.11295681063123,1.5615437777359615
8.132890365448505,1.5548888754843524
8.152823920265782,1.547357373944841
8.172757475083056,1.5389673431012203
8.192691029900331,1.5297390846525765
8.21262458471761,1.5196951713129256
8.232558139534884,1.508860490526813
8.252491694352159,1.4972622926734238
8.272425249169435,1.484930243785974
8.292358803986712,1.4718964827467875
8.312292358803987,1.4581956828264444
8.332225913621263,1.443865117311358
8.352159468438538,1.428944728801052
8.372093023255815,1.41347720154685
8.392026578073091,1.3975080359374052
8.411960132890366,1.3810856239035227
8.43189368770764,1.3642613236048051
8.451827242524917,1.3470895312606956
8.471760797342194,1.3296277473889881
8.491694352159469,1.311936634005902
8.511627906976745,1.2940800585167485
8.53156146179402,1.276125119085236
8.551495016611296,1.2581421452209605
8.571428571428573,1.2402046661884312
8.591362126245848,1.2223893386578313
8.611295681063122,1.2047758238471666
8.6312292358804,1.187446603339443
8.651162790697676,1.1704867219205148
8.67109634551495,1.1539834453332343
8.691029900332227,1.138025820978905
8.710963455149502,1.1227041305409682
8.730897009966778,1.1081092254963096
8.750830564784053,1.0943317397380319
8.77076411960133,1.0814611782285775
8.790697674418604,1.069584886796226
8.81063122923588,1.058786915783916
8.830564784053157,1.0491467989446097
8.850498338870432,1.040738278190312
8.870431893687707,1.0336280137303346
8.890365448504983,1.0278743267654464
8.91029900332226,1.023526027133471
8.930232558139535,1.0206213800928836
8.950166112956811,1.0191872640161577
8.970099667774086,1.019238563824093
8.990033222591363,1.0207778337935487
9.00996677740864,1.023795248793734
9.029900332225914,1.0282688464550733
9.049833887043189,1.0341650459736624
9.069767441860467,1.0414394139648298
9.089700996677742,1.0500376355191294
9.109634551495017,1.0598966404184527
9.129568106312293,1.0709458307764201
9.14950166112957,1.0831083570087294
9.169435215946844,1.0963023933559728
9.189368770764121,1.110442371196167
9.209302325581396,1.1254401369979359
9.22923588039867,1.1412060109304196
9.249169435215949,1.157649730993619
9.269102990033224,1.1746812754315215
9.289036544850498,1.1922115627635492
9.308970099667773,1.2101530338653652
9.328903654485051,1.2284201241697494
9.348837209302326,1.2469296363865454
9.368770764119601,1.2656010253641092
9.388704318936878,1.2843566070696595
9.408637873754152,1.3031217033778943
9.428571428571429,1.3218247336314057
9.448504983388705,1.340397262940322
9.46843853820598,1.358774016057287
9.488372093023255,1.3768928644936245
9.508305647840533,1.3946947934046499
9.528239202657808,1.412123853708967
9.548172757475083,1.4291271039450983
9.56810631229236,1.4456545455200214
9.588039867109636,1.4616590542694377
9.60797342192691,1.4770963106262889
9.627906976744187,1.4919247301702057
9.647840531561462,1.5061053959004753
9.667774086378738,1.5196019932221485
9.687707641196015,1.5323807483535623
9.70764119601329,1.5444103706382764
9.727574750830565,1.5556619990703369
9.747508305647841,1.566109153206558
9.767441860465118,1.575727688539101
9.787375415282392,1.5844957563274227
9.807308970099669,1.5923937678374618
9.827242524916944,1.5994043629010184
9.84717607973422,1.6055123826891096
9.867109634551497,1.6107048465829887
9.887043189368772,1.6149709330269588
9.906976744186046,1.6183019642525673
9.926910299003321,1.6206913947755472
9.9468438538206,1.6221348035816396
9.966777408637874,1.6226298899348146
9.986710963455149,1.6221764727615726
10.006644518272426,1.6207764935844233
10.026578073089702,1.6184340229993819
10.046511627906977,1.6151552707115395
10.066445182724253,1.6109485991628225
10.086378737541528,1.6058245408030403
10.106312292358805,1.5997958190697965
10.126245847176081,1.5928773731543904
10.146179401993356,1.58508638663645
10.16611295681063,1.5764423200703044
10.186046511627907,1.5669669475978854
10.205980066445184,1.5566843976443916
10.225913621262459,1.5456211977223255
10.245847176079735,1.5338063233219155
10.26578073089701,1.5212712507998227
10.285714285714286,1.5080500140865267
10.305647840531563,1.4941792649127073
10.325581395348838,1.4796983360984632
10.345514950166113,1.4646493072503888
10.36544850498339,1.4490770719611832
10.385382059800666,1.433029405297733
10.40531561461794,1.416557029984774
10.425249169435217,1.399713679234728
10.445182724252492,1.3825561536312003
10.465116279069768,1.3651443688354519
10.485049833887045,1.3475413901492748
10.50498338870432,1.3298134491340772
10.524916943521594,1.3120299365641772
10.544850498338871,1.2942633650002975
10.564784053156147,1.2765892932434382
10.584717607973422,1.2590862039216388
10.604651162790697,1.241835324550143
10.624584717607974,1.2249203816937844
10.64451827242525,1.2084272774828804
10.664451827242525,1.1924436778522498
10.684385382059801,1.1770585026738745
10.704318936877076,1.1623613096309162
10.724252491694353,1.1484415664214231
