Frequency (Hz),Amplitude
0.0,7.042908595057493
0.01978021978021978,7.041801381150538
0.03956043956043956,7.03848310936146
0.05934065934065934,7.032963887806836
0.07912087912087912,7.025260557693838
0.0989010989010989,7.0153966846358005
0.11868131868131868,7.003402546083922
0.13846153846153844,6.989315114458643
0.15824175824175823,6.973178035436579
0.17802197802197803,6.955041600714612
0.1978021978021978,6.934962714431137
0.21758241758241756,6.9130048522742555
0.23736263736263735,6.889238012147447
0.2571428571428572,6.863738655094443
0.2769230769230769,6.836589635006739
0.2967032967032967,6.807880115450278
0.31648351648351647,6.777705471752906
0.3362637362637363,6.746167176294341
0.35604395604395606,6.713372664737008
0.3758241758241758,6.679435180735393
0.3956043956043956,6.644473596466162
0.4153846153846154,6.60861220614059
0.4351648351648351,6.571980489501244
0.45494505494505494,6.534712842177041
0.4747252747252747,6.496948269686671
0.4945054945054945,6.458830041852754
0.5142857142857143,6.420505304433304
0.5340659340659341,6.382124644909612
0.5538461538461538,6.343841609606908
0.5736263736263736,6.305812169684433
0.5934065934065934,6.268194134030551
0.6131868131868132,6.231146507752271
0.6329670329670329,6.1948287957673225
0.6527472527472528,6.159400251999434
0.6725274725274726,6.125019075842705
0.6923076923076923,6.091841558892508
0.7120879120879121,6.060021186420117
0.7318681318681318,6.029707699667556
0.7516483516483516,6.001046126717234
0.7714285714285715,5.97417579139424
0.7912087912087912,5.94922931132291
0.810989010989011,5.92633159780807
0.8307692307692308,5.905598871564283
0.8505494505494506,5.887137709388049
0.8703296703296702,5.871044137577423
0.8901098901098901,5.857402788176964
0.9098901098901099,5.846286133905698
0.9296703296703297,5.8377538168739145
0.9494505494505494,5.831852084900194
0.9692307692307692,5.828613347420423
0.989010989010989,5.8280558606845805
1.0087912087912088,5.830183549242817
1.0285714285714287,5.834985967733302
1.0483516483516484,5.842438403823698
1.0681318681318681,5.852502119961706
1.087912087912088,5.865124728494227
1.1076923076923075,5.880240691850647
1.1274725274725275,5.897771936967982
1.1472527472527472,5.917628571056996
1.1670329670329669,5.93970968423217
1.1868131868131868,5.9639042234896005
1.2065934065934065,5.990091922018653
1.2263736263736265,6.018144267851146
1.2461538461538462,6.047925496338495
1.2659340659340659,6.07929359183608
1.2857142857142858,6.112101285187271
1.3054945054945055,6.1461970350538655
1.3252747252747252,6.181425982750366
1.3450549450549452,6.217630871929057
1.3648351648351649,6.254652926159702
1.3846153846153846,6.292332679092525
1.4043956043956045,6.330510753438848
1.4241758241758242,6.369028586415083
1.443956043956044,6.407729100548857
1.4637362637362636,6.446457319829504
1.4835164835164834,6.485060932094236
1.5032967032967033,6.523390799280652
1.523076923076923,6.561301417754924
1.542857142857143,6.598651331356311
1.5626373626373626,6.635303500099232
1.5824175824175823,6.671125627659566
1.6021978021978023,6.705990450861263
1.621978021978022,6.739775994387937
1.6417582417582417,6.772365793888811
1.6615384615384616,6.8036490905421045
1.6813186813186813,6.833520999995978
1.7010989010989013,6.8618826584362616
1.720879120879121,6.888641348342724
1.7406593406593405,6.913710606297117
1.7604395604395604,6.9370103150042075
1.7802197802197801,6.958466781485348
1.7999999999999998,6.9780128032064725
1.8197802197802198,6.995587723711457
1.8395604395604395,7.01113747914918
1.8593406593406594,7.024614636908665
1.879120879120879,7.035978427412943
1.8989010989010988,7.045194769967052
1.9186813186813187,7.052236293409944
1.9384615384615385,7.057082352181728
1.9582417582417584,7.059719038286942
1.978021978021978,7.060139189508894
1.9978021978021978,7.05834239410956
2.0175824175824175,7.05433499213135
2.0373626373626372,7.048130073300695
2.0571428571428574,7.039747471417157
2.076923076923077,7.029213754993631
2.096703296703297,7.016562213792521
2.1164835164835165,7.001832840777311
2.1362637362637362,6.985072308868164
2.1560439560439564,6.966333941751897
2.175824175824176,6.945677677850964
2.195604395604396,6.923170026401139
2.215384615384615,6.89888401442345
2.2351648351648348,6.87289912320226
2.254945054945055,6.845301212698577
2.2747252747252746,6.816182432136577
2.2945054945054943,6.785641114803349
2.314285714285714,6.753781654900229
2.3340659340659338,6.720714364081032
2.353846153846154,6.686555305113895
2.3736263736263736,6.651426099914671
2.3934065934065933,6.615453709028032
2.413186813186813,6.578770179487909
2.4329670329670328,6.5415123578807695
2.452747252747253,6.503821565377643
2.4725274725274726,6.4658432315066765
2.4923076923076923,6.427726483523886
2.512087912087912,6.389623688421413
2.5318681318681318,6.351689944908531
2.5516483516483515,6.314082523126587
2.5714285714285716,6.276960250432198
2.5912087912087913,6.240482842315726
2.610989010989011,6.204810178424765
2.6307692307692307,6.170101524738617
2.6505494505494505,6.136514704186586
2.6703296703296706,6.104205219407927
2.6901098901098903,6.073325332891741
2.70989010989011,6.0440231113769505
2.7296703296703297,6.0164414430875155
2.7494505494505495,5.990717038069263
2.769230769230769,5.966979423510093
2.7890109890109893,5.9453499473883005
2.808791208791209,5.925940805019677
2.8285714285714287,5.908854103980189
2.8483516483516484,5.894180983388656
2.8681318681318677,5.882000803577681
2.887912087912088,5.872380421710015
2.9076923076923076,5.8653735678895496
2.9274725274725273,5.861020334770046
2.947252747252747,5.859346791615672
2.9670329670329667,5.860364731276334
2.986813186813187,5.864071555699153
3.0065934065934066,5.870450302518223
3.0263736263736263,5.879469812077605
3.046153846153846,5.891085031083771
3.0659340659340657,5.9052374460888455
3.085714285714286,5.92185563729741
3.1054945054945056,5.940855940872926
3.1252747252747253,5.962143206073941
3.145054945054945,5.985611632224613
3.1648351648351647,6.011145669739115
3.184615384615385,6.038620969164944
3.2043956043956046,6.067905362450346
3.2241758241758243,6.098859861319283
3.243956043956044,6.131339658681911
3.2637362637362637,6.1651951203374695
3.2835164835164834,6.20027275575748
3.3032967032967036,6.236416158386978
3.3230769230769233,6.273466907596595
3.342857142857143,6.311265426092104
3.3626373626373627,6.349651788187375
3.3824175824175824,6.38846647583025
3.4021978021978025,6.4275510806079375
3.4219780219780223,6.466748951132261
3.441758241758242,6.50590578620723
3.4615384615384617,6.544870175010156
3.481318681318681,6.583494086182231
3.501098901098901,6.621633308233785
3.520879120879121,6.659147844039695
3.5406593406593405,6.695902262447316
3.5604395604395602,6.731766010160098
3.58021978021978,6.766613687111836
3.5999999999999996,6.800325288525866
3.61978021978022,6.8327864167745
3.6395604395604395,6.8638884660314075
3.659340659340659,6.893528782553801
3.679120879120879,6.921610803253174
3.6989010989010986,6.948044175021335
3.718681318681319,6.972744857078426
3.7384615384615385,6.995635208408293
3.758241758241758,7.0166440621469635
3.7780219780219784,7.03570678859568
3.7978021978021976,7.052765348343069
3.8175824175824173,7.0677683368024695
3.8373626373626375,7.080671021301251
3.8571428571428568,7.091435371699142
3.876923076923077,7.100030085361717
3.896703296703296,7.106430607172687
3.916483516483517,7.110619145133593
3.936263736263736,7.1125846819708824
3.956043956043956,7.11232298304661
3.9758241758241755,7.109836600749064
3.9956043956043956,7.105134875422069
4.015384615384615,7.098233932774476
4.035164835164835,7.089156677594009
4.054945054945055,7.077932783469493
4.0747252747252745,7.064598678101866
4.094505494505494,7.049197523655999
4.114285714285715,7.031779191470008
4.134065934065934,7.012400230296694
4.153846153846154,6.9911238271004805
4.173626373626373,6.968019759273807
4.193406593406594,6.943164336967321
4.213186813186813,6.916640334049756
4.232967032967033,6.888536906026121
4.252747252747253,6.85894949304814
4.2725274725274724,6.827979705950645
4.292307692307692,6.7957351930452194
4.312087912087913,6.7623294852015
4.331868131868132,6.727881816552397
4.351648351648352,6.6925169179794715
4.371428571428571,6.656364780376021
4.391208791208792,6.619560384559247
4.410989010989011,6.582243394619333
4.43076923076923,6.5445578114675325
4.450549450549451,6.506651583390246
4.4703296703296695,6.468676170549446
4.49010989010989,6.430786060607764
4.50989010989011,6.393138233016216
4.52967032967033,6.355891570001013
4.549450549450549,6.319206212937198
4.569230769230769,6.283242863613189
4.589010989010989,6.2481620308779195
4.608791208791209,6.21412322432257
4.628571428571428,6.181284097973382
4.648351648351649,6.149799548444221
4.6681318681318675,6.119820773588717
4.687912087912088,6.091494299361258
4.707692307692308,6.064960984292034
4.7274725274725276,6.040355012638201
4.747252747252747,6.017802888818875
4.767032967032967,5.997422447093478
4.786813186813187,5.979321891518948
4.806593406593407,5.963598881939861
4.826373626373626,5.950339682053778
4.846153846153847,5.939618385394815
4.8659340659340655,5.931496234352971
4.885714285714286,5.926021046083245
4.905494505494506,5.923226757373709
4.9252747252747255,5.923133098281797
4.945054945054945,5.925745401689158
4.964835164835165,5.931054552968847
4.984615384615385,5.939037080825486
5.004395604395604,5.94965538719178
5.024175824175824,5.962858110980082
5.043956043956045,5.9785806176235505
5.0637362637362635,5.996745603814284
5.083516483516483,6.017263804746584
5.103296703296703,6.040034789568892
5.123076923076923,6.064947829672588
5.142857142857143,6.091882823906722
5.162637362637362,6.120711264781794
5.182417582417583,6.151297230168055
5.2021978021978015,6.183498385840468
5.221978021978022,6.2171669853972835
5.241758241758242,6.252150855499775
5.2615384615384615,6.288294355965138
5.281318681318681,6.325439305913083
5.301098901098901,6.363425868850662
5.320879120879121,6.4020933912175915
5.340659340659341,6.44128119045953
5.36043956043956,6.480829290111394
5.380219780219781,6.520579100635441
5.3999999999999995,6.560374045852861
5.41978021978022,6.600060135731117
5.43956043956044,6.639486487043382
5.4593406593406595,6.678505794011353
5.479120879120879,6.716974751489363
5.498901098901099,6.75475443356364
5.518681318681319,6.791710630640185
5.538461538461538,6.827714148197251
5.558241758241758,6.862641070398402
5.578021978021979,6.896372991717017
5.5978021978021975,6.928797219625753
5.617582417582418,6.959806951268018
5.637362637362637,6.989301426864433
5.6571428571428575,7.017186062423477
5.676923076923077,7.0433725641310305
5.696703296703297,7.067779026593961
5.716483516483517,7.0903300169124135
5.736263736263735,7.110956646359396
5.756043956043956,7.129596631254932
5.775824175824176,7.14619434443948
5.795604395604395,7.160700858576858
5.815384615384615,7.173073982351674
5.835164835164835,7.1832782904703025
5.854945054945055,7.191285148226851
5.874725274725275,7.197072731255932
5.894505494505494,7.200626040961239
5.914285714285715,7.201936915981737
5.934065934065933,7.201004039934465
5.953846153846154,7.197832945553224
5.973626373626374,7.192436015223866
5.993406593406593,7.184832477798757
6.013186813186813,7.175048401453031
6.032967032967033,7.163116682222716
6.052747252747253,7.149077027737446
6.072527472527473,7.132975935528009
6.092307692307692,7.114866665149246
6.112087912087913,7.094809203211385
6.131868131868131,7.072870220256847
6.151648351648352,7.049123018254187
6.171428571428572,7.023647467306415
6.191208791208791,6.9965299299874655
6.210989010989011,6.967863171529309
6.230769230769231,6.9377462538843195
6.2505494505494505,6.906284411486475
6.270329670329671,6.873588906332941
6.29010989010989,6.839776859810612
6.309890109890111,6.804971058505398
6.329670329670329,6.76929973106326
6.349450549450549,6.732896293030197
6.36923076923077,6.695899056494521
6.3890109890109885,6.658450901300981
6.408791208791209,6.620698904616686
6.428571428571428,6.582793925719254
6.4483516483516485,6.5448901430638635
6.468131868131868,6.507144540985426
6.487912087912088,6.4697163438219905
6.507692307692308,6.432766395820389
6.527472527472527,6.396456485918827
6.547252747252747,6.3609486174028635
6.567032967032967,6.326404223504271
6.5868131868131865,6.29298333125357
6.606593406593407,6.2608436772943135
6.626373626373626,6.230139780897627
6.6461538461538465,6.201021981045056
6.665934065934065,6.173635446130186
6.685714285714286,6.148119166506854
6.705494505494506,6.124604941715108
6.725274725274725,6.103216375668779
6.745054945054945,6.084067894308562
6.764835164835165,6.067263801129752
6.7846153846153845,6.05289738650792
6.804395604395605,6.041050106802664
6.824175824175824,6.031790848771635
6.8439560439560445,6.025175293847715
6.863736263736263,6.021245395324004
6.883516483516484,6.020028979483542
6.903296703296704,6.021539479264845
6.923076923076923,6.025775806256962
6.942857142857143,6.03272236377977
6.962637362637362,6.042349200652365
6.9824175824175825,6.054612302118896
7.002197802197802,6.069454011418879
7.021978021978022,6.086803572780764
7.041758241758242,6.106577784287016
7.061538461538461,6.128681747186155
7.081318681318681,6.153009696863471
7.101098901098901,6.179445899849767
7.1208791208791204,6.2078656009393525
7.140659340659341,6.238136004671939
7.16043956043956,6.270117276054868
7.1802197802197805,6.303663546392533
7.199999999999999,6.338623911371034
7.21978021978022,6.374843410035613
7.23956043956044,6.412163974915955
7.259340659340659,6.450425345225878
7.279120879120879,6.489465936723365
7.298901098901099,6.529123663410322
7.318681318681318,6.56923670773653
7.338461538461539,6.609644237317699
7.358241758241758,6.650187067365059
7.3780219780219785,6.690708269042474
7.397802197802197,6.731053724817087
7.417582417582418,6.771072632554485
7.437362637362638,6.810617960641428
7.457142857142857,6.849546856810772
7.476923076923077,6.88772101361049
7.496703296703297,6.925006993619036
7.516483516483516,6.961276517577971
7.536263736263736,6.996406718607456
7.556043956043957,7.030280365604708
7.575824175824176,7.062786058813555
7.595604395604395,7.093818400406896
7.615384615384615,7.123278142752932
7.635164835164835,7.151072316849508
7.654945054945055,7.177114343215116
7.674725274725275,7.2013241273264175
7.694505494505494,7.223628141494178
7.7142857142857135,7.243959494875864
7.734065934065935,7.262257993136028
7.753846153846154,7.278470189086309
7.7736263736263735,7.292549425466113
7.793406593406592,7.304455870863784
7.813186813186814,7.314156549624376
7.832967032967034,7.321625366446037
7.852747252747252,7.3268431262286695
7.872527472527472,7.329797549607531
7.892307692307693,7.33048328447783
7.912087912087912,7.328901913693472
7.931868131868132,7.325061959002551
7.951648351648351,7.318978881162499
7.971428571428572,7.310675076056848
7.991208791208791,7.300179866513291
8.010989010989011,7.2875294893961104
8.03076923076923,7.272767077414738
8.05054945054945,7.255942634952971
8.07032967032967,7.237113007078345
8.09010989010989,7.216341840738323
8.10989010989011,7.193699536988285
8.129670329670331,7.1692631929252215
8.149450549450549,7.143116531821678
8.169230769230769,7.115349819765884
8.189010989010988,7.08605976691962
8.20879120879121,7.0553494113051665
8.22857142857143,7.023327982831241
8.248351648351647,6.990110745068744
8.268131868131867,6.955818812095316
8.287912087912087,6.920578937550942
8.307692307692308,6.884523272892497
8.327472527472528,6.8477890917132305
8.347252747252746,6.810518476916091
8.367032967032966,6.772857967509439
8.386813186813187,6.7349581618458645
8.406593406593407,6.696973274264708
8.426373626373627,6.65906064234359
8.446153846153845,6.621380182330092
8.465934065934066,6.584093790828197
8.485714285714286,6.547364691469254
8.505494505494505,6.511356726114997
8.525274725274725,6.476233591127202
8.545054945054945,6.442158020395007
8.564835164835165,6.409290918129114
8.584615384615384,6.3777904458942745
8.604395604395604,6.347811069930389
8.624175824175826,6.319502576467421
8.643956043956043,6.293009064419104
8.663736263736263,6.268467926482269
8.683516483516483,6.246008831199579
8.703296703296704,6.225752719885635
8.723076923076924,6.207810833387088
8.742857142857142,6.1922837843688585
8.762637362637362,6.1792606911180075
8.782417582417583,6.16881838867855
8.802197802197803,6.16102073243601
8.821978021978023,6.155918008047357
8.84175824175824,6.153546459874358
8.86153846153846,6.153927947871178
8.881318681318682,6.157069740271879
8.901098901098901,6.16296444651831
8.920879120879121,6.171590091780733
8.940659340659339,6.182910331280778
8.96043956043956,6.19687479956233
8.98021978021978,6.2134195869973725
9.0,6.232467833274244
9.01978021978022,6.253930425488263
9.03956043956044,6.277706786805718
9.05934065934066,6.3036857405405655
9.079120879120879,6.331746433877412
9.098901098901099,6.361759305377213
9.11868131868132,6.393587080771408
9.138461538461538,6.427085782326299
9.158241758241758,6.462105738169767
9.178021978021977,6.498492579337215
9.197802197802199,6.536088213832073
9.217582417582419,6.574731768631688
9.237362637362637,6.614260492230625
9.257142857142856,6.654510611941294
9.276923076923078,6.695318141716321
9.296703296703297,6.7365196376815835
9.316483516483517,6.7779528998470315
9.336263736263735,6.819457619579531
9.356043956043957,6.860875973371201
9.375824175824176,6.9020531642198275
9.395604395604396,6.942837912562345
9.415384615384616,6.983082899178946
9.435164835164835,7.022645162829119
9.454945054945055,7.061386455607899
9.474725274725275,7.099173559136498
9.494505494505495,7.135878564743606
9.514285714285714,7.171379120766972
9.534065934065934,7.205558650023352
9.553846153846154,7.238306540371836
9.573626373626373,7.269518311141589
9.593406593406593,7.299095758019894
9.613186813186815,7.326947078807536
9.632967032967032,7.352986982253245
9.652747252747252,7.377136781981107
9.672527472527472,7.399324477329596
9.692307692307693,7.419484822729688
9.712087912087913,7.437559387065977
9.731868131868131,7.453496604288211
9.75164835164835,7.467251816373346
9.771428571428572,7.478787309579159
9.791208791208792,7.488072344779689
9.810989010989012,7.495083182529651
9.83076923076923,7.499803103368438
9.850549450549451,7.502222423743371
9.87032967032967,7.5023385078051685
9.89010989010989,7.500155775204862
9.90989010989011,7.495685704899196
9.92967032967033,7.488946834849301
9.94945054945055,7.479964757373969
9.96923076923077,7.468772109792374
9.989010989010989,7.455408559860424
10.008791208791209,7.439920785368996
10.028571428571428,7.422362447129281
10.048351648351648,7.402794154420297
10.068131868131868,7.381283421814611
10.08791208791209,7.357904616130857
10.107692307692307,7.332738892085179
10.127472527472527,7.3058741150285815
10.147252747252747,7.277404768965175
10.167032967032966,7.247431847847952
10.186813186813188,7.216062727947985
10.206593406593406,7.183411018891997
10.226373626373626,7.149596390768225
10.246153846153845,7.114744374516393
10.265934065934067,7.078986132652396
10.285714285714286,7.042458197241221
10.305494505494504,7.00530217193256
10.325274725274724,6.967664394826312
10.345054945054946,6.929695558951624
10.364835164835165,6.891550287240346
10.384615384615385,6.853386659068772
10.404395604395603,6.815365685747277
10.424175824175824,6.777650732772207
10.443956043956044,6.740406887233602
10.463736263736264,6.703800269507573
10.483516483516484,6.667997289263486
10.503296703296703,6.633163846886019
10.523076923076923,6.59946448264731
10.542857142857143,6.567061477352572
10.562637362637362,6.5361139097013945
10.582417582417584,6.506776677222983
10.602197802197802,6.479199489311561
10.621978021978022,6.453525842551929
10.641758241758241,6.429891990116916
10.661538461538463,6.408425918464642
10.681318681318682,6.389246345782862
10.7010989010989,6.372461757541395
10.72087912087912,6.3581694950458845
10.740659340659342,6.34645491297288
10.760439560439561,6.337390621458365
10.780219780219781,6.331035827384526
10.799999999999999,6.327435788059707
10.819780219780219,6.326621388544356
10.83956043956044,6.328608851494812
