Frequency (Hz),Amplitude
0.0,11.900749075158119
0.01978021978021978,11.901676637265185
0.03956043956043956,11.904455267824787
0.05934065934065934,11.909072823174434
0.07912087912087912,11.915509142363467
0.0989010989010989,11.923736163999507
0.11868131868131868,11.933718088084722
0.13846153846153844,11.945411581136845
0.15824175824175823,11.958766022463696
0.17802197802197803,11.973723789075763
0.1978021978021978,11.990220576387676
0.21758241758241756,12.008185751578663
0.23736263736263735,12.027542736260141
0.2571428571428572,12.048209414935073
0.2769230769230769,12.070098565629927
0.2967032967032967,12.093118309034452
0.31648351648351647,12.117172572493025
0.3362637362637363,12.14216156525185
0.35604395604395606,12.167982261471964
0.3758241758241758,12.19452888766447
0.3956043956043956,12.221693411384717
0.4153846153846154,12.249366028230142
0.4351648351648351,12.277435644415725
0.45494505494505494,12.305790352444935
0.4747252747252747,12.33431789764713
0.4945054945054945,12.362906133608503
0.5142857142857143,12.39144346477851
0.5340659340659341,12.419819274782476
0.5538461538461538,12.447924339209893
0.5736263736263736,12.47565122187477
0.5934065934065934,12.502894653755321
0.6131868131868132,12.529551894014999
0.6329670329670329,12.555523072683272
0.6527472527472528,12.580711514732267
0.6725274725274726,12.605024045424157
0.6923076923076923,12.628371276924213
0.7120879120879121,12.650667876275863
0.7318681318681318,12.671832814918417
0.7516483516483516,12.691789599995161
0.7714285714285715,12.710466487751367
0.7912087912087912,12.72779667935894
0.810989010989011,12.7437184995285
0.8307692307692308,12.758175558281577
0.8505494505494506,12.771116896256924
0.8703296703296702,12.782497113916431
0.8901098901098901,12.792276484999578
0.9098901098901099,12.800421054550931
0.9296703296703297,12.806902721815197
0.9494505494505494,12.811699308258259
0.9692307692307692,12.814794610932823
0.989010989010989,12.81617844136373
1.0087912087912088,12.815846650081308
1.0285714285714287,12.81380113688343
1.0483516483516484,12.810049846856954
1.0681318681318681,12.804606752139623
1.087912087912088,12.797491819353526
1.1076923076923075,12.788730962592583
1.1274725274725275,12.778355981799255
1.1472527472527472,12.766404486321012
1.1670329670329669,12.752919803395582
1.1868131868131868,12.737950871276562
1.2065934065934065,12.721552116678565
1.2263736263736265,12.703783316194395
1.2461538461538462,12.684709441317333
1.2659340659340659,12.664400486689823
1.2857142857142858,12.642931281197773
1.3054945054945055,12.62038128153737
1.3252747252747252,12.596834347901167
1.3450549450549452,12.572378501462346
1.3648351648351649,12.547105663383073
1.3846153846153846,12.521111375134172
1.4043956043956045,12.494494499991909
1.4241758241758242,12.46735690567322
1.443956043956044,12.43980312818447
1.4637362637362636,12.411940017091544
1.4835164835164834,12.38387636257061
1.5032967032967033,12.35572250476969
1.523076923076923,12.32758992620013
1.542857142857143,12.299590828083739
1.5626373626373626,12.271837691803634
1.5824175824175823,12.24444282684329
1.6021978021978023,12.217517906845046
1.621978021978022,12.191173495674075
1.6417582417582417,12.165518565631528
1.6615384615384616,12.140660010216928
1.6813186813186813,12.116702154089303
1.7010989010989013,12.093746263113507
1.720879120879121,12.071890057595692
1.7406593406593405,12.051227232004644
1.7604395604395604,12.031846984635937
1.7802197802197801,12.013833560798139
1.7999999999999998,11.997265813178384
1.8197802197802198,11.982216783073074
1.8395604395604395,11.968753306143793
1.8593406593406594,11.956935646276227
1.879120879120879,11.946817160977227
1.8989010989010988,11.938444001543857
1.9186813186813187,11.931854850977212
1.9384615384615385,11.92708070229774
1.9582417582417584,11.924144679550135
1.978021978021978,11.923061903372993
1.9978021978021978,11.923839402556318
2.0175824175824175,11.926476072529574
2.0373626373626372,11.930962681222255
2.0571428571428574,11.937281922229868
2.076923076923077,11.945408514709893
2.096703296703297,11.955309348936597
2.1164835164835165,11.966943675970064
2.1362637362637362,11.980263339453199
2.1560439560439564,11.99521304714904
2.175824175824176,12.011730679476573
2.195604395604396,12.029747632001998
2.215384615384615,12.049189188598298
2.2351648351648348,12.069974921800275
2.254945054945055,12.092019116757205
2.2747252747252746,12.115231215118234
2.2945054945054943,12.13951627517549
2.314285714285714,12.164775444632161
2.3340659340659338,12.19090644245328
2.353846153846154,12.217804046389874
2.3736263736263736,12.245360582936394
2.3934065934065933,12.273466416680893
2.413186813186813,12.302010436230209
2.4329670329670328,12.330880534132465
2.452747252747253,12.359964078470353
2.4725274725274726,12.389148374054807
2.4923076923076923,12.41832111140527
2.512087912087912,12.44737080195449
2.5318681318681318,12.47618719815934
2.5516483516483515,12.504661697430867
2.5714285714285716,12.532687729014027
2.5912087912087913,12.560161123148944
2.610989010989011,12.586980462028379
2.6307692307692307,12.61304741223127
2.6505494505494505,12.638267038457725
2.6703296703296706,12.662548098517618
2.6901098901098903,12.685803319633347
2.70989010989011,12.707949656207454
2.7296703296703297,12.728908529278835
2.7494505494505495,12.74860604794885
2.769230769230769,12.766973213100298
2.7890109890109893,12.783946103761119
2.808791208791209,12.799466046480525
2.8285714285714287,12.813479768089909
2.8483516483516484,12.825939532215997
2.8681318681318677,12.836803259898888
2.887912087912088,12.846034634646616
2.9076923076923076,12.853603192228501
2.9274725274725273,12.859484395476015
2.947252747252747,12.863659694320358
2.9670329670329667,12.86611657125373
2.986813186813187,12.866848572354801
3.0065934065934066,12.86585532397154
3.0263736263736263,12.863142535104199
3.046153846153846,12.85872198548169
3.0659340659340657,12.852611499273547
3.085714285714286,12.844834904330414
3.1054945054945056,12.835421976797305
3.1252747252747253,12.824408370897908
3.145054945054945,12.811835533644807
3.1648351648351647,12.797750604191032
3.184615384615385,12.782206297503352
3.2043956043956046,12.76526077200874
3.2241758241758243,12.746977480842297
3.243956043956044,12.727425006310474
3.2637362637362637,12.706676877176955
3.2835164835164834,12.68481136838233
3.3032967032967036,12.661911282824304
3.3230769230769233,12.638063714852228
3.342857142857143,12.61335979517172
3.3626373626373627,12.58789441691127
3.3824175824175824,12.561765942675654
3.4021978021978025,12.535075892500615
3.4219780219780223,12.507928612731991
3.441758241758242,12.480430925978636
3.4615384615384617,12.452691762435592
3.481318681318681,12.424821773039065
3.501098901098901,12.396932925099536
3.520879120879121,12.369138081262273
3.5406593406593405,12.341550562864008
3.5604395604395602,12.314283698989227
3.58021978021978,12.287450362776141
3.5999999999999996,12.26116249677847
3.61978021978022,12.235530629449784
3.6395604395604395,12.210663385078682
3.659340659340659,12.18666698975956
3.679120879120879,12.163644776229622
3.6989010989010986,12.141696690632283
3.718681318681319,12.120918804472705
3.7384615384615385,12.101402835207779
3.758241758241758,12.083235679052082
3.7780219780219784,12.066498959678572
3.7978021978021976,12.051268596541846
3.8175824175824173,12.037614396546601
3.8373626373626375,12.025599672723422
3.8571428571428568,12.015280893452319
3.876923076923077,12.00670736559325
3.896703296703296,11.99992095464093
3.916483516483517,11.9949558447214
3.936263736263736,11.99183834089394
3.956043956043956,11.99058671581952
3.9758241758241755,11.991211102412842
3.9956043956043956,11.993713433618089
4.015384615384615,11.998087429947914
4.035164835164835,12.004318634911417
4.054945054945055,12.012384497940655
4.0747252747252745,12.022254503917429
4.094505494505494,12.033890347913403
4.114285714285715,12.047246153296467
4.134065934065934,12.062268730934429
4.153846153846154,12.078897876850379
4.173626373626373,12.097066705359355
4.193406593406594,12.116702014447407
4.213186813186813,12.137724679945162
4.232967032967033,12.160050074898908
4.252747252747253,12.183588510454193
4.2725274725274724,12.208245694535796
4.292307692307692,12.233923204632706
4.312087912087913,12.260518971071432
4.331868131868132,12.287927767280626
4.351648351648352,12.316041703709207
4.371428571428571,12.344750722251693
4.391208791208792,12.373943088252357
4.410989010989011,12.403505877397029
4.43076923076923,12.43332545505219
4.450549450549451,12.463287945868856
4.4703296703296695,12.493279691728358
4.49010989010989,12.523187696364134
4.50989010989011,12.552900055242981
4.52967032967033,12.582306369527853
4.549450549450549,12.61129814316941
4.569230769230769,12.63976916238261
4.589010989010989,12.667615856956
4.608791208791209,12.694737643014781
4.628571428571428,12.721037247012061
4.648351648351649,12.746421010857825
4.6681318681318675,12.770799178210577
4.687912087912088,12.794086162053846
4.707692307692308,12.816200793759679
4.7274725274725276,12.837066553903856
4.747252747252747,12.856611785145596
4.767032967032967,12.874769887517383
4.786813186813187,12.891479496490962
4.806593406593407,12.906684644193778
4.826373626373626,12.920334904148126
4.846153846153847,12.932385519893526
4.8659340659340655,12.942797517833267
4.885714285714286,12.951537804619036
4.905494505494506,12.958579249354601
4.9252747252747255,12.963900750861502
4.945054945054945,12.967487290207334
4.964835164835165,12.969329968651396
4.984615384615385,12.969426031114558
5.004395604395604,12.967778875229763
5.024175824175824,12.964398045978786
5.043956043956045,12.959299215869148
5.0637362637362635,12.952504150554303
5.083516483516483,12.944040659749936
5.103296703296703,12.933942533251278
5.123076923076923,12.922249461810766
5.142857142857143,12.909006942593408
5.162637362637362,12.894266168889324
5.182417582417583,12.87808390373095
5.2021978021978015,12.860522337035606
5.221978021978022,12.841648925875987
5.241758241758242,12.821536217470506
5.2615384615384615,12.800261654484908
5.281318681318681,12.777907362247104
5.301098901098901,12.7545599174996
5.320879120879121,12.730310098350303
5.340659340659341,12.705252615133443
5.36043956043956,12.679485821959426
5.380219780219781,12.653111408816942
5.3999999999999995,12.626234074193132
5.41978021978022,12.598961178299497
5.43956043956044,12.571402377132241
5.4593406593406595,12.543669237757271
5.479120879120879,12.515874835390655
5.498901098901099,12.488133333045532
5.518681318681319,12.460559544734036
5.538461538461538,12.433268483447273
5.558241758241758,12.406374895383841
5.578021978021979,12.379992782156291
5.5978021978021975,12.354234912970421
5.617582417582418,12.329212329040292
5.637362637362637,12.305033842767628
5.6571428571428575,12.281805534471234
5.676923076923077,12.259630249695
5.696703296703297,12.238607100344495
5.716483516483517,12.218830973096223
5.736263736263735,12.20039204868255
5.756043956043956,12.183375335773468
5.775824175824176,12.167860223247162
5.795604395604395,12.15392005465952
5.815384615384615,12.141621728683894
5.835164835164835,12.131025329193681
5.854945054945055,12.1221837884993
5.874725274725275,12.11514258702854
5.894505494505494,12.1099394924557
5.914285714285715,12.106604340944644
5.934065934065933,12.105158862778044
5.953846153846154,12.105616554207035
5.973626373626374,12.10798259688011
5.993406593406593,12.112253825706237
6.013186813186813,12.118418745486732
6.032967032967033,12.126457596122004
6.052747252747253,12.136342465676288
6.072527472527473,12.148037450075448
6.092307692307692,12.161498857730685
6.112087912087913,12.17667545693449
6.131868131868131,12.193508763472206
6.151648351648352,12.211933365540517
6.171428571428572,12.231877282768309
6.191208791208791,12.253262355899032
6.210989010989011,12.276004663519199
6.230769230769231,12.30001496210493
6.2505494505494505,12.325199145605929
6.270329670329671,12.351458720791422
6.29010989010989,12.378691294640698
6.309890109890111,12.406791070167804
6.329670329670329,12.435649347218188
6.349450549450549,12.465155024959937
6.36923076923077,12.495195103005793
6.3890109890109885,12.525655178337958
6.408791208791209,12.556419935459683
6.428571428571428,12.58737362745861
6.4483516483516485,12.618400545932136
6.468131868131868,12.649385477988378
6.487912087912088,12.680214148794011
6.507692307692308,12.710773648387912
6.527472527472527,12.740952841714034
6.547252747252747,12.770642761046206
6.567032967032967,12.799736980178945
6.5868131868131865,12.828131969941492
6.606593406593407,12.855727434755723
6.626373626373626,12.882426630102522
6.6461538461538465,12.908136660885575
6.665934065934065,12.932768760786844
6.685714285714286,12.956238552795092
6.705494505494506,12.9784662911585
6.725274725274725,12.999377085066017
6.745054945054945,13.018901104400575
6.764835164835165,13.036973767931803
6.7846153846153845,13.053535914328569
6.804395604395605,13.068533956372256
6.824175824175824,13.081920018743023
6.8439560439560445,13.093652059733634
6.863736263736263,13.103693977219685
6.883516483516484,13.112015699183807
6.903296703296704,13.118593259053172
6.923076923076923,13.123408856068137
6.942857142857143,13.126450900853545
6.962637362637362,13.127714046315628
6.9824175824175825,13.12719920393641
7.002197802197802,13.124913545485272
7.021978021978022,13.120870490114154
7.041758241758242,13.115089676750236
7.061538461538461,13.10759692164748
7.081318681318681,13.098424160908216
7.101098901098901,13.08760937773729
7.1208791208791204,13.07519651414659
7.140659340659341,13.061235366786391
7.16043956043956,13.045781466543929
7.1802197802197805,13.028895941519579
7.199999999999999,13.010645362967654
7.21978021978022,12.991101573774065
7.23956043956044,12.970341499037534
7.259340659340659,12.948446938326153
7.279120879120879,12.925504339198268
7.298901098901099,12.90160455160714
7.318681318681318,12.876842562854142
7.338461538461539,12.851317212816433
7.358241758241758,12.825130889253673
7.3780219780219785,12.798389203095265
7.397802197802197,12.77120064372602
7.417582417582418,12.743676214424521
7.437362637362638,12.715929048265583
7.457142857142857,12.688074004975533
7.476923076923077,12.660227249426889
7.496703296703297,12.632505812675964
7.516483516483516,12.605027136681358
7.536263736263736,12.577908604091865
7.556043956043957,12.551267054754847
7.575824175824176,12.525218290868628
7.595604395604395,12.499876572979085
7.615384615384615,12.475354109297498
7.635164835164835,12.451760541087786
7.654945054945055,12.42920242712999
7.674725274725275,12.407782730507192
7.694505494505494,12.387600311177508
7.7142857142857135,12.368749427974588
7.734065934065935,12.35131925382207
7.753846153846154,12.33539340804332
7.7736263736263735,12.321049509691452
7.793406593406592,12.308358755810996
7.813186813186814,12.297385528468235
7.832967032967034,12.288187034248823
7.852747252747252,12.280812979719153
7.872527472527472,12.27530528608163
7.892307692307693,12.271697845927088
7.912087912087912,12.27001632460439
7.931868131868132,12.270278008293493
7.951648351648351,12.272491700392385
7.971428571428572,12.276657667319515
7.991208791208791,12.28276763430147
8.010989010989011,12.290804831172387
8.03076923076923,12.300744087668226
8.05054945054945,12.312551977167082
8.07032967032967,12.326187007317197
8.09010989010989,12.341599855517915
8.10989010989011,12.358733646784138
8.129670329670331,12.377524271140526
8.149450549450549,12.397900737363047
8.169230769230769,12.419785559617717
8.189010989010988,12.443095173341721
8.20879120879121,12.467740376571475
8.22857142857143,12.493626792844838
8.248351648351647,12.520655351787926
8.268131868131867,12.548722783537146
8.287912087912087,12.577722123239013
8.307692307692308,12.607543222008587
8.327472527472528,12.63807326090455
8.347252747252746,12.669197264689348
8.367032967032966,12.700798612378458
8.386813186813187,12.732759541837328
8.406593406593407,12.764961645951068
8.426373626373627,12.797286358164508
8.446153846153845,12.829615425463016
8.465934065934066,12.86183136713258
8.485714285714286,12.893817917897044
8.505494505494505,12.925460454277005
8.525274725274725,12.95664640324668
8.545054945054945,12.987265632478879
8.564835164835165,13.01721082166365
8.584615384615384,13.04637781456146
8.604395604395604,13.074665951606738
8.624175824175826,13.101978383012513
8.643956043956043,13.128222362441955
8.663736263736263,13.1533095214081
8.683516483516483,13.17715612464113
8.703296703296704,13.199683306722404
8.723076923076924,13.220817290329498
8.742857142857142,13.240489586466065
8.762637362637362,13.258637177066895
8.782417582417583,13.275202680373324
8.802197802197803,13.290134499467818
8.821978021978023,13.303386954340906
8.84175824175824,13.314920397840023
8.86153846153846,13.32470131581847
8.881318681318682,13.332702411765766
8.901098901098901,13.338902676158462
8.920879120879121,13.343287440723742
8.940659340659339,13.34584841775874
8.96043956043956,13.34658372459591
8.98021978021978,13.345497893250744
9.0,13.342601865233194
9.01978021978022,13.33791297144857
9.03956043956044,13.331454897059063
9.05934065934066,13.323257631123003
9.079120879120879,13.313357400777711
9.098901098901099,13.301796589682416
9.11868131868132,13.28862364039295
9.138461538461538,13.27389294029898
9.158241758241758,13.257664690719816
9.178021978021977,13.240004758726352
9.197802197802199,13.22098451123642
9.217582417582419,13.200680630919374
9.237362637362637,13.179174913444866
9.257142857142856,13.156554045621563
9.276923076923078,13.132909363995724
9.296703296703297,13.108336593517821
9.316483516483517,13.0829355659406
9.336263736263735,13.05680991768351
9.356043956043957,13.030066766989602
9.375824175824176,13.0028163703113
9.395604395604396,12.975171757992944
9.415384615384616,12.947248349470334
9.435164835164835,12.919163548382125
9.454945054945055,12.891036318183417
9.474725274725275,12.86298673906837
9.494505494505495,12.83513554724498
9.514285714285714,12.807603657858726
9.534065934065934,12.780511673130736
9.553846153846154,12.753979377556428
9.573626373626373,12.728125222299013
9.593406593406593,12.703065801202648
9.613186813186815,12.678915321138048
9.632967032967032,12.65578506967211
9.652747252747252,12.633782883315307
9.672527472527472,12.613012619840614
9.692307692307693,12.593573638375856
9.712087912087913,12.575560291142455
9.731868131868131,12.559061430838982
9.75164835164835,12.544159937741558
9.771428571428572,12.530932270609368
9.791208791208792,12.51944804543743
9.810989010989012,12.509769645986983
9.83076923076923,12.501951869844854
9.850549450549451,12.496041613516676
9.87032967032967,12.492077599747045
9.89010989010989,12.4900901498861
9.90989010989011,12.490101003692821
9.92967032967033,12.492123188487474
9.94945054945055,12.496160939048652
9.96923076923077,12.502209669104529
9.989010989010989,12.510255994704574
10.008791208791209,12.52027780918914
10.028571428571428,12.532244408912252
10.048351648351648,12.546116668329276
10.068131868131868,12.56184726254775
10.08791208791209,12.579380934965762
10.107692307692307,12.598654807198105
10.127472527472527,12.61959872812202
10.147252747252747,12.642135658567765
10.167032967032966,12.666182087938347
10.186813186813188,12.691648478868357
10.206593406593406,12.71843973592432
10.226373626373626,12.746455694306663
10.246153846153845,12.775591624531836
10.265934065934067,12.805738749148377
10.285714285714286,12.836784767666881
10.305494505494504,12.868614386053581
10.325274725274724,12.901109847344335
10.345054945054946,12.934151460172338
10.364835164835165,12.967618122262062
10.384615384615385,13.00138783621547
10.404395604395603,13.03533821520006
10.424175824175824,13.069346976432454
10.443956043956044,13.103292420634231
10.463736263736264,13.13705389591024
10.483516483516484,13.170512244762548
10.503296703296703,13.203550233200497
10.523076923076923,13.236052961137416
10.542857142857143,13.267908253475014
10.562637362637362,13.299007031466864
10.582417582417584,13.329243664121135
10.602197802197802,13.358516299550873
10.621978021978022,13.38672717630664
