Frequency (Hz),Amplitude
0.0,0.20651398369442991
0.019801980198019802,0.21908071045167962
0.039603960396039604,0.2530222256814657
0.0594059405940594,0.30109209992265035
0.07920792079207921,0.3574910531433178
0.09900990099009901,0.41869303508310246
0.1188118811881188,0.48268103988815164
0.13861386138613863,0.5482732976941965
0.15841584158415842,0.6147396552001355
0.1782178217821782,0.6816007696698975
0.19801980198019803,0.7485224304050686
0.21782178217821782,0.8152581061718293
0.2376237623762376,0.8816164603131922
0.25742574257425743,0.9474422565040214
0.27722772277227725,1.0126047260803384
0.297029702970297,1.0769902499110036
0.31683168316831684,1.1404976222160017
0.33663366336633666,1.203034908551508
0.3564356435643564,1.2645173162622252
0.37623762376237624,1.3248657245118303
0.39603960396039606,1.3840056539323387
0.4158415841584158,1.4418665353649658
0.43564356435643564,1.4983811858700493
0.45544554455445546,1.5534854307627184
0.4752475247524752,1.607117830050399
0.495049504950495,1.659219480489404
0.5148514851485149,1.7097338730373617
0.5346534653465347,1.7586067912816479
0.5544554455445545,1.8057862404200913
0.5742574257425742,1.8512223991622896
0.594059405940594,1.8948675888974402
0.613861386138614,1.9366762558922073
0.6336633663366337,1.9766049633114187
0.6534653465346534,2.014612390608999
0.6732673267326733,2.050659338396561
0.6930693069306931,2.0847087373159665
0.7128712871287128,2.116725659758962
0.7326732673267327,2.1466773335188196
0.7524752475247525,2.174533156644723
0.7722772277227723,2.200264712913977
0.7920792079207921,2.223845787450228
0.8118811881188118,2.2452523821049377
0.8316831683168316,2.264462730290668
0.8514851485148516,2.2814573110114473
0.8712871287128713,2.296218861882429
0.891089108910891,2.3087323909685984
0.9108910891089109,2.3189851873041865
0.9306930693069307,2.3269668299808313
0.9504950495049505,2.332669195715553
0.9702970297029703,2.336086464828793
0.99009900990099,2.3372151255810336
1.00990099009901,2.336053976831615
1.0297029702970297,2.3326041289987804
1.0495049504950495,2.3268690033139676
1.0693069306930694,2.3188543293769226
1.0891089108910892,2.3085681410332204
1.108910891089109,2.296020770609703
1.1287128712871286,2.2812248415598937
1.1485148514851484,2.264195259588716
1.1683168316831685,2.2449492023458215
1.188118811881188,2.223506107799326
1.2079207920792079,2.1998876614289076
1.227722772277228,2.174117782408512
1.2475247524752475,2.1462226089873964
1.2673267326732673,2.1162304833248204
1.2871287128712872,2.0841719360911313
1.3069306930693068,2.050079671219355
1.3267326732673268,2.013988551281548
1.3465346534653466,1.9759355840773578
1.3663366336633662,1.9359599111680712
1.3861386138613863,1.8941027992764279
1.405940594059406,1.8504076357160277
1.4257425742574257,1.8049199293335616
1.4455445544554455,1.757687318869615
1.4653465346534653,1.708759591208335
1.4851485148514851,1.658188712748374
1.504950495049505,1.6060288781661067
1.5247524752475248,1.5523365822747586
1.5445544554455446,1.4971707226817073
1.5643564356435644,1.4405927437695514
1.5841584158415842,1.3826668365712587
1.6039603960396038,1.3234602149858274
1.6237623762376237,1.2630434974558358
1.6435643564356437,1.2014912362520378
1.6633663366336633,1.138882656426675
1.683168316831683,1.0753026975703248
1.7029702970297032,1.010843501051075
1.7227722772277227,0.9456065663130551
1.7425742574257426,0.8797059353740039
1.7623762376237624,0.8132729983495599
1.782178217821782,0.7464639282523857
1.801980198019802,0.6794715166611296
1.8217821782178218,0.6125446344226864
1.8415841584158414,0.5460214048601105
1.8613861386138615,0.4803880029623771
1.881188118811881,0.41638706642046835
1.900990099009901,0.35522414607876857
1.920792079207921,0.29896248075845694
1.9405940594059405,0.2512135301193055
1.9603960396039604,0.21789580781140014
1.98019801980198,0.2062837519875592
2.0,0.21989223068563657
2.01980198019802,0.25466884627161723
2.0396039603960396,0.30331574300255937
2.0594059405940595,0.3601108377274323
2.0792079207920793,0.42160090436357384
2.099009900990099,0.4858136682574435
2.118811881188119,0.5515925028487972
2.1386138613861387,0.618221423217677
2.1584158415841586,0.6852293089819981
2.1782178217821784,0.7522868898845463
2.1980198019801978,0.8191507004200285
2.217821782178218,0.885631357687342
2.237623762376238,0.9515748950290636
2.257425742574257,1.0168513780983253
2.2772277227722775,1.0813477363436994
2.297029702970297,1.1449631197150836
2.3168316831683167,1.2076058160198737
2.336633663366337,1.2691911603471606
2.3564356435643563,1.329640091312061
2.376237623762376,1.3888781387393423
2.3960396039603964,1.4468347050739248
2.4158415841584158,1.503442550468745
2.4356435643564356,1.558637421447511
2.455445544554456,1.612357782268055
2.4752475247524752,1.6645446207047008
2.495049504950495,1.715141308367657
2.514851485148515,1.7640935013753587
2.5346534653465347,1.8113490711213607
2.5544554455445545,1.856858057621818
2.5742574257425743,1.9005726398738028
2.594059405940594,1.9424471190497037
2.6138613861386135,1.9824379113656445
2.633663366336634,2.0205035482050335
2.6534653465346536,2.05660468162975
2.673267326732673,2.0907040938242227
2.6930693069306932,2.1227667093301883
2.712871287128713,2.152759609167843
2.7326732673267324,2.180652046122732
2.7524752475247527,2.206415460620127
2.7722772277227725,2.2300234967199435
2.792079207920792,2.2514520178535893
2.811881188118812,2.270679121994225
2.8316831683168315,2.2876851560082456
2.8514851485148514,2.3024527289818546
2.8712871287128716,2.314966724353963
2.891089108910891,2.3252143107181893
2.910891089108911,2.3331849511827865
2.9306930693069306,2.338870411199961
2.9504950495049505,2.3422647647955417
2.9702970297029703,2.3433643991473696
2.99009900990099,2.342168017476516
3.00990099009901,2.3386766402301413
3.0297029702970297,2.3328936045488713
3.0495049504950495,2.324824562025471
3.0693069306930694,2.314477474775686
3.089108910891089,2.3018626098568853
3.108910891089109,2.2869925320859927
3.128712871287129,2.2698820953256873
3.148514851485148,2.2505484323277125
3.1683168316831685,2.229010943244633
3.1881188118811883,2.205291282948303
3.2079207920792077,2.179413347324786
3.227722772277228,2.1514032587536827
3.2475247524752473,2.1212893510264643
3.267326732673267,2.089102154015698
3.2871287128712874,2.054874378478622
3.3069306930693068,2.0186409014680633
3.3267326732673266,1.9804387529376408
3.346534653465347,1.9403071042734192
3.366336633663366,1.8982872596716063
3.386138613861386,1.8544226515257092
3.4059405940594063,1.808758841306154
3.4257425742574257,1.7613435278389915
3.4455445544554455,1.712226565455976
3.4653465346534653,1.6614599952525622
3.485148514851485,1.6090980937326649
3.504950495049505,1.5551974445571486
3.5247524752475248,1.4998170411209522
3.5445544554455446,1.4430184305223754
3.564356435643564,1.3848659135570398
3.5841584158415842,1.3254268212863967
3.603960396039604,1.2647718974735598
3.6237623762376234,1.202975829319083
3.6435643564356437,1.1401179890456452
3.6633663366336635,1.076283480304346
3.683168316831683,1.0115646335501767
3.702970297029703,0.946063176590542
3.722772277227723,0.8798934442630466
3.7425742574257423,0.8131872291489132
3.762376237623762,0.7461012992291391
3.7821782178217824,0.6788293896503804
3.801980198019802,0.6116219672227455
3.8217821782178216,0.5448200174350634
3.841584158415842,0.478915135622878
3.8613861386138613,0.41466076905125465
3.881188118811881,0.35328504662667076
3.9009900990099013,0.29689967387706917
3.9207920792079207,0.24921664019197395
3.9405940594059405,0.2163217370971293
3.96039603960396,0.20560107045046272
3.98019801980198,0.2203641988567454
4.0,0.2562020544258537
4.01980198019802,0.3056880809661063
4.03960396039604,0.3631407782710558
4.0594059405940595,0.42516976889417823
4.079207920792079,0.48984684786766797
4.099009900990099,0.5560420973296895
4.118811881188119,0.6230553974788638
4.138613861386139,0.690425205697539
4.158415841584159,0.7578281796505605
4.178217821782178,0.8250246103493223
4.198019801980198,0.8918275386721608
4.217821782178218,0.9580845774280367
4.237623762376238,1.0236668206282133
4.257425742574258,1.088461856411111
4.2772277227722775,1.1523692393174427
4.297029702970297,1.2152974832672303
4.316831683168317,1.2771620217123523
4.336633663366336,1.3378837987026246
4.356435643564357,1.3973882809877738
4.376237623762377,1.455604756895401
4.3960396039603955,1.512465834150166
4.415841584158416,1.5679070779823154
4.435643564356436,1.6218667496192598
4.455445544554455,1.6742856175362633
4.475247524752476,1.725106822038283
4.4950495049504955,1.7742757793069353
4.514851485148514,1.821740114880358
4.534653465346535,1.8674496192145529
4.554455445544555,1.9113562198749512
4.574257425742574,1.9534139662706922
4.594059405940594,1.9935790238343671
4.613861386138614,2.031809675276961
4.633663366336633,2.068066327087453
4.653465346534653,2.102311519850353
4.673267326732674,2.134509941260591
4.693069306930693,2.164628440948127
4.712871287128713,2.1926360464046946
4.732673267326733,2.218503979444401
4.752475247524752,2.242205672739384
4.772277227722772,2.263716786058009
4.792079207920793,2.2830152219019797
4.811881188118812,2.3000811402942176
4.8316831683168315,2.3148969725141817
4.851485148514852,2.327447433614459
4.871287128712871,2.3377195335830545
4.891089108910891,2.345702587041714
4.910891089108912,2.3513882213927775
4.930693069306931,2.3547703833462856
4.9504950495049505,2.355845343776131
4.97029702970297,2.3546117008698255
4.99009900990099,2.351070381550579
5.00990099009901,2.3452246411647573
5.02970297029703,2.337080061441074
5.0495049504950495,2.3266445467421346
5.069306930693069,2.3139283186434825
5.089108910891089,2.298943908890869
5.108910891089109,2.2817061508040846
5.128712871287129,2.2622321692150194
5.148514851485149,2.240541369050328
5.1683168316831685,2.216655422695365
5.188118811881188,2.190598256307639
5.207920792079208,2.1623960352857194
5.227722772277227,2.1320771491459394
5.247524752475248,2.099672196116015
5.267326732673268,2.0652139678257995
5.2871287128712865,2.0287374345643814
5.306930693069307,1.9902797316858007
5.326732673267327,1.949880147890015
5.346534653465346,1.9075801162922392
5.366336633663367,1.8634232094359622
5.3861386138613865,1.8174551397232568
5.405940594059405,1.769723767157456
5.425742574257426,1.7202791168568254
5.445544554455446,1.6691734095594595
5.465346534653465,1.6164611093789327
5.485148514851486,1.5621989945054853
5.504950495049505,1.5064462585525769
5.524752475247524,1.449264653085676
5.544554455445545,1.3907186859406906
5.564356435643565,1.330875895864348
5.584158415841584,1.269807232773246
5.603960396039604,1.2075875861155243
5.623762376237624,1.14429652403629
5.643564356435643,1.0800193376765643
5.663366336633663,1.0148485355252366
5.683168316831684,0.9488860156409833
5.702970297029703,0.8822462830402312
5.7227722772277225,0.8150613211142111
5.742574257425743,0.7474881577099118
5.762376237623762,0.679720965005406
5.782178217821782,0.6120110634010274
5.801980198019803,0.5447012456426423
5.821782178217822,0.47828710521698165
5.841584158415841,0.4135312231488236
5.861386138613861,0.3516832003368047
5.881188118811881,0.2949060290078156
5.900990099009901,0.24702979947134526
5.920792079207921,0.2143624731268372
5.9405940594059405,0.20449219342439584
5.96039603960396,0.22055108030868648
5.98019801980198,0.2576953226300527
6.0,0.30829307684135104
6.01980198019802,0.3666719631875168
6.03960396039604,0.4294971437168148
6.0594059405940595,0.49488470357920405
6.079207920792079,0.5617331999632452
6.099009900990099,0.6293600649681753
6.118811881188119,0.697314626661968
6.138613861386139,0.7652803912782169
6.158415841584159,0.8330220385153099
6.178217821782178,0.9003554543037126
6.198019801980198,0.9671301005193124
6.217821782178218,1.0332182601196698
6.237623762376237,1.0985082617328368
6.257425742574258,1.1629000889205205
6.2772277227722775,1.2263024640739104
6.297029702970296,1.288630870345666
6.316831683168317,1.3498061856253287
6.336633663366337,1.4097537250597454
6.356435643564356,1.4684025619118668
6.376237623762377,1.5256850415532694
6.396039603960396,1.5815364316791363
6.415841584158415,1.6358946700122525
6.435643564356436,1.6887001826759198
6.455445544554456,1.7398957543673215
6.475247524752475,1.7894264368604094
6.495049504950495,1.8372394860887615
6.514851485148515,1.8832843206618926
6.534653465346534,1.9275124965138628
6.554455445544554,1.9698776937078224
6.574257425742575,2.0103357123823984
6.594059405940594,2.048844475532503
6.6138613861386135,2.08536403684156
6.633663366336634,2.1198565921753385
6.653465346534653,2.1522864936447585
6.673267326732673,2.1826202653722784
6.693069306930694,2.210826620271226
6.712871287128713,2.236876477283358
6.732673267326732,2.2607429786264315
6.752475247524753,2.282401506687597
6.772277227722772,2.3018297002657166
6.792079207920792,2.319007469919578
6.811881188118813,2.3339170122229276
6.8316831683168315,2.346542822763349
6.851485148514851,2.3568717077519987
6.871287128712871,2.36489279413649
6.891089108910891,2.3705975381308715
6.910891089108911,2.3739797320955693
6.930693069306931,2.375035509716809
6.9504950495049505,2.373763349450463
6.97029702970297,2.3701640762093463
6.99009900990099,2.3642408612868193
7.00990099009901,2.3559992205229
7.02970297029703,2.3454470107330008
7.0495049504950495,2.3325944244335637
7.069306930693069,2.317453982914658
7.089108910891089,2.3000405277264107
7.108910891089109,2.280371210665606
7.128712871287128,2.2584654823709878
7.148514851485149,2.234345079661805
7.1683168316831685,2.2080340117851804
7.188118811881187,2.1795585457751914
7.207920792079208,2.1489471911721276
7.227722772277228,2.116230684406658
7.247524752475247,2.081441973223523
7.267326732673268,2.044616201607376
7.287128712871287,2.0057906957849476
7.306930693069306,1.9650049520202861
7.326732673267327,1.9223006271040297
7.346534653465347,1.8777215326770909
7.366336633663366,1.8313136348438839
7.3861386138613865,1.7831250609470743
7.405940594059406,1.7332061159340122
7.425742574257425,1.6816093114990236
7.445544554455446,1.628389412216422
7.465346534653466,1.5736035043025391
7.485148514851485,1.517311094636012
7.504950495049505,1.4595742504850666
7.524752475247524,1.4004577944396335
7.544554455445544,1.3400295749472757
7.564356435643565,1.2783608415912566
7.584158415841584,1.2155267674178405
7.603960396039604,1.1516071808400337
7.623762376237624,1.0866876013349553
7.643564356435643,1.020860723942912
7.663366336633663,0.9542285809973813
7.683168316831684,0.8869057502559172
7.702970297029703,0.8190242231268017
7.7227722772277225,0.7507409853916938
7.742574257425743,0.6822501778206074
7.762376237623762,0.6138032754855364
7.782178217821782,0.5457438725095224
7.801980198019803,0.47857019442426585
7.821782178217822,0.4130523564474017
7.841584158415841,0.3504605010729524
7.861386138613862,0.293012397552941
7.881188118811881,0.24467655575862315
7.900990099009901,0.21204627556766684
7.92079207920792,0.2030112765774854
7.9405940594059405,0.22054203155292662
7.96039603960396,0.25926329614601235
7.980198019801979,0.3112615607545426
8.0,0.3708477805737636
8.01980198019802,0.4347383234027517
8.03960396039604,0.5010947672837676
8.05940594059406,0.568846119910611
8.07920792079208,0.6373290185505744
8.099009900990099,0.7061048614104581
8.118811881188119,0.7748648271922061
8.138613861386139,0.8433785313717919
8.158415841584159,0.9114650546602812
8.178217821782178,0.9789759178238538
8.198019801980198,1.0457847029537675
8.217821782178218,1.111780517807132
8.237623762376238,1.1768637617757345
8.257425742574258,1.240943314702044
8.277227722772277,1.30393463067043
8.297029702970297,1.3657584222557277
8.316831683168317,1.4263397389228523
8.336633663366337,1.4856073139766968
8.356435643564357,1.5434930978676034
8.376237623762377,1.5999319229458404
8.396039603960396,1.654861262290343
8.415841584158416,1.7082210567278682
8.435643564356436,1.7599535918287794
8.455445544554456,1.8100034118732267
8.475247524752476,1.8583172613717944
8.495049504950495,1.9048440472370471
8.514851485148515,1.9495348164833692
8.534653465346535,1.9923427456114122
8.554455445544555,2.0332231387627253
8.574257425742575,2.072133432412447
8.594059405940595,2.109033204874723
8.613861386138613,2.143884189275072
8.633663366336634,2.176650288931473
8.653465346534654,2.2072975943054383
8.673267326732672,2.235794400853135
8.693069306930694,2.2621112272385324
8.712871287128714,2.2862208334730623
8.732673267326732,2.3080982386280695
8.752475247524753,2.327720737831166
8.772277227722773,2.345067918309965
8.792079207920791,2.3601216742892555
8.811881188118813,2.3728662205826403
8.831683168316832,2.383288104748848
8.85148514851485,2.391376217707398
8.871287128712872,2.3971218027295453
8.891089108910892,2.400518462738534
8.91089108910891,2.4015621658698407
8.930693069306932,2.4002512492567125
8.950495049504951,2.39658642102046
8.97029702970297,2.3905707604580897
8.990099009900991,2.382209716433356
9.00990099009901,2.3715111039905072
9.029702970297029,2.3584850992242816
9.04950495049505,2.3431442324548333
9.06930693069307,2.325503379772998
9.089108910891088,2.305579753040274
9.10891089108911,2.283392888449716
9.12871287128713,2.258964633779394
9.148514851485148,2.2323191345005187
9.16831683168317,2.2034828189389364
9.188118811881187,2.17248438273345
9.207920792079207,2.1393547728893965
9.227722772277229,2.10412717179474
9.247524752475247,2.0668369816520937
9.267326732673267,2.027521809889569
9.287128712871288,1.986221456253484
9.306930693069306,1.942977902466681
9.326732673267326,1.8978353055715231
9.346534653465348,1.8508399963861863
9.366336633663366,1.8020404849127136
9.386138613861386,1.751487475084725
9.405940594059407,1.699233891985587
9.425742574257425,1.6453349256833985
9.445544554455445,1.589848097233794
9.465346534653467,1.532833354367404
9.485148514851485,1.4743532071657053
9.504950495049505,1.4144729180362658
9.524752475247526,1.353260766145204
9.544554455445544,1.2907884151365188
9.564356435643564,1.2271314260549573
9.584158415841586,1.1623699775198642
9.603960396039604,1.0965898868112063
9.623762376237623,1.0298840763144763
9.643564356435645,0.9623547134069054
9.663366336633663,0.894116393409446
9.683168316831683,0.8253009820491343
9.702970297029704,0.7560651786450225
9.722772277227723,0.6866026918949932
9.742574257425742,0.6171645323279588
9.762376237623764,0.5480941820917812
9.782178217821782,0.47989123758757685
9.801980198019802,0.41333186943722156
9.821782178217823,0.34970602114592264
9.841584158415841,0.2912903577402876
9.861386138613861,0.24221500196712245
9.881188118811881,0.20943162253320335
9.900990099009901,0.2012434638920925
9.92079207920792,0.22046162550614534
9.94059405940594,0.261060889270075
9.96039603960396,0.31476994620674875
9.98019801980198,0.3758632515270772
10.0,0.44110691943062785
10.01980198019802,0.5087100398726019
10.03960396039604,0.5776341200959954
10.05940594059406,0.6472365231598828
10.07920792079208,0.717091751456567
10.099009900990099,0.7868993300376415
10.118811881188119,0.8564342315535528
10.138613861386139,0.9255189777243381
10.158415841584159,0.994007272314944
10.178217821782178,1.0617740346597766
10.198019801980198,1.1287091285209025
10.217821782178218,1.1947133019654426
10.237623762376238,1.2596954932398075
10.257425742574258,1.3235710051280938
10.277227722772277,1.3862602458270217
10.297029702970297,1.4476878479381503
10.316831683168317,1.5077820450636699
10.336633663366337,1.5664742271495715
10.356435643564357,1.6236986219013156
10.376237623762377,1.6793920664153743
10.396039603960396,1.733493844191834
10.415841584158416,1.785945570050542
10.435643564356436,1.8366911104678825
10.455445544554454,1.8856765302956577
10.475247524752476,1.9328500592333664
10.495049504950495,1.9781620731340028
10.514851485148514,2.021565086450743
10.534653465346535,2.063013753023419
10.554455445544555,2.10246487305888
10.574257425742573,2.139877404645464
10.594059405940595,2.175212478506661
10.613861386138614,2.2084334149749054
10.633663366336632,2.2395057423772027
10.653465346534654,2.2683972161870383
10.673267326732674,2.295077838422979
