Frequency (Hz),Amplitude
0.0,3.523837724435028
0.019823788546255508,3.523057340399619
0.039647577092511016,3.520718173280536
0.059471365638766524,3.5168261795304976
0.07929515418502203,3.5113912915266456
0.09911894273127755,3.5044274249521163
0.11894273127753305,3.4959524890223896
0.13876651982378857,3.485988399441882
0.15859030837004406,3.474561093932941
0.17841409691629956,3.461700550128737
0.1982378854625551,3.447440805560992
0.2180616740088106,3.431819979400379
0.2378854625550661,3.4148802955207787
0.25770925110132165,3.3966681063541544
0.27753303964757714,3.37723391687963
0.29735682819383263,3.356632407944626
0.31718061674008813,3.33492245794478
0.3370044052863437,3.3121671616914448
0.3568281938325991,3.288433845065404
0.37665198237885467,3.263794073794476
0.3964757709251102,3.2383236543954643
0.41629955947136565,3.212102624989362
0.4361233480176212,3.185215233331856
0.4559471365638767,3.1577498990019324
0.4757709251101322,3.1297991562641574
0.49559471365638774,3.1014595736731416
0.5154185022026433,3.0728316460334724
0.5352422907488987,3.0440196538813415
0.5550660792951543,3.015131485238324
0.5748898678414097,2.9862784140305343
0.5947136563876653,2.9575748293045763
0.6145374449339208,2.929137909247646
0.6343612334801763,2.9010872340814258
0.6541850220264318,2.873544332204844
0.6740088105726874,2.8466321545655737
0.6938325991189428,2.8204744732037894
0.7136563876651982,2.7951952012850203
0.7334801762114539,2.770917633764117
0.7533039647577093,2.7477636101174636
0.7731277533039648,2.7258526033392525
0.7929515418502204,2.705300742573327
0.8127753303964759,2.6862197802529053
0.8325991189427313,2.6687160183081224
0.8524229074889869,2.652889211682559
0.8722466960352424,2.638831470840579
0.8920704845814978,2.626626187880355
0.9118942731277534,2.616347013013855
0.931718061674009,2.6080569092715016
0.9515418502202644,2.6018073131183703
0.9713656387665199,2.5976374270894658
0.9911894273127755,2.5955736675257666
1.0110132158590308,2.5956292861021013
1.0308370044052866,2.5978041782884116
1.0506607929515421,2.6020848854938645
1.0704845814977975,2.6084447908103363
1.090308370044053,2.61684450144469
1.1101321585903086,2.627232404553712
1.1299559471365639,2.6395453776714684
1.1497797356828194,2.65370963056043
1.1696035242290752,2.6696416523275226
1.1894273127753305,2.6872492361026112
1.209251101321586,2.7064325534391807
1.2290748898678416,2.727085251722253
1.248898678414097,2.749095550036682
1.2687224669603525,2.772347311897108
1.288546255506608,2.7967210766893844
1.3083700440528636,2.822095035356793
1.3281938325991192,2.8483459395472033
1.3480176211453747,2.875349936931648
1.36784140969163,2.902983328569457
1.3876651982378856,2.9311232469419113
1.4074889867841411,2.959648255559583
1.4273127753303965,2.98843887286148
1.4471365638766522,3.0173780244867117
1.4669603524229078,3.046351428953187
1.4867841409691631,3.07524792237528
1.5066079295154187,3.1039597281503903
1.5264317180616742,3.1323826776024424
1.5462555066079295,3.1604163874424005
1.5660792951541853,3.187964399641395
1.5859030837004409,3.214934288953657
1.6057268722466962,3.241237742909774
1.6255506607929517,3.2667906186537308
1.6453744493392073,3.291512980542249
1.6651982378854626,3.3153291219783885
1.6850220264317182,3.3381675745254493
1.7048458149779737,3.359961106948214
1.7246696035242293,3.3806467164635374
1.7444933920704848,3.400165614150752
1.7643171806167404,3.4184632061772824
1.7841409691629957,3.4354890722334472
1.8039647577092512,3.451196942342292
1.8237885462555068,3.4655446730121637
1.8436123348017623,3.4784942235295966
1.863436123348018,3.4900116330449618
1.8832599118942732,3.500066998980059
1.9030837004405288,3.5086344571835135
1.9229074889867843,3.5156921641723264
1.9427312775330399,3.521222281726159
1.9625550660792954,3.5252109640394296
1.982378854625551,3.52764834758609
2.002202643171806,3.528528543808559
2.0220264317180616,3.52784963470535
2.041850220264317,3.525613671358658
2.061674008810573,3.521826675413018
2.0814977973568287,3.5164986434857783
2.1013215859030843,3.509643554459882
2.1211453744493394,3.501279379575983
2.140969162995595,3.491428095203435
2.1607929515418505,3.48011569812618
2.180616740088106,3.467372223128295
2.2004405286343616,3.4532317626024076
2.220264317180617,3.437732487831077
2.2400881057268722,3.420916671503317
2.2599118942731278,3.4028307109242224
2.2797356828193833,3.3835251512513898
2.299559471365639,3.3630547079463797
2.319383259911895,3.341478287458142
2.3392070484581504,3.318859004957332
2.3590308370044055,3.295264197711869
2.378854625550661,3.2707654324333224
2.3986784140969166,3.2454385046291274
2.418502202643172,3.219363427666648
2.4383259911894277,3.1926244088916196
2.4581497797356833,3.1653098097497927
2.4779735682819384,3.137512086439029
2.497797356828194,3.109327707180214
2.5176211453744495,3.0808570417495287
2.537444933920705,3.052204218478791
2.5572687224669606,3.0234769435279856
2.577092511013216,2.9947862768913276
2.5969162995594717,2.966246359353048
2.6167400881057272,2.9379740845010485
2.6365638766519828,2.9100887099869173
2.6563876651982383,2.882711402541181
2.676211453744494,2.8559647118716107
2.6960352422907494,2.829971969544533
2.715859030837005,2.804856610326127
2.73568281938326,2.7807414152788623
2.7555066079295156,2.757747678188119
2.775330396475771,2.7359942996227717
2.7951541850220267,2.7155968160661024
2.8149779735682823,2.6966663749972453
2.834801762114538,2.6793086704197746
2.854625550660793,2.663622856933963
2.874449339207049,2.6497004638026636
2.8942731277533045,2.637624333306082
2.91409691629956,2.6274676097470704
2.9339207048458156,2.6192928065014267
2.953744493392071,2.6131509782964586
2.9735682819383262,2.6090810243126445
2.993392070484582,2.607109144703026
3.0132158590308373,2.607248468796203
3.033039647577093,2.6094988677943802
3.0528634361233484,2.6138469585071924
3.072687224669604,2.62026629796785
3.092511013215859,2.6287177620940065
3.1123348017621146,2.6391500953165985
3.1321585903083706,2.651500612692627
3.151982378854626,2.665696031749768
3.1718061674008817,2.681653408376344
3.1916299559471373,2.6992811495490603
3.2114537444933924,2.718480075541018
3.231277533039648,2.7391445053385506
3.2511013215859035,2.7611633411019834
3.270925110132159,2.7844211303784334
3.2907488986784146,2.8087990881420826
3.31057268722467,2.834176064339517
3.3303964757709252,2.8604294462266426
3.350220264317181,2.887435988211976
3.3700440528634363,2.915072565033721
3.389867841409692,2.9432168468041913
3.4096916299559474,2.971747896710594
3.4295154185022034,3.0005466939580407
3.4493392070484585,3.0294965858955374
3.469162995594714,3.0584836742212076
3.4889867841409696,3.0873971407655914
3.508810572687225,3.1161295186612716
3.5286343612334807,3.1445769147774447
3.5484581497797363,3.17263918918422
3.5682819383259914,3.2002200971610386
3.588105726872247,3.2272273989192897
3.6079295154185025,3.253572941804668
3.627753303964758,3.279172719309798
3.6475770925110136,3.303946910782542
3.667400881057269,3.3278199052773565
3.6872246696035247,3.3507203125785576
3.7070484581497802,3.372580964031446
3.726872246696036,3.3933389054562624
3.7466960352422913,3.412935384093242
3.7665198237885464,3.431315831233491
3.7863436123348024,3.4484298419322865
3.8061674008810575,3.464231152973627
3.8259911894273135,3.478677620058255
3.8458149779735686,3.4917311950175236
3.8656387665198246,3.503357903710347
3.8854625550660797,3.513527825137198
3.905286343612335,3.522215072201101
3.925110132158591,3.5293977744581793
3.9449339207048464,3.5350580631267374
3.964757709251102,3.5391820585627864
3.9845814977973575,3.541759860357794
4.004405286343612,3.5427855401708737
4.024229074889869,3.5422571373689706
4.044052863436123,3.5401766575150693
4.06387665198238,3.5365500737123865
4.083700440528634,3.531387330781882
4.103524229074891,3.524702352218474
4.123348017621146,3.51651304983699
4.143171806167401,3.5068413359804054
4.162995594713657,3.4957131381184117
4.182819383259912,3.4831584156119058
4.2026431718061685,3.469211178356904
4.222466960352423,3.4539095069475043
4.242290748898679,3.437295573908917
4.262114537444934,3.419415665447721
4.28193832599119,3.4003202030420034
4.301762114537445,3.3800637640494773
4.321585903083701,3.3587051003419033
4.3414096916299565,3.33630715377817
4.361233480176212,3.312937067102956
4.381057268722468,3.288666188601737
4.400881057268723,3.263570068553806
4.420704845814979,3.2377284452037913
4.440528634361234,3.2112252176181864
4.46035242290749,3.1841484024107025
4.4801762114537445,3.1565900709135244
4.500000000000001,3.128646262948837
4.5198237885462555,3.100416872928074
4.539647577092512,3.0720055035927434
4.559471365638767,3.0435192823312134
4.579295154185023,3.0150686346889835
4.599118942731278,2.9867670094697174
4.618942731277533,2.9587305497421514
4.63876651982379,2.9310777041694704
4.658590308370044,2.9039287734153105
4.678414096916301,2.8774053870079155
4.6982378854625555,2.851629907012927
4.718061674008811,2.8267247562240705
4.737885462555067,2.802811670362616
4.757709251101322,2.7800108759974593
4.777533039647578,2.7584401985450873
4.797356828193833,2.73821410773484
4.817180616740089,2.7194427112420616
4.837004405286344,2.702230710662637
4.856828193832599,2.686676337449182
4.876651982378855,2.672870289629809
4.896475770925111,2.660894692838381
4.9162995594713665,2.6508221111432575
4.936123348017622,2.642714634130336
4.955947136563877,2.6366230664770125
4.975770925110133,2.6325862447218613
4.995594713656388,2.6306305030587906
5.015418502202644,2.630769305841834
5.035242290748899,2.633003059269951
5.055066079295155,2.637319108720982
5.07488986784141,2.643691921790638
5.094713656387666,2.652083450676866
5.114537444933921,2.6624436615419955
5.134361233480177,2.674711213256557
5.154185022026432,2.6888142637705483
5.174008810572688,2.704671379464717
5.193832599118943,2.722192521282914
5.213656387665199,2.7412800812096294
5.2334801762114544,2.761829943607243
5.25330396475771,2.7837325478699624
5.2731277533039655,2.806873931546283
5.292951541850221,2.831136736272091
5.312775330396477,2.8564011622952745
5.332599118942731,2.882545860839835
5.352422907488988,2.909448756871738
5.372246696035242,2.9369877978554317
5.392070484581499,2.9650416267391275
5.4118942731277535,2.993490179631015
5.43171806167401,3.022215210414364
5.451541850220265,3.0511007459127537
5.47136563876652,3.0800334761907315
5.491189427312777,3.108903085207166
5.511013215859031,3.1376025273807273
5.530837004405288,3.166028255733304
5.550660792951542,3.194080407197996
5.570484581497798,3.2216629504621874
5.5903083700440535,3.248683801402017
5.610132158590309,3.2750549107877887
5.6299559471365646,3.300692328527852
5.64977973568282,3.3255162482936234
5.669603524229076,3.349451035946896
5.689427312775331,3.372425244784504
5.709251101321586,3.3943716202334886
5.729074889867842,3.4152270962763986
5.748898678414098,3.434932785565124
5.768722466960353,3.4534339648926764
5.788546255506609,3.4706800574356675
5.808370044052864,3.486624612954882
5.82819383259912,3.50122528694429
5.848017621145375,3.5144438195491894
5.867841409691631,3.5262460149278554
5.887665198237886,3.5366017216068903
5.907488986784142,3.545484814274681
5.927312775330397,3.55287317736841
5.9471365638766525,3.558748690734573
5.966960352422908,3.563097217579993
5.986784140969164,3.5659085948763125
6.00660792951542,3.5671766263351956
6.026431718061675,3.5668990780313043
6.04625550660793,3.565077676714216
6.066079295154186,3.5617181108168277
6.085903083700441,3.556830034135487
6.105726872246697,3.550427072123072
6.125550660792952,3.542526830700909
6.145374449339208,3.533150907455113
6.1651982378854635,3.522324905037352
6.185022026431718,3.5100784465368444
6.204845814977975,3.4964451925272786
6.224669603524229,3.4814628594184174
6.244493392070486,3.4651732386541996
6.264317180616741,3.447622216195
6.284140969162996,3.4288597916001455
6.303964757709252,3.408940095883878
6.323788546255507,3.387921407152097
6.3436123348017635,3.3658661628362765
6.363436123348018,3.342840967122335
6.3832599118942746,3.318916591924081
6.403083700440529,3.2941679694733628
6.422907488986785,3.268674174290107
6.44273127753304,3.2425183919580958
6.462555066079296,3.215787871768388
6.482378854625551,3.1885738599075157
6.502202643171807,3.1609715094699182
6.5220264317180625,3.1330797631755396
6.541850220264318,3.1050012042899264
6.561674008810574,3.076841870896726
6.581497797356829,3.048711028387875
6.601321585903085,3.0207208948470257
6.62114537444934,2.9929863139456616
6.640969162995596,2.9656243700923626
6.6607929515418505,2.9387539409211536
6.680616740088107,2.9124951828251207
6.700440528634362,2.886968946183478
6.720264317180618,2.862296118237374
6.740088105726873,2.8385968932717756
6.759911894273129,2.8159899718701324
6.779735682819384,2.794591693513108
6.799559471365639,2.774515109645097
6.819383259911895,2.75586900745165
6.83920704845815,2.738756897848476
6.859030837004407,2.7232759844147756
6.8788546255506615,2.709516133005701
6.898678414096917,2.697558864323221
6.918502202643173,2.687476393576433
6.938325991189428,2.6793307422998316
6.958149779735684,2.673172947236597
6.977973568281939,2.66904238981813
6.997797356828195,2.6669662671442236
7.01762114537445,2.666959221558498
7.037444933920705,2.669023141089422
7.0572687224669615,2.6731471374494062
7.077092511013216,2.679307702289167
7.096916299559473,2.6874690363662235
7.116740088105728,2.697583540585269
7.136563876651983,2.709592452850872
7.156387665198239,2.7234266106183136
7.176211453744494,2.739007316129432
7.19603524229075,2.7562472796618187
7.215859030837005,2.7750516156937817
7.235682819383261,2.795318867588457
7.255506607929516,2.816942038061146
7.275330396475772,2.8398096050976576
7.295154185022027,2.8638065059038174
7.314977973568283,2.888815074657872
7.334801762114538,2.9147159230978574
7.354625550660794,2.941388756130742
7.374449339207049,2.968713117565196
7.394273127753305,2.996569063651614
7.4140969162995605,3.0248377643092415
7.433920704845816,3.05340203370975
7.453744493392072,3.082146793279197
7.473568281938327,3.1109594711992234
7.493392070484583,3.1397303431778543
7.513215859030838,3.1683528196633888
7.533039647577093,3.1967236848447285
7.552863436123348,3.2247432927620707
7.572687224669605,3.2523157256921924
7.59251101321586,3.2793489197077
7.612334801762115,3.3057547619770995
7.6321585903083715,3.331449163996807
7.651982378854627,3.3563521145519384
7.671806167400882,3.380387715805809
7.691629955947137,3.403484205530933
7.711453744493394,3.4255739681269546
7.731277533039649,3.446593536728267
7.751101321585904,3.466483588389609
7.7709251101321595,3.4851889340538635
7.790748898678416,3.5026585047520955
7.81057268722467,3.51884533526082
7.830396475770926,3.5337065462444537
7.850220264317182,3.5472033257391744
7.870044052863436,3.5593009106862703
7.889867841409693,3.569968569095931
7.909691629955948,3.57917958331386
7.929515418502204,3.5869112347705228
7.9493392070484585,3.5931447905146574
7.969162995594715,3.5978654917660413
7.9889867841409705,3.6010625446653077
8.008810572687224,3.6027291133500445
8.02863436123348,3.602862315442968
8.048458149779737,3.601463219999475
8.068281938325994,3.598536847925706
8.088105726872246,3.594092174843274
8.107929515418503,3.5881421363412396
8.12775330396476,3.580703635517967
8.147577092511014,3.5717975526747927
8.167400881057269,3.5614487569756417
8.187224669603525,3.5496861198337397
8.207048458149782,3.5365425297232926
8.226872246696036,3.522054908040286
8.246696035242293,3.5062642255508187
8.266519823788547,3.4892155188632663
8.286343612334802,3.4709579062426448
8.306167400881058,3.4515446019481675
8.325991189427315,3.4310329281153953
8.345814977973568,3.4094843230227174
8.365638766519824,3.386964344373448
8.38546255506608,3.3635426659913006
8.405286343612337,3.3392930660647497
8.42511013215859,3.3142934047871107
8.444933920704846,3.2886255889243707
8.464757709251103,3.262375520505233
8.484581497797357,3.2356330264724993
8.504405286343614,3.20849176577035
8.524229074889869,3.181049109978295
8.544052863436125,3.1534059932560425
8.56387665198238,3.125666727052356
8.583700440528636,3.0979387747810603
8.60352422907489,3.070332481506748
8.623348017621145,3.0429607536478644
8.643171806167402,3.01593868383356
8.662995594713658,2.9893831163870836
8.682819383259913,2.963412149495405
8.702643171806168,2.9381445710063847
8.722466960352424,2.913699226006872
8.74229074889868,2.8901943159060446
8.762114537444935,2.867746630686566
8.78193832599119,2.846470718282955
8.801762114537446,2.8264779976575913
8.821585903083701,2.8078758250000457
8.841409691629957,2.7907665254606275
8.861233480176212,2.7752464057996935
8.881057268722468,2.761404766109787
8.900881057268723,2.7493229311453775
8.92070484581498,2.7390733235665645
8.940528634361234,2.7307186023661694
8.960352422907489,2.7243108897367576
8.980176211453745,2.719891108531786
9.000000000000002,2.717488450240519
9.019823788546258,2.7171199900749037
9.039647577092511,2.7187904614941556
9.059471365638768,2.7224921974886587
9.079295154185024,2.728205240496991
9.099118942731279,2.735897617268943
9.118942731277533,2.745525769654109
9.13876651982379,2.757035127508922
9.158590308370046,2.7703608059423277
9.1784140969163,2.785428406153462
9.198237885462555,2.8021548972591566
9.218061674008812,2.820449555777879
9.237885462555067,2.840214939764003
9.257709251101323,2.8613478758347064
9.27753303964758,2.8837404393224397
9.297356828193834,2.907280910311808
9.317180616740089,2.931854691172475
9.337004405286345,2.9573451741837897
9.356828193832602,2.983634550794147
9.376651982378855,3.010604556832707
9.396475770925111,3.0381371504965995
9.416299559471367,3.0661151221100553
9.436123348017622,3.094422636462749
9.455947136563877,3.1229457099809754
9.475770925110133,3.1515726260809105
9.49559471365639,3.180194292832298
9.515418502202644,3.2087045475596323
9.5352422907489,3.2370004132718684
9.555066079295155,3.2649823118834953
9.57488986784141,3.2925542391115377
9.594713656387666,3.319623905742073
9.614537444933923,3.3461028496894394
9.634361233480178,3.371906522949121
9.654185022026432,3.396954357193605
9.674008810572689,3.4211698113980136
9.693832599118945,3.444480404521708
9.713656387665198,3.466817735924233
9.733480176211454,3.4881174958650005
9.75330396475771,3.508319468131271
9.773127753303967,3.527367526559712
9.792951541850222,3.5452096269654025
9.812775330396477,3.561797795766685
9.832599118942733,3.5770881163956694
9.852422907488988,3.59104071440928
9.872246696035244,3.6036197420637976
9.892070484581499,3.614793362983824
9.911894273127754,3.6245337374436675
9.93171806167401,3.6328170086811418
9.951541850220266,3.639623290580961
9.971365638766521,3.6449366569929875
9.991189427312776,3.6487451328892044
10.011013215859032,3.651040687510024
10.030837004405289,3.6518192296029124
10.050660792951543,3.6510806048144957
10.070484581497798,3.6488285952573327
10.090308370044054,3.6450709212348595
10.11013215859031,3.6398192450700737
10.129955947136565,3.633089176943575
10.14977973568282,3.624900282604296
10.169603524229077,3.6152760927683807
10.189427312775331,3.604244113968362
10.209251101321588,3.591835840552587
10.229074889867842,3.578086767463715
10.248898678414099,3.563036403341723
10.268722466960353,3.546728283400586
10.28854625550661,3.529209981415649
10.308370044052865,3.510533120029517
10.32819383259912,3.490753378436058
10.348017621145376,3.4699304963324247
10.367841409691632,3.448128272837428
10.387665198237887,3.4254145588592944
10.407488986784141,3.4018612411562654
10.427312775330398,3.3775442160706257
10.447136563876654,3.352543350631391
10.466960352422909,3.326942428416144
10.486784140969164,3.300829077243405
10.50660792951542,3.2742946754408964
10.526431718061675,3.247434233111086
10.546255506607931,3.220346244508591
10.566079295154186,3.1931325073701924
10.585903083700442,3.1658979048195843
10.605726872246697,3.1387501453315636
10.625550660792953,3.1117994562138813
10.645374449339208,3.085158226183905
10.665198237885463,3.05894059291888
10.685022026431719,3.033261971980308
10.704845814977975,3.008238524292645
10.724669603524232,2.9839865604260813
10.744493392070485,2.960621881316756
