Time (s),Filtered Signal
0.0,-0.0029700248255539905
0.03337028824833703,0.020243811443820533
0.06674057649667406,0.07537926813553374
0.10011086474501109,0.16852851394410442
0.13348115299334812,0.27128357650963114
0.16685144124168516,0.334916408328487
0.20022172949002218,0.3190014148929311
0.2335920177383592,0.21685919729862632
0.26696230598669624,0.06234782222524417
0.3003325942350333,-0.08582166197950278
0.3337028824833703,-0.17259423401660387
0.3670731707317073,-0.17137541333011244
0.40044345898004435,-0.09207394376732309
0.4338137472283814,0.029803204426144855
0.4671840354767184,0.1541723856157427
0.5005543237250555,0.2541776611834331
0.5339246119733925,0.32146780023260946
0.5672949002217295,0.35877954139858276
0.6006651884700666,0.36772877319977765
0.6340354767184035,0.34177836237487236
0.6674057649667406,0.26967063433817956
0.7007760532150776,0.14672840315726804
0.7341463414634146,-0.014347238626277318
0.7675166297117517,-0.18157744338987894
0.8008869179600887,-0.31356671132396985
0.8342572062084257,-0.3765765228905848
0.8676274944567628,-0.3596391729412189
0.9009977827050998,-0.27942388648019034
0.9343680709534368,-0.17223293122768138
0.9677383592017739,-0.07747144795239412
1.001108647450111,-0.02121552471982478
1.0344789356984478,-0.007908167351269667
1.067849223946785,-0.023391804186631854
1.101219512195122,-0.04632361398628206
1.134589800443459,-0.06091693475668454
1.167960088691796,-0.06398614944682218
1.2013303769401331,-0.06316206270439123
1.23470066518847,-0.06849320783815512
1.268070953436807,-0.08333143401330718
1.3014412416851442,-0.10036638164548617
1.3348115299334813,-0.10513730631354938
1.3681818181818182,-0.08461845017789438
1.4015521064301553,-0.03546554094443837
1.4349223946784924,0.03307034564339341
1.4682926829268292,0.10318652091210183
1.5016629711751663,0.1570241209534586
1.5350332594235034,0.18466411412097006
1.5684035476718403,0.1871999969945726
1.6017738359201774,0.17349536454929892
1.6351441241685145,0.15295221903798434
1.6685144124168514,0.12889737668596218
1.7018847006651885,0.09675047548013524
1.7352549889135256,0.048205865899480324
1.7686252771618625,-0.02108643278941604
1.8019955654101996,-0.10521153765194392
1.8353658536585367,-0.1874168935461526
1.8687361419068735,-0.24644285945321845
1.9021064301552106,-0.2668020270413508
1.9354767184035477,-0.24737921702636329
1.9688470066518848,-0.2031336928455232
2.002217294900222,-0.1581421246028078
2.035587583148559,-0.1329804870404089
2.0689578713968957,-0.1329265296120458
2.102328159645233,-0.14362649377895906
2.13569844789357,-0.1373590683731065
2.1690687361419068,-0.0874942437414744
2.202439024390244,0.015936010266925944
2.235809312638581,0.15784310425458858
2.269179600886918,0.3019734011781439
2.302549889135255,0.40606589010233307
2.335920177383592,0.4412924561748221
2.369290465631929,0.4063700794842183
2.4026607538802662,0.3289469648804743
2.436031042128603,0.25294242542967066
2.46940133037694,0.21750080956418785
2.5027716186252773,0.23761898183923166
2.536141906873614,0.2960302276820994
2.569512195121951,0.3506485033133396
2.6028824833702884,0.35430296920591536
2.6362527716186253,0.27738822295605636
2.6696230598669626,0.12254105614397016
2.7029933481152995,-0.07563823606687237
2.7363636363636363,-0.26542377468293316
2.7697339246119737,-0.3998939751061302
2.8031042128603105,-0.45536495963706863
2.8364745011086474,-0.43809803195883756
2.8698447893569847,-0.3774281240559286
2.9032150776053216,-0.31022657280199956
2.9365853658536585,-0.26511443809675
2.969955654101996,-0.2535446611164621
3.0033259423503327,-0.2701213581273386
3.0366962305986696,-0.29948659126799493
3.070066518847007,-0.3246351982370856
3.1034368070953438,-0.3324566539936845
3.1368070953436806,-0.3152764949635053
3.170177383592018,-0.2698687661062535
3.203547671840355,-0.19626331416032336
3.2369179600886917,-0.0976932385056497
3.270288248337029,0.018585928423684527
3.303658536585366,0.1408504844802908
3.337028824833703,0.25393394875201286
3.37039911308204,0.34193480652431735
3.403769401330377,0.3919184367199494
3.437139689578714,0.39748000392149796
3.470509977827051,0.3610457351357864
3.503880266075388,0.29403062525683243
3.537250554323725,0.21434754497412836
3.5706208425720622,0.1414077170806478
3.603991130820399,0.08975930261482805
3.637361419068736,0.06359353685960087
3.6707317073170733,0.05480743254559893
3.70410199556541,0.04645268964061616
3.737472283813747,0.021145522180690338
3.7708425720620844,-0.028761615604920594
3.8042128603104213,-0.09420623422802289
3.8375831485587586,-0.1500141095863813
3.8709534368070955,-0.1642902365005423
3.9043237250554323,-0.1133702347166262
3.9376940133037697,0.004377617601249719
3.9710643015521065,0.16302030348247037
4.004434589800444,0.31562084545339747
4.037804878048781,0.4110810367509962
4.071175166297118,0.4142844775967066
4.1045454545454545,0.32058838647163723
4.137915742793791,0.15807877565091494
4.171286031042128,-0.023429079143304853
4.204656319290466,-0.1716823049800273
4.238026607538803,-0.2511350611054156
4.27139689578714,-0.2540623989294633
4.304767184035477,-0.1998145660237524
4.3381374722838135,-0.12378794274921931
4.371507760532151,-0.06186425994689131
4.404878048780488,-0.037256154948563755
4.438248337028825,-0.05468458586178465
4.471618625277162,-0.10289062242377751
4.504988913525499,-0.16269880802249118
4.538359201773836,-0.21596067604834293
4.571729490022173,-0.25134443783797544
4.60509977827051,-0.2653905267339208
4.638470066518847,-0.25998014977198874
4.671840354767184,-0.23889494164205
4.705210643015521,-0.20585938710925106
4.738580931263858,-0.16481835154350644
4.771951219512196,-0.12137646645255655
4.8053215077605325,-0.08345124314150436
4.838691796008869,-0.05973217380438487
4.872062084257206,-0.056080381383559794
4.905432372505543,-0.07156262886968318
4.93880266075388,-0.09643629846010071
4.972172949002218,-0.11370522898475838
5.005543237250555,-0.10421492638632901
5.0389135254988915,-0.05351536395427379
5.072283813747228,0.04222874221855385
5.105654101995565,0.1737012080604687
5.139024390243902,0.3203092533161456
5.17239467849224,0.45571462469929874
5.205764966740577,0.5549015591190423
5.239135254988914,0.6003170739509851
5.2725055432372505,0.5853479056990969
5.305875831485587,0.514717267775271
5.339246119733925,0.402552415595975
5.372616407982262,0.26931258811432934
5.405986696230599,0.13838931892708403
5.439356984478936,0.032448397928371196
5.472727272727273,-0.030814497517378255
5.5060975609756095,-0.043387685482902075
5.539467849223947,-0.010857202436624783
5.572838137472284,0.0467740105315891
5.606208425720621,0.0994600980445409
5.639578713968958,0.11682277530941836
5.672949002217295,0.08027932872339477
5.706319290465632,-0.007769686378099098
5.7396895787139695,-0.12303167874686627
5.773059866962306,-0.22887701898489757
5.806430155210643,-0.2934136539933219
5.83980044345898,-0.3065996253191139
5.873170731707317,-0.28859996090495665
5.906541019955654,-0.2837136328239575
5.939911308203992,-0.34070472681333375
5.9732815964523285,-0.48731656120072453
6.006651884700665,-0.7106389076034082
6.040022172949002,-0.9535682133403063
6.073392461197339,-1.1310567067088622
6.106762749445676,-1.1609561484183413
6.140133037694014,-0.9971429036467456
6.173503325942351,-0.6507500654940686
6.2068736141906875,-0.18982164397928775
6.240243902439024,0.2833487823861824
6.273614190687361,0.6684799448462242
6.306984478935698,0.9026190921195194
6.340354767184036,0.9802375332926674
6.373725055432373,0.9500829869370765
6.40709534368071,0.8904065344967782
6.4404656319290465,0.8731901883179634
6.473835920177383,0.932539783869814
6.507206208425721,1.0504553394262868
6.540576496674058,1.1655181603255134
6.573946784922395,1.2000012431547016
6.607317073170732,1.0930495801287479
6.640687361419069,0.8255125125103566
6.674057649667406,0.42664246626620356
6.707427937915743,-0.038215100502801864
6.74079822616408,-0.491251535047801
6.774168514412417,-0.865604337255545
6.807538802660754,-1.1194559368436021
6.840909090909091,-1.2383507549855788
6.874279379157428,-1.2296327432335288
6.9076496674057655,-1.1152964462789217
6.941019955654102,-0.9272841527775919
6.974390243902439,-0.7048671540805928
7.007760532150776,-0.4908303821997407
7.041130820399113,-0.3238278732550044
7.07450110864745,-0.22780469490649202
7.107871396895788,-0.2030706142436474
7.1412416851441245,-0.22467517756076547
7.174611973392461,-0.25109744723990396
7.207982261640798,-0.2411462144924581
7.241352549889135,-0.17213169157509997
7.274722838137472,-0.05061025933340729
7.30809312638581,0.09033054379344747
7.341463414634147,0.2070718848797081
7.3748337028824835,0.2677014262004907
7.40820399113082,0.2695064438359508
7.441574279379157,0.24221062243324226
7.474944567627494,0.23413630400836247
7.508314855875832,0.28730779586253397
7.541685144124169,0.41388926330388653
7.575055432372506,0.5865753435570452
7.6084257206208425,0.7489856188415873
7.641796008869179,0.8418155823482245
7.675166297117517,0.831830418645809
7.708536585365854,0.7286036361047895
7.741906873614191,0.5797770558273647
7.775277161862528,0.44673036198569865
7.808647450110865,0.37298490907699416
7.842017738359202,0.3616447043643542
7.875388026607539,0.37342743584008714
7.908758314855876,0.3460425314515395
7.942128603104213,0.22488911177061646
7.97549889135255,-0.009965410939572364
8.008869179600888,-0.3326868991361457
8.042239467849225,-0.6802320211488692
8.075609756097561,-0.9753864127568953
8.108980044345898,-1.1539118324979576
8.142350332594235,-1.185460646066648
8.175720620842572,-1.081746308805727
8.209090909090909,-0.8904743913468887
8.242461197339246,-0.6778171371797678
8.275831485587583,-0.50516991932617
8.30920177383592,-0.4076013055225177
8.342572062084257,-0.3814953809772796
8.375942350332595,-0.3866542811944442
8.409312638580932,-0.36334128553441575
8.442682926829269,-0.25862335946946374
8.476053215077606,-0.051561676243669086
8.509423503325943,0.2339212722262557
8.54279379157428,0.535150858374254
8.576164079822616,0.7742143293685497
8.609534368070953,0.8891306415032528
8.64290465631929,0.8589280085080598
8.676274944567627,0.7113370383190899
8.709645232815964,0.5097835125589542
8.743015521064303,0.32604166380351385
8.77638580931264,0.21147251852416799
8.809756097560976,0.17991016532173565
8.843126385809313,0.2089603717167381
8.87649667405765,0.2571107204974577
8.909866962305987,0.28656573220504267
8.943237250554324,0.27990220736967775
8.97660753880266,0.2430648662000438
9.009977827050998,0.19509716216220627
9.043348115299334,0.1519174018486683
9.076718403547671,0.11390054625519931
9.110088691796008,0.06418378555761954
9.143458980044347,-0.021570987097950328
9.176829268292684,-0.15939359139969125
9.21019955654102,-0.34381077929035486
9.243569844789358,-0.5446582810135722
9.276940133037694,-0.7163684493152279
9.310310421286031,-0.8157888580487247
9.343680709534368,-0.8198565014950046
9.377050997782705,-0.7340586637379724
9.410421286031042,-0.5872058772941049
9.443791574279379,-0.4154774475354564
9.477161862527716,-0.24482206072725607
9.510532150776053,-0.08177645559114137
9.543902439024391,0.08233367236611151
9.577272727272728,0.25711034692861956
9.610643015521065,0.4383029089874878
9.644013303769402,0.6023913586269788
9.677383592017739,0.7144885136677674
9.710753880266076,0.7452337569361784
9.744124168514412,0.686872278783622
9.77749445676275,0.5592160553602674
9.810864745011086,0.4020273390552234
9.844235033259423,0.2578410344117588
9.87760532150776,0.1540690324477106
9.910975609756099,0.093064844495153
9.944345898004435,0.054303522396770096
9.977716186252772,0.00676358950835816
10.01108647450111,-0.07487039919620703
10.044456762749446,-0.1976071217576182
10.077827050997783,-0.3462647410984234
10.11119733924612,-0.4892612329755889
10.144567627494457,-0.5909810590905535
10.177937915742794,-0.6252450965221784
10.21130820399113,-0.5844496050327466
10.244678492239467,-0.48115776593306364
10.278048780487804,-0.3422608589906641
10.311419068736143,-0.19879788374317728
10.34478935698448,-0.0758730731350498
10.378159645232817,0.013593686434971046
10.411529933481154,0.069711647799661
10.44490022172949,0.10187745178600481
10.478270509977827,0.1227713742203745
10.511640798226164,0.1426340454885396
10.545011086474501,0.16563798020842285
10.578381374722838,0.1891486137113658
10.611751662971175,0.20580786627081893
10.645121951219512,0.20770292619675443
10.67849223946785,0.19123658396875048
10.711862527716187,0.1607335567149571
10.745232815964524,0.12873238750189794
10.778603104212861,0.11186041880716939
10.811973392461198,0.12321942420032439
10.845343680709535,0.16449503672425622
10.878713968957872,0.22210079603629734
10.912084257206208,0.2704330770295711
10.945454545454545,0.28190522186561245
10.978824833702882,0.23956754053267673
11.012195121951219,0.14616477547896786
11.045565410199556,0.024841084132313482
11.078935698447895,-0.08924473330329664
11.112305986696231,-0.16268446382690885
11.145676274944568,-0.176864918974386
11.179046563192905,-0.13490577245194546
11.212416851441242,-0.06013517931396644
11.245787139689579,0.012737336277552457
11.279157427937916,0.0501687583692088
11.312527716186253,0.03168285834287519
11.34589800443459,-0.04273122183235104
11.379268292682926,-0.15226059862835878
11.412638580931263,-0.2625451858512892
11.4460088691796,-0.3386594949613158
11.479379157427939,-0.35928223527823144
11.512749445676276,-0.3260924216488076
11.546119733924613,-0.26343233804129745
11.57949002217295,-0.2070628654210528
11.612860310421286,-0.18610753335841637
11.646230598669623,-0.2064494022338437
11.67960088691796,-0.24435055203065986
11.712971175166297,-0.254964295753063
11.746341463414634,-0.1932404966041838
11.77971175166297,-0.03798119816382191
11.813082039911308,0.1928096463724003
11.846452328159646,0.44379380004108493
11.879822616407983,0.6418645465154853
11.91319290465632,0.7251177543222025
11.946563192904657,0.6680235397664325
11.979933481152994,0.49126217560971913
12.01330376940133,0.25215414919452134
12.046674057649668,0.0209394292155899
12.080044345898004,-0.14557191513711065
12.113414634146341,-0.22136478816737162
12.146784922394678,-0.21365855149877408
12.180155210643015,-0.15234099743757892
12.213525498891352,-0.07390321304937368
12.24689578713969,-0.008056038095900699
12.280266075388028,0.028443164120590274
12.313636363636364,0.031189182836037537
12.347006651884701,0.00429609164490809
12.380376940133038,-0.043173492806939745
12.413747228381375,-0.09922558331085683
12.447117516629712,-0.1503158798193304
12.480487804878049,-0.18359317932552946
12.513858093126386,-0.19031605979476526
12.547228381374723,-0.1690027473426737
12.58059866962306,-0.12612441207071254
12.613968957871396,-0.07318812400580675
12.647339246119735,-0.02129924956939709
12.680709534368072,0.023820912985069425
12.714079822616409,0.06329839121473789
12.747450110864746,0.10195273908282933
12.780820399113082,0.14229561076330072
12.81419068736142,0.17941893246253868
12.847560975609756,0.20030499934507978
12.880931263858093,0.18875800089853287
12.91430155210643,0.13398993398720055
12.947671840354767,0.03863102850836248
12.981042128603104,-0.07822024269061952
13.014412416851442,-0.18523557584474648
13.04778270509978,-0.24938984449064797
13.081152993348116,-0.24872262426784622
13.114523281596453,-0.18187558808544926
13.14789356984479,-0.06999410571668548
13.181263858093127,0.050291224502118786
13.214634146341464,0.1402249250128984
13.2480044345898,0.17321684507297688
13.281374722838137,0.14417014796135047
13.314745011086474,0.07007106507422309
13.348115299334811,-0.01816927308785463
13.381485587583148,-0.08889475151012977
13.414855875831487,-0.12212865470518705
13.448226164079824,-0.11600115337223288
13.48159645232816,-0.08480334828756078
13.514966740576497,-0.05014582996995641
13.548337028824834,-0.029719687743637327
13.581707317073171,-0.028939560515403688
13.615077605321508,-0.0390499375304442
13.648447893569845,-0.042109049561590305
13.681818181818182,-0.02024860709232422
13.715188470066519,0.03496226684012023
13.748558758314855,0.1169568337916188
13.781929046563192,0.20467872049069186
13.815299334811531,0.26919222514289737
13.848669623059868,0.28428811693537337
13.882039911308205,0.23739699108854856
13.915410199556542,0.13653980535590368
13.948780487804878,0.009914148166070646
13.982150776053215,-0.10281573100661982
14.015521064301552,-0.16499333349659825
14.048891352549889,-0.15765611418115014
14.082261640798226,-0.08797945656152867
14.115631929046563,0.012842012088574157
14.1490022172949,0.10203080294713215
14.182372505543238,0.1428053541525577
14.215742793791575,0.11919663238923271
14.249113082039912,0.04131410938304138
14.282483370288249,-0.06111248662232508
14.315853658536586,-0.1533023714210309
14.349223946784923,-0.21061716412003764
14.38259423503326,-0.22702045328871281
14.415964523281596,-0.21344416693568263
14.449334811529933,-0.18827435077581722
14.48270509977827,-0.1661595875195064
14.516075388026607,-0.15156025110401922
14.549445676274944,-0.13993936927311826
14.582815964523283,-0.12449873341890533
14.61618625277162,-0.102997259595366
14.649556541019956,-0.07952602191147959
14.682926829268293,-0.05989570218391145
14.71629711751663,-0.044044328044011954
14.749667405764967,-0.021432010208194737
14.783037694013304,0.02607525702554957
14.81640798226164,0.11406592155464451
14.849778270509978,0.24347690807151268
14.883148558758315,0.3938939271110735
14.916518847006651,0.5272429616264334
14.949889135254988,0.601298133433769
14.983259423503327,0.5869607594670677
15.016629711751664,0.4810309007699412
15.05,0.30834683794102824
15.083370288248338,0.11236640232350635
15.116740576496674,-0.06132562778175579
15.150110864745011,-0.18114150026725395
15.183481152993348,-0.23850101076565244
15.216851441241685,-0.24669999238455895
15.250221729490022,-0.23136348728250353
15.283592017738359,-0.2177121555288941
15.316962305986696,-0.2205994109469907
15.350332594235034,-0.24116491404355678
15.383702882483371,-0.2703334962037581
15.417073170731708,-0.296225664207245
15.450443458980045,-0.3113009098717517
15.483813747228382,-0.31593330314529
15.517184035476719,-0.3171848162289601
15.550554323725056,-0.32359485345995737
15.583924611973393,-0.33821501250160885
15.61729490022173,-0.3528792286750089
15.650665188470066,-0.3468042019118781
15.684035476718403,-0.2916497132531703
15.71740576496674,-0.16276201070067836
15.750776053215079,0.046984389873571224
15.784146341463416,0.3168805769164809
15.817516629711752,0.5976830590973629
15.85088691796009,0.8232326729573272
15.884257206208426,0.9316402256258336
15.917627494456763,0.8882691064777127
15.9509977827051,0.7008005374506269
15.984368070953437,0.4191304804015795
16.017738359201775,0.11898642332077794
16.05110864745011,-0.12467306262113652
16.08447893569845,-0.26361935489317184
16.117849223946784,-0.29089546908776365
16.151219512195123,-0.2382507930515292
16.184589800443458,-0.15846237883021885
16.217960088691797,-0.10104789149945953
16.251330376940132,-0.09215425699137479
16.28470066518847,-0.12666840023840714
16.31807095343681,-0.17456241317434923
16.351441241685144,-0.19724664571555536
16.384811529933483,-0.16604204929756497
16.418181818181818,-0.0750108939221928
16.451552106430157,0.0563442466455868
16.48492239467849,0.1904720013796132
16.51829268292683,0.2854612739526547
16.551662971175165,0.30952934238186286
16.585033259423504,0.2512989351379936
16.61840354767184,0.12285740113734323
16.651773835920178,-0.044822174190955584
16.685144124168513,-0.21212286447214007
16.71851441241685,-0.3430662195394921
16.75188470066519,-0.41552909707428
16.785254988913525,-0.4261723848574343
16.818625277161864,-0.3888595384601083
16.8519955654102,-0.3276830772494649
16.885365853658538,-0.26743210442151716
16.918736141906873,-0.22483300599537212
16.95210643015521,-0.20325217035727716
16.985476718403547,-0.19227807426984603
17.018847006651885,-0.17218953272422147
17.05221729490022,-0.12198400136994157
17.08558758314856,-0.028478163541872135
17.118957871396898,0.10672290078502689
17.152328159645233,0.265351301460104
17.18569844789357,0.41708384720126185
17.219068736141907,0.5293890887553228
