Frequency (Hz),Amplitude
0.0,10.01225135990661
0.019823788546255508,10.011773904059934
0.039647577092511016,10.010343297653856
0.059471365638766524,10.007964819094536
0.07929515418502203,10.004647249067867
0.09911894273127755,10.000402845534694
0.11894273127753305,9.995247308688732
0.13876651982378857,9.989199735843417
0.15859030837004406,9.982282566207244
0.17841409691629956,9.974521515502623
0.1982378854625551,9.965945500380633
0.2180616740088106,9.956586552584916
0.2378854625550661,9.94647972282287
0.25770925110132165,9.935662974309102
0.27753303964757714,9.924177065960311
0.29735682819383263,9.912065425236687
0.31718061674008813,9.899374010648483
0.3370044052863437,9.886151163974091
0.3568281938325991,9.872447452270011
0.37665198237885467,9.858315499793871
0.3964757709251102,9.843809810007592
0.41629955947136565,9.828986577881484
0.4361233480176212,9.813903492779811
0.4559471365638767,9.798619532273936
0.4757709251101322,9.783194747302117
0.49559471365638774,9.767690039172827
0.5154185022026433,9.752166928991954
0.5352422907488987,9.736687320182222
0.5550660792951543,9.721313254854843
0.5748898678414097,9.706106664887786
0.5947136563876653,9.691129118660266
0.6145374449339208,9.676441564488877
0.6343612334801763,9.662104071904306
0.6541850220264318,9.648175571997875
0.6740088105726874,9.634713598151837
0.6938325991189428,9.621774028544927
0.7136563876651982,9.609410831892792
0.7334801762114539,9.59767581793972
0.7533039647577093,9.586618394261205
0.7731277533039648,9.576285330965423
0.7929515418502204,9.566720534892744
0.8127753303964759,9.557964834905995
0.8325991189427313,9.55005577983721
0.8524229074889869,9.543027450610682
0.8722466960352424,9.536910287994871
0.8920704845814978,9.531730937348092
0.9118942731277534,9.52751211161523
0.931718061674009,9.524272473706535
0.9515418502202644,9.522026539244717
0.9713656387665199,9.520784600507238
0.9911894273127755,9.520552672216924
1.0110132158590308,9.521332459650313
1.0308370044052866,9.523121349341135
1.0506607929515421,9.52591242245999
1.0704845814977975,9.529694490753291
1.090308370044053,9.534452154728946
1.1101321585903086,9.540165883585614
1.1299559471365639,9.546812116200021
1.1497797356828194,9.554363382316227
1.1696035242290752,9.562788442923432
1.1894273127753305,9.572052448668199
1.209251101321586,9.582117115023573
1.2290748898678416,9.592940912834145
1.248898678414097,9.604479272772343
1.2687224669603525,9.616684802177817
1.288546255506608,9.629507512709582
1.3083700440528636,9.64289505721776
1.3281938325991192,9.656792974238492
1.3480176211453747,9.671144938530139
1.36784140969163,9.685893016100016
1.3876651982378856,9.700977922216971
1.4074889867841411,9.716339280963915
1.4273127753303965,9.731915884954248
1.4471365638766522,9.747645953915015
1.4669603524229078,9.763467390925456
1.4867841409691631,9.779318035190299
1.5066079295154187,9.795135910321113
1.5264317180616742,9.810859467194481
1.5462555066079295,9.826427820550743
1.5660792951541853,9.841780978590627
1.5859030837004409,9.85686006491821
1.6057268722466962,9.871607532265159
1.6255506607929517,9.885967367513405
1.6453744493392073,9.899885287610907
1.6651982378854626,9.913308926044804
1.6850220264317182,9.926188009602546
1.7048458149779737,9.938474525208155
1.7246696035242293,9.950122876674023
1.7444933920704848,9.961090031252521
1.7643171806167404,9.971335655911643
1.7841409691629957,9.980822243290758
1.8039647577092512,9.989515227320153
1.8237885462555068,9.997383088508805
1.8436123348017623,10.004397448921374
1.863436123348018,10.010533156876853
1.8832599118942732,10.015768361408297
1.9030837004405288,10.02008457652683
1.9229074889867843,10.023466735332468
1.9427312775330399,10.02590323401207
1.9625550660792954,10.027385965758638
1.982378854625551,10.027910344639416
2.002202643171806,10.027475319430785
2.0220264317180616,10.0260833774281
2.041850220264317,10.02374053822858
2.061674008810573,10.020456337473634
2.0814977973568287,10.016243800527596
2.1013215859030843,10.011119406059382
2.1211453744493394,10.005103039486135
2.140969162995595,9.998217936230125
2.1607929515418505,9.990490614736915
2.180616740088106,9.981950799199986
2.2004405286343616,9.972631331939025
2.220264317180617,9.96256807538352
2.2400881057268722,9.951799803622798
2.2599118942731278,9.940368083496496
2.2797356828193833,9.928317145218717
2.299559471365639,9.915693742552152
2.319383259911895,9.902547002578764
2.3392070484581504,9.888928265148841
2.3590308370044055,9.87489091213217
2.378854625550661,9.860490186644217
2.3986784140969166,9.845783002474683
2.418502202643172,9.830827744008193
2.4383259911894277,9.81568405699484
2.4581497797356833,9.80041263060353
2.4779735682819384,9.785074971270891
2.497797356828194,9.769733168945027
2.5176211453744495,9.754449656413316
2.537444933920705,9.739286962497543
2.5572687224669606,9.724307459996012
2.577092511013216,9.709573109350172
2.5969162995594717,9.695145199109765
2.6167400881057272,9.681084084366585
2.6365638766519828,9.66744892441721
2.6563876651982383,9.654297421001512
2.676211453744494,9.641685558540736
2.6960352422907494,9.629667347866746
2.715859030837005,9.61829457499054
2.73568281938326,9.607616556498696
2.7555066079295156,9.597679903194237
2.775330396475771,9.588528293605382
2.7951541850220267,9.58020225897681
2.8149779735682823,9.572738981326959
2.834801762114538,9.566172106104812
2.854625550660793,9.560531570907232
2.874449339207049,9.555843451625632
2.8942731277533045,9.552129827277625
2.91409691629956,9.549408664647359
2.9339207048458156,9.547693723708408
2.953744493392071,9.546994484637892
2.9735682819383262,9.547316097052297
2.993392070484582,9.548659351906108
3.0132158590308373,9.551020676298775
3.033039647577093,9.554392151235138
3.0528634361233484,9.558761552183336
3.072687224669604,9.564112412076245
3.092511013215859,9.570424106210353
3.1123348017621146,9.577671958312678
3.1321585903083706,9.585827366875389
3.151982378854626,9.594857950701929
3.1718061674008817,9.60472771246783
3.1916299559471373,9.6153972189796
3.2114537444933924,9.62682379671303
3.231277533039648,9.63896174113183
3.2511013215859035,9.651762538228368
3.270925110132159,9.665175096688667
3.2907488986784146,9.679145989066035
3.31057268722467,9.693619700347794
3.3303964757709252,9.708538882318713
3.350220264317181,9.723844612159406
3.3700440528634363,9.739476653768328
3.389867841409692,9.755373720357904
3.4096916299559474,9.771473736948924
3.4295154185022034,9.787714101468968
3.4493392070484585,9.80403194324892
3.469162995594714,9.820364377805255
3.4889867841409696,9.836648756890561
3.508810572687225,9.852822912892712
3.5286343612334807,9.868825396758448
3.5484581497797363,9.884595708712196
3.5682819383259914,9.900074521131593
3.588105726872247,9.915203893028607
3.6079295154185025,9.929927475667053
3.627753303964758,9.944190708923834
3.6475770925110136,9.957941008071337
3.667400881057269,9.97112794072269
3.6872246696035247,9.98370339373853
3.7070484581497802,9.995621729944894
3.726872246696036,10.00683993455565
3.7466960352422913,10.017317751230767
3.7665198237885464,10.027017807733136
3.7863436123348024,10.035905731172189
3.8061674008810575,10.0439502528427
3.8259911894273135,10.051123302682127
3.8458149779735686,10.057400093379915
3.8656387665198246,10.062759194178488
3.8854625550660797,10.067182594407415
3.905286343612335,10.070655756791254
3.925110132158591,10.073167660567835
3.9449339207048464,10.074710834446726
3.964757709251102,10.075281379429612
3.9845814977973575,10.074878981504716
4.004405286343612,10.073506914216077
4.024229074889869,10.071172031097676
4.044052863436123,10.067884747950755
4.06387665198238,10.063659014931932
4.083700440528634,10.05851227840947
4.103524229074891,10.052465432536776
4.123348017621146,10.045542760484768
4.143171806167401,10.037771865270987
4.162995594713657,10.029183590120983
4.182819383259912,10.01981192829977
4.2026431718061685,10.009693922355924
4.222466960352423,9.998869552731076
4.242290748898679,9.987381615701832
4.262114537444934,9.975275590640699
4.28193832599119,9.962599496607742
4.301762114537445,9.949403738316448
4.321585903083701,9.935740941553927
4.3414096916299565,9.921665778180925
4.361233480176212,9.90723478088701
4.381057268722468,9.892506147935038
4.400881057268723,9.877539538193542
4.420704845814979,9.862395856827035
4.440528634361234,9.847137032093041
4.46035242290749,9.831825783777786
4.4801762114537445,9.816525383893213
4.500000000000001,9.801299410351211
4.5198237885462555,9.786211494429264
4.539647577092512,9.7713250629419
4.559471365638767,9.756703076133395
4.579295154185023,9.742407762408055
4.599118942731278,9.728500351112416
4.618942731277533,9.715040804678067
4.63876651982379,9.702087551521167
4.658590308370044,9.689697221174514
4.678414096916301,9.677924383196018
4.6982378854625555,9.666821291454319
4.718061674008811,9.656437635432882
4.737885462555067,9.646820300218685
4.757709251101322,9.638013136848112
4.777533039647578,9.630056744668655
4.797356828193833,9.622988267340896
4.817180616740089,9.616841204049347
4.837004405286344,9.611645237412558
4.856828193832599,9.607426079483984
4.876651982378855,9.604205337114436
4.896475770925111,9.602000397807492
4.9162995594713665,9.600824337041194
4.936123348017622,9.600685847856008
4.955947136563877,9.601589193322242
4.975770925110133,9.603534182303694
4.995594713656388,9.606516168730012
5.015418502202644,9.61052607438378
5.035242290748899,9.615550435000387
5.055066079295155,9.621571469275606
5.07488986784141,9.628567170178911
5.094713656387666,9.636511417784016
5.114537444933921,9.645374112654961
5.134361233480177,9.655121328668018
5.154185022026432,9.66571548401043
5.174008810572688,9.67711552897642
5.193832599118943,9.689277149081468
5.213656387665199,9.702152981938443
5.2334801762114544,9.715692846282481
5.25330396475771,9.729843981497138
5.2731277533039655,9.744551295980182
5.292951541850221,9.759757622693106
5.312775330396477,9.7754039802629
5.332599118942731,9.791429838044076
5.352422907488988,9.807773383605245
5.372246696035242,9.824371791171691
5.392070484581499,9.841161489633542
5.4118942731277535,9.858078428816023
5.43171806167401,9.87505834280119
5.451541850220265,9.892037009187035
5.47136563876652,9.908950503269816
5.491189427312777,9.925735446235144
5.511013215859031,9.94232924654183
5.530837004405288,9.95867033378011
5.550660792951542,9.97469838437718
5.570484581497798,9.99035453861267
5.5903083700440535,10.005581608488924
5.610132158590309,10.020324276077437
5.6299559471365646,10.03452928203433
5.64977973568282,10.048145604040286
5.669603524229076,10.061124624977776
5.689427312775331,10.07342029070828
5.709251101321586,10.084989257355188
5.729074889867842,10.095791028034876
5.748898678414098,10.105788079008184
5.768722466960353,10.11494597524961
5.788546255506609,10.123233475449107
5.808370044052864,10.130622626475931
5.82819383259912,10.137088847341719
5.848017621145375,10.142611002705191
5.867841409691631,10.147171465960877
5.887665198237886,10.150756171952008
5.907488986784142,10.153354659341977
5.927312775330397,10.154960102671007
5.9471365638766525,10.155569334114581
5.966960352422908,10.15518285494963
5.986784140969164,10.15380483672191
6.00660792951542,10.151443112095762
6.026431718061675,10.148109155355016
6.04625550660793,10.143818052511763
6.066079295154186,10.138588460969281
6.085903083700441,10.132442558675566
6.105726872246697,10.125405982696726
6.125550660792952,10.117507757135147
6.145374449339208,10.108780210314855
6.1651982378854635,10.099258881158718
6.185022026431718,10.088982414687745
6.204845814977975,10.07799244658322
6.224669603524229,10.066333476767568
6.244493392070486,10.054052731980843
6.264317180616741,10.041200017356871
6.284140969162996,10.027827557035616
6.303964757709252,10.013989823889098
6.323788546255507,9.999743358484686
6.3436123348017635,9.985146577463821
6.363436123348018,9.970259571575944
6.3832599118942746,9.955143893676011
6.403083700440529,9.939862337070304
6.422907488986785,9.924478704677576
6.44273127753304,9.909057569562378
6.462555066079296,9.893664027491871
6.482378854625551,9.878363442267126
6.502202643171807,9.863221184683828
6.5220264317180625,9.848302366082642
6.541850220264318,9.833671567556365
6.561674008810574,9.81939256598737
6.581497797356829,9.805528058191557
6.601321585903085,9.79213938454406
6.62114537444934,9.779286253553078
6.640969162995596,9.767026468931304
6.6607929515418505,9.755415660784404
6.680616740088107,9.74450702259413
6.700440528634362,9.734351055714214
6.720264317180618,9.724995323121068
6.740088105726873,9.716484214164762
6.759911894273129,9.708858722048168
6.779735682819384,9.702156235723288
6.799559471365639,9.696410347830133
6.819383259911895,9.691650680219169
6.83920704845815,9.687902728489112
6.859030837004407,9.685187726842589
6.8788546255506615,9.683522534410832
6.898678414096917,9.682919544030376
6.918502202643173,9.683386614269045
6.938325991189428,9.684927025300263
6.958149779735684,9.68753945901667
6.977973568281939,9.691218003558745
6.997797356828195,9.695952182216514
7.01762114537445,9.7017270064457
7.037444933920705,9.708523052527225
7.0572687224669615,9.716316561194796
7.077092511013216,9.725079559363536
7.096916299559473,9.734780002913624
7.116740088105728,9.745381939323373
7.136563876651983,9.756845688804095
7.156387665198239,9.769128042469642
7.176211453744494,9.782182475974958
7.19603524229075,9.795959376983182
7.215859030837005,9.810406284768659
7.235682819383261,9.825468140233207
7.255506607929516,9.84108754460486
7.275330396475772,9.857205025100713
7.295154185022027,9.873759305865944
7.314977973568283,9.890687582549218
7.334801762114538,9.907925798936704
7.354625550660794,9.92540892414236
7.374449339207049,9.943071228937319
7.394273127753305,9.960846559894316
7.4140969162995605,9.978668610123083
7.433920704845816,9.996471185474215
7.453744493392072,10.01418846519519
7.473568281938327,10.031755256125784
7.493392070484583,10.049107239623407
7.513215859030838,10.066181210509184
7.533039647577093,10.082915307420574
7.552863436123348,10.099249234047738
7.572687224669605,10.115124470814637
7.59251101321586,10.130484476644275
7.612334801762115,10.145274880518448
7.6321585903083715,10.159443662605993
7.651982378854627,10.172941324790495
7.671806167400882,10.185721050477364
7.691629955947137,10.197738853602713
7.711453744493394,10.208953716801544
7.731277533039649,10.219327718722012
7.751101321585904,10.228826150494763
7.7709251101321595,10.237417621383674
7.790748898678416,10.245074153655429
7.81057268722467,10.251771266712895
7.830396475770926,10.257488050538935
7.850220264317182,10.26220722849641
7.870044052863436,10.265915209525406
7.889867841409693,10.268602129770926
7.909691629955948,10.270261883664695
7.929515418502204,10.27089214447301
7.9493392070484585,10.270494374309417
7.969162995594715,10.269073823597582
7.9889867841409705,10.266639519954987
8.008810572687224,10.26320424645493
8.02863436123348,10.258784509210175
8.048458149779737,10.253400494210315
8.068281938325994,10.247076013333922
8.088105726872246,10.239838439448793
8.107929515418503,10.231718630507952
8.12775330396476,10.222750842547258
8.147577092511014,10.212972631491848
8.167400881057269,10.202424743684995
8.187224669603525,10.19115099506394
8.207048458149782,10.179198138923686
8.226872246696036,10.166615722232192
8.246696035242293,10.153455930489235
8.266519823788547,10.139773421157047
8.286343612334802,10.125625145733677
8.306167400881058,10.111070160590744
8.325991189427315,10.096169426755617
8.345814977973568,10.080985598884135
8.365638766519824,10.065582803744269
8.38546255506608,10.050026408613
8.405286343612337,10.034382780077948
8.42511013215859,10.01871903383075
8.444933920704846,10.003102776142352
8.464757709251103,9.98760183781649
8.484581497797357,9.972284001529575
8.504405286343614,9.95721672357827
8.524229074889869,9.942466851171002
8.544052863436125,9.92810033651266
8.56387665198238,9.914181949042128
8.583700440528636,9.90077498728739
8.60352422907489,9.887940991899828
8.623348017621145,9.875739461516524
8.643171806167402,9.864227573173293
8.662995594713658,9.853459909050864
8.682819383259913,9.843488191377576
8.702643171806168,9.834361027334667
8.722466960352424,9.826123665810561
8.74229074889868,9.818817767828074
8.762114537444935,9.81248119242264
8.78193832599119,9.807147799677793
8.801762114537446,9.802847272529112
8.821585903083701,9.799604958826874
8.841409691629957,9.797441735005226
8.861233480176212,9.796373892539838
8.881057268722468,9.796413048192496
8.900881057268723,9.797566078839761
8.92070484581498,9.799835081468565
8.940528634361234,9.803217358697667
8.960352422907489,9.807705429953238
8.980176211453745,9.81328706819512
9.000000000000002,9.81994536185956
9.019823788546258,9.827658801460727
9.039647577092511,9.836401390078466
9.059471365638768,9.846142776759278
9.079295154185024,9.856848411673274
9.099118942731279,9.868479721704766
9.118942731277533,9.880994305010768
9.13876651982379,9.894346142961352
9.158590308370046,9.908485827779655
9.1784140969163,9.923360804127219
9.198237885462555,9.93891562283422
9.218061674008812,9.955092204949516
9.237885462555067,9.971830114286043
9.257709251101323,9.989066836657186
9.27753303964758,10.006738064039771
9.297356828193834,10.024777981957042
9.317180616740089,10.043119558446708
9.337004405286345,10.061694833064298
9.356828193832602,10.08043520446677
9.376651982378855,10.09927171522364
9.396475770925111,10.118135332610935
9.416299559471367,10.136957224253877
9.436123348017622,10.155669027596224
9.455947136563877,10.174203112284973
9.475770925110133,10.192492834667982
9.49559471365639,10.210472783706466
9.515418502202644,10.228079017704212
9.5352422907489,10.245249291348689
9.555066079295155,10.261923272646271
9.57488986784141,10.27804274941339
9.594713656387666,10.29355182505748
9.614537444933923,10.308397103445401
9.634361233480178,10.322527862713983
9.654185022026432,10.33589621792561
9.674008810572689,10.348457272512773
9.693832599118945,10.360169258490052
9.713656387665198,10.370993665438318
9.733480176211454,10.380895358287349
9.75330396475771,10.389842683937124
9.773127753303967,10.39780756676785
9.792951541850222,10.404765593092806
9.812775330396477,10.410696084608167
9.832599118942733,10.415582160889654
9.852422907488988,10.419410790979315
9.872246696035244,10.422172834094587
9.892070484581499,10.42386306948029
9.911894273127754,10.424480215409515
9.93171806167401,10.424026937324
9.951541850220266,10.422509845088873
9.971365638766521,10.419939479319623
9.991189427312776,10.416330286723877
10.011013215859032,10.411700584384965
10.030837004405289,10.406072512900735
10.050660792951543,10.399471978279184
10.070484581497798,10.391928582483274
10.090308370044054,10.383475542511096
10.11013215859031,10.374149597894776
10.129955947136565,10.363990906503533
10.14977973568282,10.353042928542443
10.169603524229077,10.341352298650369
10.189427312775331,10.328968686018829
10.209251101321588,10.315944642477325
10.229074889867842,10.302335438522524
10.248898678414099,10.288198887307878
10.268722466960353,10.273595156656702
10.28854625550661,10.258586569217647
10.308370044052865,10.243237390944985
10.32819383259912,10.227613608158887
10.348017621145376,10.21178269352182
10.367841409691632,10.19581336135703
10.387665198237887,10.179775312832675
10.407488986784141,10.163738971640113
10.427312775330398,10.147775210906799
10.447136563876654,10.131955072201322
10.466960352422909,10.116349477609441
10.486784140969164,10.101028935984234
10.50660792951542,10.086063244597781
10.526431718061675,10.0715211875452
10.546255506607931,10.057470232371626
10.566079295154186,10.043976226505613
10.585903083700442,10.031103095187385
10.605726872246697,10.018912542672568
10.625550660792953,10.007463758571408
10.645374449339208,9.996813131244117
10.665198237885463,9.98701397021534
10.685022026431719,9.978116239590973
10.704845814977975,9.970166304456377
10.724669603524232,9.963206692205928
10.744493392070485,9.957275870698483
10.764317180616741,9.952408045049744
10.784140969162998,9.948632974763271
10.803964757709252,9.945975812765312
