Time (s),Filtered Signal
0.0,-0.012733570474514759
0.0334075723830735,0.0028877008178059154
0.066815144766147,0.0025217155091995153
0.1002227171492205,-0.022295946999173994
0.133630289532294,-0.0684923693729439
0.1670378619153675,-0.12342236887097258
0.200445434298441,-0.17138343138967949
0.23385300668151449,-0.2011672470152645
0.267260579064588,-0.210787976029652
0.3006681514476615,-0.2072167622713696
0.334075723830735,-0.2016298626290966
0.3674832962138085,-0.20286377665060198
0.400890868596882,-0.21242633180225756
0.4342984409799555,-0.2234138705975053
0.46770601336302897,-0.22369906420685237
0.5011135857461025,-0.20176743697742242
0.534521158129176,-0.1524340506788822
0.5679287305122495,-0.0797868086803429
0.601336302895323,0.004007418966994295
0.6347438752783965,0.08348552653169618
0.66815144766147,0.14602032914037766
0.7015590200445435,0.18640610379121553
0.734966592427617,0.2077626910668859
0.7683741648106905,0.21848069932515504
0.801781737193764,0.22694194530679887
0.8351893095768375,0.23683704441899275
0.868596881959911,0.245473882011467
0.9020044543429845,0.24578038985180334
0.9354120267260579,0.2307085021502086
0.9688195991091315,0.1975403759691254
1.002227171492205,0.14979392804031946
1.0356347438752784,0.09583397793541065
1.069042316258352,0.04509166028151196
1.1024498886414256,0.004008091519126259
1.135857461024499,-0.02615223111904013
1.1692650334075725,-0.04858375333036294
1.202672605790646,-0.0679039278821376
1.2360801781737194,-0.08663377707313155
1.269487750556793,-0.10323807531653562
1.3028953229398665,-0.11284530297031922
1.33630289532294,-0.11025145319944883
1.3697104677060135,-0.09355355962614877
1.403118040089087,-0.0664239939064036
1.4365256124721606,-0.037744872013894544
1.469933184855234,-0.018638574867561566
1.5033407572383075,-0.018165930057923427
1.536748329621381,-0.039551362563862595
1.5701559020044544,-0.07852991057543499
1.603563474387528,-0.12448151128600103
1.6369710467706016,-0.16387017826750508
1.670378619153675,-0.1846361277080186
1.7037861915367485,-0.17993142782769614
1.737193763919822,-0.14997955406222918
1.7706013363028954,-0.10162406949259796
1.804008908685969,-0.04593413897848388
1.8374164810690425,0.005234945066353457
1.8708240534521159,0.04265402321735353
1.9042316258351895,0.06214024213118728
1.937639198218263,0.06531146568270091
1.9710467706013366,0.058441120679173154
2.00445434298441,0.04974890546912063
2.0378619153674835,0.04604562587621192
2.071269487750557,0.05000283385465518
2.1046770601336307,0.05919156520041242
2.138084632516704,0.06737367988747249
2.1714922048997773,0.06757330778149133
2.204899777282851,0.055644155757771326
2.2383073496659245,0.03277987447170989
2.271714922048998,0.005823204622989449
2.3051224944320716,-0.014874649432038032
2.338530066815145,-0.0192961983269365
2.3719376391982183,-0.0018396453551246868
2.405345211581292,0.03600296796950365
2.4387527839643655,0.08558832431689486
2.472160356347439,0.13396003437842427
2.5055679287305126,0.16867532605148344
2.538975501113586,0.18273150373234162
2.5723830734966593,0.17740623552422302
2.605790645879733,0.16150434218702495
2.6391982182628064,0.14702589226187873
2.67260579064588,0.14302368948245317
2.7060133630289536,0.1505299993192585
2.739420935412027,0.16120694478780553
2.7728285077951007,0.16073250900124303
2.806236080178174,0.13557477387220992
2.8396436525612474,0.0799333892007094
2.873051224944321,-0.0006887815435503912
2.9064587973273945,-0.09128032059314814
2.939866369710468,-0.17379883859502718
2.9732739420935417,-0.23521678019559475
3.006681514476615,-0.2731405458273664
3.0400890868596884,-0.29617262652231524
3.073496659242762,-0.31880743872372325
3.1069042316258355,-0.35337795305793585
3.140311804008909,-0.4030085850715706
3.1737193763919826,-0.45897078339532055
3.207126948775056,-0.503611122547704
3.2405345211581293,-0.5173041394493982
3.273942093541203,-0.48606400756391027
3.3073496659242765,-0.4063986470328479
3.34075723830735,-0.28561406839399756
3.3741648106904236,-0.13811875263232404
3.407572383073497,0.019918269721474542
3.4409799554565703,0.17480038760223202
3.474387527839644,0.31672860798677266
3.5077951002227175,0.43854245035746264
3.541202672605791,0.5334783821792037
3.5746102449888646,0.5941628315015035
3.608017817371938,0.6142279834462719
3.6414253897550113,0.5921402894891142
3.674832962138085,0.5349863718468721
3.7082405345211584,0.4591894640740282
3.7416481069042318,0.38618307381846034
3.7750556792873056,0.3337595252801969
3.808463251670379,0.3068370026443847
3.8418708240534527,0.29286188307440286
3.875278396436526,0.2656279488314358
3.9086859688195994,0.19719277868632457
3.942093541202673,0.07284617999667506
3.9755011135857465,-0.09844305408788435
4.00890868596882,-0.28415306305786736
4.042316258351893,-0.439838641587274
4.075723830734967,-0.5271850756217514
4.109131403118041,-0.5299091043949963
4.142538975501114,-0.4599597351247427
4.1759465478841875,-0.35141777320440576
4.209354120267261,-0.24555473311837378
4.242761692650334,-0.17444054429489422
4.276169265033408,-0.1504426596322317
4.309576837416482,-0.16535635218097397
4.342984409799555,-0.19795261845623718
4.3763919821826285,-0.22506447610120167
4.409799554565702,-0.23061117170903198
4.443207126948775,-0.2091082139580353
4.476614699331849,-0.16366501521108112
4.510022271714923,-0.10120078388236341
4.543429844097996,-0.028290047594037932
4.5768374164810695,0.0502933195177532
4.610244988864143,0.13047069291236496
4.643652561247216,0.2069494673310425
4.67706013363029,0.2724570662131194
4.710467706013364,0.3189763585772404
4.743875278396437,0.3403542922716676
4.77728285077951,0.33472703173072516
4.810690423162584,0.30530159532464846
4.844097995545657,0.25898039548651547
4.877505567928731,0.20351592190328088
4.910913140311805,0.14468187311639674
4.944320712694878,0.08492603845357265
4.977728285077951,0.024128089633759675
5.011135857461025,-0.03813413908348539
5.044543429844098,-0.10030338798411859
5.077951002227172,-0.15804653049800035
5.111358574610246,-0.2055056801359257
5.144766146993319,-0.23783595351441858
5.178173719376392,-0.253405078593091
5.211581291759466,-0.254209528015631
5.244988864142539,-0.24419776349610328
5.278396436525613,-0.22655641127720794
5.311804008908687,-0.2017109035062463
5.34521158129176,-0.1673507866081588
5.378619153674833,-0.12050128073341174
5.412026726057907,-0.060378426262236946
5.445434298440981,0.009696816215003255
5.478841870824054,0.08246396010916708
5.512249443207128,0.148935471425796
5.545657015590201,0.2016141196945713
5.579064587973274,0.23731315737518852
5.612472160356348,0.2584600579203698
5.645879732739422,0.2723585811643499
5.679287305122495,0.288481379314554
5.712694877505569,0.3143874030199695
5.746102449888642,0.3513774657758274
5.779510022271715,0.39148572788802105
5.812917594654789,0.41754749714378925
5.846325167037863,0.40743788351557225
5.879732739420936,0.3419733525282787
5.91314031180401,0.2139041861518429
5.946547884187083,0.034017652832244324
5.979955456570156,-0.1692375831812136
6.01336302895323,-0.3576788687504501
6.046770601336304,-0.49627792183106473
6.080178173719377,-0.5655502543671538
6.1135857461024505,-0.5677079214539661
6.146993318485524,-0.5235976861128407
6.180400890868597,-0.46191227848058064
6.213808463251671,-0.40594765484466644
6.247216035634745,-0.36425831727817604
6.280623608017818,-0.32942411789737236
6.3140311804008915,-0.284982903961381
6.347438752783965,-0.2165606256040025
6.380846325167038,-0.12132229554633489
6.414253897550112,-0.010946714282728765
6.447661469933186,0.0932111149458907
6.481069042316259,0.17006028205102872
6.5144766146993325,0.208578804494349
6.547884187082406,0.2125181747710407
6.581291759465479,0.19786277189000523
6.614699331848553,0.1846481745918082
6.648106904231627,0.18742362538774984
6.6815144766147,0.20900477086884395
6.7149220489977735,0.24025419444045665
6.748329621380847,0.2655794261945377
6.78173719376392,0.2711612739764199
6.815144766146994,0.2518046302168948
6.848552338530068,0.21316274186792916
6.881959910913141,0.16846294908157283
6.915367483296214,0.1315994601862177
6.948775055679288,0.11020498286732901
6.982182628062361,0.10219532817869137
7.015590200445435,0.09739636492104836
7.048997772828509,0.08323959693795427
7.082405345211582,0.0515272890697126
7.115812917594655,0.0028810429353479587
7.149220489977729,-0.05322450418891734
7.182628062360802,-0.10272899364925778
7.216035634743876,-0.13341763293930625
7.24944320712695,-0.14046110524149702
7.282850779510023,-0.12853111746394175
7.316258351893096,-0.10959720927570579
7.34966592427617,-0.09748025879428507
7.383073496659243,-0.10165787576984534
7.416481069042317,-0.12308451680360888
7.449888641425391,-0.1538244663282666
7.4832962138084635,-0.18055971499357193
7.516703786191537,-0.19031986422199978
7.550111358574611,-0.17585898470623845
7.583518930957685,-0.13837648645680256
7.616926503340758,-0.0865875600641287
7.650334075723832,-0.03284477689796023
7.683741648106905,0.011727070447456408
7.717149220489978,0.040873693552901914
7.750556792873052,0.054230206801822584
7.783964365256126,0.05569510992608009
7.817371937639199,0.05037916935181912
7.850779510022273,0.04188140459532323
7.884187082405346,0.03127955602964982
7.917594654788419,0.018184036132471024
7.951002227171493,0.0030079042406703275
7.984409799554567,-0.011147969428989296
8.01781737193764,-0.018474042579058676
8.051224944320714,-0.01275966317877272
8.084632516703786,0.008930525035702578
8.118040089086861,0.043206432390158866
8.151447661469934,0.07990973993065786
8.184855233853007,0.10510054043802776
8.218262806236082,0.10656078355231327
8.251670378619155,0.07950348013458694
8.285077951002227,0.029844994776674103
8.318485523385302,-0.026695893017935735
8.351893095768375,-0.06968320779421412
8.385300668151448,-0.0814526610263634
8.418708240534523,-0.05411197862648652
8.452115812917596,0.006799369232354345
8.485523385300668,0.08361717986769121
8.518930957683743,0.15249226739574165
8.552338530066816,0.19174206132116778
8.585746102449889,0.1894058818229576
8.619153674832964,0.1471414895707839
8.652561247216036,0.0790936006986635
8.68596881959911,0.0063238471871074195
8.719376391982184,-0.050984758047610344
8.752783964365257,-0.08060764693314258
8.78619153674833,-0.082043056942176
8.819599109131405,-0.06561026243209883
8.853006681514477,-0.04728598592146681
8.88641425389755,-0.041365838513831535
8.919821826280625,-0.053994554064167304
8.953229398663698,-0.08034753668932029
8.98663697104677,-0.10674104840008275
9.020044543429846,-0.1167860613826512
9.053452115812918,-0.09887420136967758
9.086859688195991,-0.05169093622304265
9.120267260579066,0.014604511731943493
9.153674832962139,0.08188284539005418
9.187082405345212,0.1305114723354182
9.220489977728286,0.14594073294258253
9.25389755011136,0.12286637710055774
9.287305122494432,0.06584606894164251
9.320712694877507,-0.013089044261380986
9.35412026726058,-0.0982773936161625
9.387527839643653,-0.17418259445176315
9.420935412026727,-0.22822277750927233
9.4543429844098,-0.2525633018073609
9.487750556792873,-0.245032446696593
9.521158129175948,-0.2091416056975057
9.55456570155902,-0.15296341180520379
9.587973273942094,-0.0867517608152548
9.621380846325168,-0.019754182792340584
9.654788418708241,0.0426627993700752
9.688195991091314,0.10020361636353106
9.721603563474389,0.15629019285913837
9.755011135857462,0.21447114130109177
9.788418708240535,0.27415147911698406
9.82182628062361,0.3278289295491211
9.855233853006682,0.3615918725898655
9.888641425389755,0.35925527937722423
9.92204899777283,0.3088039973966982
9.955456570155903,0.20858681641093607
9.988864142538976,0.0705513362407375
10.02227171492205,-0.08117128664888922
10.055679287305123,-0.21624374168129823
10.089086859688196,-0.30675948811752335
10.12249443207127,-0.3355181563532356
10.155902004454344,-0.3009568792987555
10.189309576837417,-0.21697256764038422
10.222717149220491,-0.10782912380417146
10.256124721603564,-0.00027053000241093327
10.289532293986637,0.08398811420267184
10.322939866369712,0.13258619668274912
10.356347438752785,0.14254182601809157
10.389755011135858,0.11705702689930762
10.423162583518932,0.061725392415458366
10.456570155902005,-0.01725203073902247
10.489977728285078,-0.11184511444019929
10.523385300668153,-0.2092497524217253
10.556792873051226,-0.29007326136409756
10.590200445434299,-0.33034478113159915
10.623608017817373,-0.3081142440282767
10.657015590200446,-0.2126698768927361
10.69042316258352,-0.05231961612965862
10.723830734966594,0.143561695967632
10.757238307349667,0.3305660605364486
10.790645879732741,0.4622654514118337
10.824053452115814,0.5056825469251622
10.857461024498887,0.453011217887346
10.890868596881962,0.32445847615636647
10.924276169265035,0.16065168180272965
10.957683741648108,0.007556223723209412
10.991091314031182,-0.09984858988225255
11.024498886414255,-0.14840930684015197
11.057906458797328,-0.1480482814452817
11.091314031180403,-0.12377581691932216
11.124721603563476,-0.10290761780665843
11.158129175946549,-0.10363666659774257
11.191536748329623,-0.1296882151053177
11.224944320712696,-0.17220023236190315
11.25835189309577,-0.21631803705127112
11.291759465478844,-0.24824848446831224
11.325167037861917,-0.2593773376075699
11.35857461024499,-0.24659969089660747
11.391982182628064,-0.2104321859634579
11.425389755011137,-0.15327536517843426
11.45879732739421,-0.07914276554716802
11.492204899777285,0.00565306770847943
11.525612472160358,0.09243810427232974
11.55902004454343,0.17180637009990526
11.592427616926505,0.23640341705640028
11.625835189309578,0.2830162509749444
11.659242761692651,0.3122821994891202
11.692650334075726,0.3259615184214046
11.726057906458799,0.3236302921331502
11.759465478841872,0.3013575336080978
11.792873051224946,0.25378593755505374
11.82628062360802,0.1787297314039617
11.859688195991092,0.08148889075445322
11.893095768374167,-0.024108300143013545
11.92650334075724,-0.11917846403044105
11.959910913140313,-0.18639598816164452
11.993318485523387,-0.2164832158674205
12.02672605790646,-0.2112979618962798
12.060133630289533,-0.18206431136077073
12.093541202672608,-0.1438486953847541
12.12694877505568,-0.10919858604261401
12.160356347438753,-0.0840033096136724
12.193763919821828,-0.06719941287580973
12.227171492204901,-0.05386348365512619
12.260579064587974,-0.03964472589488295
12.293986636971049,-0.024085087682737327
12.327394209354122,-0.011173770437308196
12.360801781737194,-0.00697443722667357
12.39420935412027,-0.015630215164958678
12.427616926503342,-0.03586380739979121
12.461024498886415,-0.059910803574108225
12.49443207126949,-0.07572550866707768
12.527839643652563,-0.07175046943893877
12.561247216035635,-0.04223763297973049
12.59465478841871,0.009325938749366179
12.628062360801783,0.07044028047912909
12.661469933184856,0.12364404683952239
12.69487750556793,0.15282766311131046
12.728285077951004,0.14916075039006502
12.761692650334076,0.11414613780934303
12.795100222717151,0.05865990690949288
12.828507795100224,-0.0013266075006426541
12.861915367483297,-0.05028912781876851
12.895322939866372,-0.07768596348554048
12.928730512249444,-0.08010204905672104
12.962138084632517,-0.060941668914877775
12.995545657015592,-0.0285562855230482
13.028953229398665,0.006169863069497618
13.062360801781738,0.03224182131468961
13.095768374164813,0.04096786383710154
13.129175946547885,0.028377501302610603
13.162583518930958,-0.0028491824664750847
13.195991091314033,-0.0429879155234104
13.229398663697106,-0.07741306742249056
13.262806236080179,-0.09133423189375112
13.296213808463254,-0.07570903933405926
13.329621380846326,-0.03178616570546987
13.3630289532294,0.028201534321442668
13.396436525612474,0.0851792573506345
13.429844097995547,0.12088464825926608
13.46325167037862,0.12576842093812332
13.496659242761694,0.1034016741795418
13.530066815144767,0.06904275107786483
13.56347438752784,0.04270460661446984
13.596881959910915,0.039763016388582595
13.630289532293988,0.06349317913694393
13.66369710467706,0.10317096647338159
13.697104677060135,0.13880445537254135
13.730512249443208,0.15038257696960938
13.763919821826281,0.12730675257337798
13.797327394209356,0.07353546957266023
13.830734966592429,0.006010568375975191
13.864142538975502,-0.05286305034233248
13.897550111358576,-0.08513134486401243
13.93095768374165,-0.08502417334308524
13.964365256124722,-0.061096619620591985
13.997772828507797,-0.032064544875098785
14.03118040089087,-0.01849914586269651
14.064587973273943,-0.03424737903928458
14.097995545657017,-0.0812563730854912
14.13140311804009,-0.1496389140845727
14.164810690423163,-0.2223378141591209
14.198218262806238,-0.28185683402748757
14.23162583518931,-0.3160296982056925
14.265033407572384,-0.32072114808209834
14.298440979955458,-0.2990322468173062
14.331848552338531,-0.2581102587423877
14.365256124721604,-0.20539443346957043
14.398663697104679,-0.14593917958339112
14.432071269487752,-0.08165994272283443
14.465478841870825,-0.012406293249874982
14.4988864142539,0.061954186196211514
14.532293986636972,0.13956241473396439
14.565701559020045,0.2156602401482311
14.59910913140312,0.28315263374493016
14.632516703786193,0.33434702218097656
14.665924276169266,0.3630715593357613
14.69933184855234,0.36631170973439864
14.732739420935413,0.3448741289872065
14.766146993318486,0.30310389023142936
14.79955456570156,0.24799419175460025
14.832962138084634,0.18799063231101273
14.866369710467707,0.13157149116387398
14.899777282850781,0.0855994123228284
14.933184855233854,0.05365460082774732
14.966592427616927,0.03490837515544656
15.0,0.024202714266870345
