Frequency (Hz),Amplitude
0.0,0.05437895445570362
0.019823788546255508,0.08068642094220303
0.039647577092511016,0.13098014711903652
0.059471365638766524,0.18668443754152228
0.07929515418502203,0.24397849605157282
0.09911894273127755,0.3017956091121772
0.11894273127753305,0.3597087320880029
0.13876651982378857,0.41749483054364456
0.15859030837004406,0.4750115804600706
0.17841409691629956,0.532153798447913
0.1982378854625551,0.5888354549211191
0.2180616740088106,0.6449813557300803
0.2378854625550661,0.7005229517632097
0.25770925110132165,0.755396085326267
0.27753303964757714,0.809539716097491
0.29735682819383263,0.862895173770214
0.31718061674008813,0.915405708587768
0.3370044052863437,0.9670162176666869
0.3568281938325991,1.0176730788316353
0.37665198237885467,1.0673240522174043
0.3964757709251102,1.1159182256756048
0.41629955947136565,1.1634059890849016
0.4361233480176212,1.209739028038864
0.4559471365638767,1.2548703306684852
0.4757709251101322,1.2987542034141573
0.49559471365638774,1.341346292882646
0.5154185022026433,1.3826036117899525
0.5352422907488987,1.422484567569871
0.5550660792951543,1.4609489926211834
0.5748898678414097,1.497958175439125
0.5947136563876653,1.5334748920676393
0.6145374449339208,1.5674634374455965
0.6343612334801763,1.5998896563183687
0.6541850220264318,1.6307209734583332
0.6740088105726874,1.6599264229915924
0.6938325991189428,1.6874766766681462
0.7136563876651982,1.7133440709433885
0.7334801762114539,1.7375026327626857
0.7533039647577093,1.7599281039588046
0.7731277533039648,1.780597964186839
0.7929515418502204,1.7994914523330272
0.8127753303964759,1.8165895863433
0.8325991189427313,1.8318751814254317
0.8524229074889869,1.8453328665853803
0.8722466960352424,1.8569490994640858
0.8920704845814978,1.8667121794460282
0.9118942731277534,1.8746122590152234
0.931718061674009,1.880641353338459
0.9515418502202644,1.8847933480590238
0.9713656387665199,1.8870640052877865
0.9911894273127755,1.8874509677815425
1.0110132158590308,1.8859537613017519
1.0308370044052866,1.8825737951495767
1.0506607929515421,1.8773143608762908
1.0704845814977975,1.8701806291709047
1.090308370044053,1.8611796449298053
1.1101321585903086,1.8503203205162457
1.1299559471365639,1.8376134272206885
1.1497797356828194,1.8230715849361239
1.1696035242290752,1.806709250066099
1.1894273127753305,1.7885427016868698
1.209251101321586,1.7685900259893146
1.2290748898678416,1.7468710990307381
1.248898678414097,1.723407567831997
1.2687224669603525,1.6982228298614777
1.288546255506608,1.6713420109544699
1.3083700440528636,1.6427919417251007
1.3281938325991192,1.6126011325382246
1.3480176211453747,1.5807997471215287
1.36784140969163,1.5474195749140145
1.3876651982378856,1.5124940022673836
1.4074889867841411,1.4760579826430607
1.4273127753303965,1.4381480059817837
1.4471365638766522,1.3988020674680761
1.4669603524229078,1.3580596359723953
1.4867841409691631,1.315961622536695
1.5066079295154187,1.272550349382267
1.5264317180616742,1.2278695200775498
1.5462555066079295,1.181964191727954
1.5660792951541853,1.1348807503721294
1.5859030837004409,1.0866668912406119
1.6057268722466962,1.0373716062327667
1.6255506607929517,0.9870451820287934
1.6453744493392073,0.9357392138933348
1.6651982378854626,0.8835066428205655
1.6850220264317182,0.830401827875915
1.7048458149779737,0.7764806726019253
1.7246696035242293,0.7218008364219146
1.7444933920704848,0.6664220834879413
1.7643171806167404,0.6104068613641309
1.7841409691629957,0.5538212796624722
1.8039647577092512,0.49673681849899964
1.8237885462555068,0.43923344696645134
1.8436123348017623,0.38140566249553104
1.863436123348018,0.3233751302711891
1.8832599118942732,0.26531999156784625
1.9030837004405288,0.20755296555716893
1.9229074889867843,0.15077468142900544
1.9427312775330399,0.09717059459346582
1.9625550660792954,0.05710131709093996
1.982378854625551,0.06492233129270261
2.002202643171806,0.11092017559214944
2.0220264317180616,0.16581714184066126
2.041850220264317,0.22300739550343676
2.061674008810573,0.2809401084417506
2.0814977973568287,0.33906608084566503
2.1013215859030843,0.39712175731223676
2.1211453744493394,0.4549485882406621
2.140969162995595,0.5124339024968465
2.1607929515418505,0.5694877745678304
2.180616740088106,0.6260327407844857
2.2004405286343616,0.6819987721936913
2.220264317180617,0.7373206332977178
2.2400881057268722,0.791936415927225
2.2599118942731278,0.845786691401498
2.2797356828193833,0.8988140061486719
2.299559471365639,0.9509625769576888
2.319383259911895,1.0021781067671531
2.3392070484581504,1.0524076756067828
2.3590308370044055,1.1015996796696967
2.378854625550661,1.1497038018973276
2.3986784140969166,1.196671003556896
2.418502202643172,1.2424535299776442
2.4383259911894277,1.2870049259007887
2.4581497797356833,1.3302800573548503
2.4779735682819384,1.3722351379150621
2.497797356828194,1.4128277578346757
2.5176211453744495,1.4520169149608173
2.537444933920705,1.4897630466399387
2.5572687224669606,1.5260280620220683
2.577092511013216,1.5607753743178008
2.5969162995594717,1.593969932666137
2.6167400881057272,1.6255782533471597
2.6365638766519828,1.655568450129603
2.6563876651982383,1.683910263585285
2.676211453744494,1.7105750892341895
2.6960352422907494,1.73553600440854
2.715859030837005,1.7587677937427821
2.73568281938326,1.7802469732120605
2.7555066079295156,1.799951812653232
2.775330396475771,1.8178623567123675
2.7951541850220267,1.83396044417113
2.8149779735682823,1.8482297256104767
2.834801762114538,1.8606556793766988
2.854625550660793,1.8712256258192366
2.874449339207049,1.879928739774479
2.8942731277533045,1.8867560612735723
2.91409691629956,1.89170050445603
2.9339207048458156,1.894756864674068
2.953744493392071,1.8959218237760573
2.9735682819383262,1.8951939535602451
2.993392070484582,1.8925737173929087
3.0132158590308373,1.8880634699878793
3.033039647577093,1.8816674553472283
3.0528634361233484,1.8733918028657344
3.072687224669604,1.8632445216044506
3.092511013215859,1.851235492741672
3.1123348017621146,1.8373764602126752
3.1321585903083706,1.8216810195525313
3.151982378854626,1.8041646049598465
3.1718061674008817,1.784844474602826
3.1916299559471373,1.7637396941930334
3.2114537444933924,1.7408711188565245
3.231277533039648,1.7162613733373397
3.2511013215859035,1.6899348305738258
3.270925110132159,1.6619175886953008
3.2907488986784146,1.6322374464946692
3.31057268722467,1.6009238774425767
3.3303964757709252,1.568008002320898
3.350220264317181,1.5335225605689755
3.3700440528634363,1.4975018804556723
3.389867841409692,1.459981848215918
3.4096916299559474,1.420999876323898
3.4295154185022034,1.380594871120024
3.4493392070484585,1.3388072000688191
3.469162995594714,1.2956786590076306
3.4889867841409696,1.2512524398607068
3.508810572687225,1.205573099454074
3.5286343612334807,1.1586865302974216
3.5484581497797363,1.1106399345332012
3.5682819383259914,1.0614818027473747
3.588105726872247,1.011261900078701
3.6079295154185025,0.9600312632034987
3.627753303964758,0.9078422135608605
3.6475770925110136,0.8547483950564724
3.667400881057269,0.8008048492274326
3.6872246696035247,0.7460681489225945
3.7070484581497802,0.6905966257644265
3.726872246696036,0.6344507526698026
3.7466960352422913,0.5776937924904996
3.7665198237885464,0.5203929242024579
3.7863436123348024,0.462621273232441
3.8061674008810575,0.4044617689779522
3.8259911894273135,0.3460150061098009
3.8458149779735686,0.28741683004893287
3.8656387665198246,0.22888296670587166
3.8854625550660797,0.17084431041394804
3.905286343612335,0.11448145333660158
3.925110132158591,0.06488585827280138
3.9449339207048464,0.050395588740267235
3.964757709251102,0.09002896776118789
3.9845814977973575,0.1445281197083049
4.004405286343612,0.20209424233264722
4.024229074889869,0.2605581809293094
4.044052863436123,0.31926432036833097
4.06387665198238,0.3779251722161917
4.083700440528634,0.43637627459792644
4.103524229074891,0.49450364073508524
4.123348017621146,0.5522172118007416
4.143171806167401,0.6094396061009246
4.162995594713657,0.6661008135453941
4.182819383259912,0.7221354858590588
4.2026431718061685,0.7774814669550931
4.222466960352423,0.8320789599762993
4.242290748898679,0.8858700409148604
4.262114537444934,0.9387983702771411
4.28193832599119,0.9908090226017119
4.301762114537445,1.0418483885340823
4.321585903083701,1.091864122852449
4.3414096916299565,1.1408051222741138
4.361233480176212,1.1886215229113903
4.381057268722468,1.2352647108553536
4.400881057268723,1.2806873415846176
4.420704845814979,1.3248433652954015
4.440528634361234,1.3676880561520166
4.46035242290749,1.4091780440518231
4.4801762114537445,1.4492713478978163
4.500000000000001,1.48792740964549
4.5198237885462555,1.5251071285798448
4.539647577092512,1.5607728954124322
4.559471365638767,1.5948886258842523
4.579295154185023,1.6274197936296952
4.599118942731278,1.6583334621080001
4.618942731277533,1.6875983154470457
4.63876651982379,1.7151846880728419
4.658590308370044,1.7410645930207986
4.678414096916301,1.7652117488414039
4.6982378854625555,1.7876016050272476
4.718061674008811,1.8082113658985877
4.737885462555067,1.827020012894002
4.757709251101322,1.8440083252198334
4.777533039647578,1.8591588988182093
4.797356828193833,1.8724561636190045
4.817180616740089,1.8838863990454433
4.837004405286344,1.8934377477473545
4.856828193832599,1.901100227539614
4.876651982378855,1.9068657415268313
4.896475770925111,1.9107280863984368
4.9162995594713665,1.912682958881131
4.936123348017622,1.9127279603387202
4.955947136563877,1.9108625995118993
4.975770925110133,1.90708829339317
4.995594713656388,1.9014083662348147
5.015418502202644,1.8938280466902322
5.035242290748899,1.8843544630916795
5.055066079295155,1.8729966368699238
5.07488986784141,1.8597654741240306
5.094713656387666,1.844673755352226
5.114537444933921,1.827736123357603
5.134361233480177,1.8089690693453455
5.154185022026432,1.7883909172315948
5.174008810572688,1.766021806187162
5.193832599118943,1.7418836714434565
5.213656387665199,1.7160002233921157
5.2334801762114544,1.6883969250146473
5.25330396475771,1.659100967684249
5.2731277533039655,1.6281412453885653
5.292951541850221,1.5955483274303093
5.312775330396477,1.5613544296727275
5.332599118942731,1.525593384409383
5.352422907488988,1.4883006089536785
5.372246696035242,1.4495130730643768
5.392070484581499,1.409269265350397
5.4118942731277535,1.3676091588347064
5.43171806167401,1.3245741759062957
5.451541850220265,1.280207152957301
5.47136563876652,1.2345523050969953
5.491189427312777,1.1876551914690174
5.511013215859031,1.1395626818923197
5.530837004405288,1.090322925830993
5.550660792951542,1.0399853251232667
5.570484581497798,0.9886005125478889
5.5903083700440535,0.9362203393143169
5.610132158590309,0.8828978761698877
5.6299559471365646,0.828687435444999
5.64977973568282,0.7736446257830697
5.669603524229076,0.7178264590035995
5.689427312775331,0.6612915424584411
5.709251101321586,0.6041004164699619
5.729074889867842,0.5463161484067207
5.748898678414098,0.4880054041080949
5.768722466960353,0.429240463219101
5.788546255506609,0.37010324786179394
5.808370044052864,0.3106940780579248
5.82819383259912,0.2511530090564988
5.848017621145375,0.19172095545002094
5.867841409691631,0.13296284687776594
5.887665198237886,0.07698434779419336
5.907488986784142,0.03939932190164391
5.927312775330397,0.067674248393498
5.9471365638766525,0.1224870325998445
5.966960352422908,0.181070620786242
5.986784140969164,0.2405521531982786
6.00660792951542,0.3002419964975862
6.026431718061675,0.35986579843807975
6.04625550660793,0.4192713716449749
6.066079295154186,0.4783529207009844
6.085903083700441,0.5370255457866266
6.105726872246697,0.5952150425165531
6.125550660792952,0.6528532938437804
6.145374449339208,0.7098759960134393
6.1651982378854635,0.7662214617093529
6.185022026431718,0.8218299611793979
6.204845814977975,0.8766433496848256
6.224669603524229,0.9306048554892445
6.244493392070486,0.9836589618257713
6.264317180616741,1.0357513458757595
6.284140969162996,1.0868288533571484
6.303964757709252,1.136839495873883
6.323788546255507,1.1857324630610266
6.3436123348017635,1.2334581444439985
6.363436123348018,1.2799681576837378
6.3832599118942746,1.3252153809755576
6.403083700440529,1.3691539880701364
6.422907488986785,1.4117394848436542
6.44273127753304,1.4529287466498617
6.462555066079296,1.492680055894314
6.482378854625551,1.5309531394150977
6.502202643171807,1.5677092053548005
6.5220264317180625,1.6029109792807996
6.541850220264318,1.6365227393628377
6.561674008810574,1.6685103504552954
6.581497797356829,1.6988412969602316
6.601321585903085,1.7274847143685865
6.62114537444934,1.7544114193942055
6.640969162995596,1.7795939386275215
6.6607929515418505,1.8030065356469744
6.680616740088107,1.8246252365337923
6.700440528634362,1.8444278537433278
6.720264317180618,1.8623940082913455
6.740088105726873,1.8785051502191972
6.759911894273129,1.8927445773053915
6.779735682819384,1.9050974519956303
6.799559471365639,1.915550816526222
6.819383259911895,1.924093606219375
6.83920704845815,1.930716660931382
6.859030837004407,1.935412734637821
6.8788546255506615,1.9381765031422964
6.898678414096917,1.9390045698978493
6.918502202643173,1.9378954699324586
6.938325991189428,1.934849671872723
6.958149779735684,1.9298695780617685
6.977973568281939,1.922959522770032
6.997797356828195,1.9141257684996287
7.01762114537445,1.9033765003856118
7.037444933920705,1.890721818699148
7.0572687224669615,1.8761737294607326
7.077092511013216,1.8597461331731404
7.096916299559473,1.8414548116866662
7.116740088105728,1.821317413211578
7.136563876651983,1.7993534354951086
7.156387665198239,1.7755842071833268
7.176211453744494,1.750032867390606
7.19603524229075,1.7227243435030954
7.215859030837005,1.6936853272454002
7.235682819383261,1.6629442490440458
7.255506607929516,1.6305312507250527
7.275330396475772,1.5964781565887447
7.295154185022027,1.5608184429101555
7.314977973568283,1.5235872059214917
7.334801762114538,1.4848211283420278
7.354625550660794,1.4445584445325081
7.374449339207049,1.402838904366677
7.394273127753305,1.3597037359328044
7.4140969162995605,1.3151956072054565
7.433920704845816,1.269358586865917
7.453744493392072,1.222238104502513
7.473568281938327,1.17388091049798
7.493392070484583,1.1243350360211908
7.513215859030838,1.0736497537034957
7.533039647577093,1.0218755398267383
7.552863436123348,0.9690640392297928
7.572687224669605,0.9152680347421559
7.59251101321586,0.8605414239267652
7.612334801762115,0.8049392075383426
7.6321585903083715,0.7485174968993189
7.651982378854627,0.6913335523826438
7.671806167400882,0.6334458744629424
7.691629955947137,0.5749143868741301
7.711453744493394,0.5158007886719254
7.731277533039649,0.45616923407200877
7.751101321585904,0.3960876948608019
7.7709251101321595,0.33563087712036366
7.790748898678416,0.2748871148507427
7.81057268722467,0.21397719071231605
7.830396475770926,0.1531182661506788
7.850220264317182,0.09293760829700874
7.870044052863436,0.03782045502001301
7.889867841409693,0.04314418905719018
7.909691629955948,0.09968589176189274
7.929515418502204,0.1601068428382525
7.9493392070484585,0.22112888280761162
7.969162995594715,0.28221294812279885
7.9889867841409705,0.34315925456403135
8.008810572687224,0.40385198134481787
8.02863436123348,0.46420436724118874
8.048458149779737,0.5241420562722392
8.068281938325994,0.5835968800621311
8.088105726872246,0.6425041931858356
8.107929515418503,0.7008016180279657
8.12775330396476,0.758428415684257
8.147577092511014,0.8153251602061174
8.167400881057269,0.8714335703179973
8.187224669603525,0.9266964275474565
8.207048458149782,0.9810575439480788
8.226872246696036,1.0344617593186112
8.246696035242293,1.0868549564492327
8.266519823788547,1.1381840875892053
8.286343612334802,1.1883972079551264
8.306167400881058,1.2374435136299335
8.325991189427315,1.285273382123872
8.345814977973568,1.331838414438567
8.365638766519824,1.3770914778371353
8.38546255506608,1.420986748758076
8.405286343612337,1.4634797554664625
8.42511013215859,1.504527420141329
8.444933920704846,1.5440881001707814
8.464757709251103,1.582121628477257
8.484581497797357,1.6185893527317745
8.504405286343614,1.6534541733425387
8.524229074889869,1.6866805801227356
8.544052863436125,1.7182346875571142
8.56387665198238,1.7480842685984541
8.583700440528636,1.7761987869336249
8.60352422907489,1.8025494276664944
8.623348017621145,1.8271091263702521
8.643171806167402,1.849852596467154
8.662995594713658,1.870756354897488
8.682819383259913,1.8897987460434806
8.702643171806168,1.906959963876887
8.722466960352424,1.922222072302294
8.74229074889868,1.935569023670723
8.762114537444935,1.9469866754408254
8.78193832599119,1.9564628049670596
8.801762114537446,1.9639871223974539
8.821585903083701,1.9695512816647527
8.841409691629957,1.973148889557831
8.861233480176212,1.9747755128620699
8.881057268722468,1.9744286835594778
8.900881057268723,1.9721079020817232
8.92070484581498,1.967814638611129
8.940528634361234,1.9615523324268054
8.960352422907489,1.953326389295192
8.980176211453745,1.9431441769063311
9.000000000000002,1.9310150183592185
9.019823788546258,1.9169501837015177
9.039647577092511,1.9009628795312254
9.059471365638768,1.8830682366694367
9.079295154185024,1.8632832959158536
9.099118942731279,1.8416269919002715
9.118942731277533,1.818120135045544
9.13876651982379,1.7927853916593708
9.158590308370046,1.7656472621743686
9.1784140969163,1.7367320575576988
9.198237885462555,1.7060678739137347
9.218061674008812,1.6736845653052346
9.237885462555067,1.639613714820477
9.257709251101323,1.6038886039160896
9.27753303964758,1.5665441800673519
9.297356828193834,1.5276170227602988
9.317180616740089,1.4871453078622832
9.337004405286345,1.4451687704106078
9.356828193832602,1.4017286658618344
9.376651982378855,1.3568677298482181
9.396475770925111,1.3106301364922197
9.416299559471367,1.2630614553356327
9.436123348017622,1.2142086069475082
9.455947136563877,1.164119817285194
9.475770925110133,1.1128445708970143
9.49559471365639,1.0604335630762074
9.515418502202644,1.0069386511068092
9.5352422907489,0.9524128047906465
9.555066079295155,0.8969100565213683
9.57488986784141,0.8404854512980295
9.594713656387666,0.7831949972849327
9.614537444933923,0.7250956179019056
9.634361233480178,0.6662451071201381
9.654185022026432,0.6067020909646907
9.674008810572689,0.5465260009075121
9.693832599118945,0.48577707061692094
9.713656387665198,0.42451638097831085
9.733480176211454,0.36280601265982343
9.75330396475771,0.3007094644348142
9.773127753303967,0.2382928294053149
9.792951541850222,0.1756286322938474
9.812775330396477,0.11281272789260902
9.832599118942733,0.05010912203743548
9.852422907488988,0.01581535619355503
9.872246696035244,0.07723117385236289
9.892070484581499,0.14015350272484986
9.911894273127754,0.2030808727823999
9.93171806167401,0.2658686565769914
9.951541850220266,0.3284348805017214
9.971365638766521,0.3907100773291951
9.991189427312776,0.45262883230569556
10.011013215859032,0.5141275432807653
10.030837004405289,0.5751436784642241
10.050660792951543,0.6356155059548005
10.070484581497798,0.6954820004475443
10.090308370044054,0.754682825326879
10.11013215859031,0.8131583499122755
10.129955947136565,0.8708496842243536
10.14977973568282,0.9276987228761131
10.169603524229077,0.9836481938063381
10.189427312775331,1.0386417095350682
10.209251101321588,1.0926238196152782
10.229074889867842,1.1455400634834327
10.248898678414099,1.1973370232056093
10.268722466960353,1.2479623757855225
10.28854625550661,1.2973649448020594
10.308370044052865,1.3454947512064377
10.32819383259912,1.3923030631488822
10.348017621145376,1.4377424447306633
10.367841409691632,1.4817668035946956
10.387665198237887,1.5243314372802832
10.407488986784141,1.5653930782760814
10.427312775330398,1.60490993771204
10.447136563876654,1.6428417476358939
10.466960352422909,1.67914980182379
10.486784140969164,1.7137969950781198
10.50660792951542,1.7467478609682328
10.526431718061675,1.7779686079724786
10.546255506607931,1.8074271539820765
10.566079295154186,1.8350931591298947
10.585903083700442,1.860938056908781
10.605726872246697,1.884935083546691
