Time (s),Filtered Signal
0.0,-0.14609356383533798
0.03337004405286344,-0.14406843049336793
0.06674008810572687,-0.14481923078859407
0.10011013215859031,-0.1514346315285556
0.13348017621145375,-0.164354367420779
0.16685022026431717,-0.18048566181346695
0.20022026431718062,-0.1930537979724626
0.23359030837004408,-0.1925980046377897
0.2669603524229075,-0.16922767335863353
0.3003303964757709,-0.11573669300884946
0.33370044052863435,-0.030681732538847206
0.3670704845814978,0.07966655423856416
0.40044052863436125,0.20136103924114915
0.43381057268722467,0.3150874686864284
0.46718061674008815,0.4003247791798627
0.5005506607929515,0.44034693783441853
0.533920704845815,0.4267456491890468
0.5672907488986785,0.3621842572681659
0.6006607929515418,0.2604617565392277
0.6340308370044053,0.1436181794408324
0.6674008810572687,0.036638070884485736
0.7007709251101322,-0.03888145203750543
0.7341409691629956,-0.07020648263761325
0.767511013215859,-0.05624232568019014
0.8008810572687225,-0.006547181166479656
0.834251101321586,0.06310779886096102
0.8676211453744493,0.13686962966627111
0.9009911894273128,0.20403046918480464
0.9343612334801763,0.2610751479491245
0.9677312775330397,0.3097445372332228
1.001101321585903,0.3522937095074611
1.0344713656387665,0.38663125282021227
1.06784140969163,0.40424431111508546
1.1012114537444935,0.39255186191961905
1.134581497797357,0.34111156997702763
1.1679515418502202,0.24891098158704325
1.2013215859030837,0.12881790894768913
1.2346916299559472,0.005836120828000752
1.2680616740088106,-0.09179315549258028
1.3014317180616741,-0.1460587631607136
1.3348017621145374,-0.1613735376999583
1.3681718061674009,-0.168495931892723
1.4015418502202643,-0.21546906409072905
1.4349118942731278,-0.34647399716107274
1.4682819383259913,-0.5763271307018653
1.5016519823788548,-0.8729209102422744
1.535022026431718,-1.1589706804036255
1.5683920704845815,-1.3369993117802035
1.601762114537445,-1.330054744623679
1.6351321585903085,-1.1206607001421094
1.668502202643172,-0.7678966531816539
1.7018722466960352,-0.3903069573322103
1.7352422907488987,-0.11813955335069651
1.7686123348017622,-0.034724883465973744
1.8019823788546256,-0.13470986657754452
1.8353524229074891,-0.3211253756317316
1.8687224669603526,-0.4457281644295335
1.9020925110132159,-0.3760478014743427
1.9354625550660793,-0.05864290143477025
1.9688325991189428,0.45144384203437643
2.002202643171806,1.0098474897238214
2.0355726872246698,1.4426575865249165
2.068942731277533,1.619520291101215
2.1023127753303967,1.506644258834056
2.13568281938326,1.1763278803391475
2.1690528634361232,0.7705981154409822
2.202422907488987,0.43783765917238626
2.23579295154185,0.2725532696052025
2.269162995594714,0.28485059245683736
2.302533039647577,0.4103649792487075
2.3359030837004404,0.5516864972024456
2.369273127753304,0.6283808948363492
2.4026431718061674,0.6108473216476918
2.436013215859031,0.5235427530702853
2.4693832599118943,0.4196653138243512
2.5027533039647576,0.34358151774591217
2.5361233480176213,0.3021501518543361
2.5694933920704845,0.25981474589256104
2.6028634361233483,0.15889764676950432
2.6362334801762115,-0.04666439489847676
2.6696035242290748,-0.3621470027985692
2.7029735682819385,-0.7421944306736532
2.7363436123348017,-1.1048943082838671
2.7697136563876654,-1.3629019323928449
2.8030837004405287,-1.4574761767753452
2.8364537444933924,-1.380885581812921
2.8698237885462556,-1.1783424640136093
2.903193832599119,-0.9293290006862389
2.9365638766519826,-0.7162326101448933
2.969933920704846,-0.5928006547094852
3.0033039647577096,-0.5647509685975609
3.036674008810573,-0.5901679742064663
3.070044052863436,-0.5996310427410024
3.1034140969162998,-0.5279658252254988
3.136784140969163,-0.3442179942806872
3.1701541850220267,-0.06655414991317075
3.20352422907489,0.24500429214266906
3.2368942731277532,0.5150298546746915
3.270264317180617,0.6860303054737145
3.30363436123348,0.7427379018065102
3.337004405286344,0.7156689456867167
3.370374449339207,0.6625253928927999
3.4037444933920704,0.6369811741741044
3.437114537444934,0.6604513059865336
3.4704845814977974,0.7106928876960569
3.503854625550661,0.7327596647360674
3.5372246696035243,0.6672470603300388
3.5705947136563876,0.48286831291835064
3.6039647577092513,0.19844176997666585
3.6373348017621145,-0.11619118642859153
3.6707048458149782,-0.3620267946055642
3.7040748898678415,-0.4477043670042545
3.737444933920705,-0.3268712651423999
3.7708149779735685,-0.020852382842459452
3.8041850220264317,0.38325971956727284
3.8375550660792954,0.7593668572515584
3.8709251101321587,0.9843251565455997
3.9042951541850224,0.9793965376420626
3.9376651982378856,0.7358439150430772
3.971035242290749,0.3158074114762327
4.004405286343612,-0.17069774032628443
4.037775330396476,-0.6030389556616758
4.0711453744493395,-0.8874827905043846
4.104515418502203,-0.9823258621085407
4.137885462555066,-0.9038091502783484
4.171255506607929,-0.7133182354314387
4.2046255506607935,-0.4922784747961806
4.237995594713657,-0.31399802888178346
4.27136563876652,-0.22140119087151106
4.304735682819383,-0.2169316007778306
4.3381057268722465,-0.2668568187768359
4.371475770925111,-0.31767985101021523
4.404845814977974,-0.3184064432959793
4.438215859030837,-0.24031591818135048
4.4715859030837,-0.08675947254530347
4.504955947136564,0.11047583067195767
4.538325991189428,0.3059258776373575
4.571696035242291,0.4591131972876285
4.605066079295154,0.5484371552591492
4.638436123348018,0.5745264073599471
4.671806167400881,0.5530669165981573
4.705176211453745,0.5025394137714957
4.738546255506608,0.4343377081612759
4.7719162995594715,0.350408790083752
4.805286343612335,0.24847114296434483
4.838656387665198,0.13017297278890036
4.872026431718062,0.0059843961507666825
4.905396475770925,-0.10705068708218378
4.938766519823789,-0.1938514203343209
4.972136563876652,-0.2509739201166243
5.005506607929515,-0.2909490727683186
5.038876651982379,-0.3373947825823916
5.072246696035243,-0.41227870486665896
5.105616740088106,-0.5217979681410069
5.138986784140969,-0.6491684151735931
5.172356828193832,-0.7596009841249196
5.2057268722466965,-0.8160303291921284
5.23909691629956,-0.7973894042862487
5.272466960352423,-0.708648120439973
5.305837004405286,-0.5756845203834151
5.3392070484581495,-0.426786339707713
5.372577092511014,-0.27132881035184475
5.405947136563877,-0.08944738424020487
5.43931718061674,0.15839864377890217
5.4726872246696034,0.5041417546405677
5.506057268722468,0.9404841024288865
5.539427312775331,1.4030836085888432
5.572797356828194,1.7796942085207133
5.606167400881057,1.9466526655781526
5.639537444933921,1.8189215388035396
5.672907488986785,1.391560255302841
5.706277533039648,0.7524693706607158
5.739647577092511,0.05800826080509185
5.7730176211453745,-0.5205778958361047
5.806387665198238,-0.8584986524112721
5.839757709251102,-0.9207766782207797
5.873127753303965,-0.76904467980249
5.9064977973568284,-0.5289937376910058
5.939867841409692,-0.3330752371862593
5.973237885462555,-0.26400393825069607
6.006607929515419,-0.3239009794592062
6.039977973568282,-0.44179219371150974
6.073348017621146,-0.5143188046813765
6.106718061674009,-0.4593638599855631
6.140088105726872,-0.256998224516835
6.173458149779736,0.04089602448069683
6.2068281938325995,0.33530859080625625
6.240198237885463,0.5255194938197607
6.273568281938326,0.552441927870359
6.306938325991189,0.41957245521392
6.3403083700440535,0.18374357886814707
6.373678414096917,-0.0765334392085198
6.40704845814978,-0.2969805896901573
6.440418502202643,-0.44948380422840634
6.4737885462555065,-0.5412108702045406
6.507158590308371,-0.5951792258000221
6.540528634361234,-0.6260698136753571
6.573898678414097,-0.6262930833609218
6.60726872246696,-0.5701607421507131
6.640638766519824,-0.4328704753514252
6.674008810572688,-0.21219235443537254
6.707378854625551,0.060834204359809144
6.740748898678414,0.3294081704533557
6.774118942731278,0.5331906542517587
6.807488986784141,0.6331706846607567
6.840859030837005,0.6257157454631529
6.874229074889868,0.5388570508183607
6.9075991189427315,0.4141663858270499
6.940969162995595,0.2854537440359841
6.974339207048458,0.16643532710657394
7.007709251101322,0.05328295534847561
7.041079295154185,-0.06144200218068575
7.074449339207049,-0.17386236497838647
7.107819383259912,-0.263582847224033
7.141189427312775,-0.3025504545744881
7.174559471365639,-0.27311063136798563
7.207929515418503,-0.18399695839196029
7.241299559471366,-0.07342917027889391
7.274669603524229,0.004368986013184881
7.308039647577092,0.0033620102116162934
7.3414096916299565,-0.09152546164578602
7.37477973568282,-0.25460271769951476
7.408149779735683,-0.42734489617224913
7.441519823788546,-0.5399581545830863
7.47488986784141,-0.5363138175929947
7.508259911894274,-0.39143484514973936
7.541629955947137,-0.11551633863529441
7.575,0.25431908438592227
7.608370044052863,0.6676572912896414
7.641740088105728,1.07179818952962
7.675110132158591,1.4158937413396564
7.708480176211454,1.6501826098144945
7.741850220264317,1.7267518157958857
7.775220264317181,1.6076994783216896
7.808590308370045,1.2808812569608197
7.841960352422908,0.7761140466370977
7.875330396475771,0.1708844430624034
7.9087004405286345,-0.4224409048958147
7.942070484581498,-0.8871081477149189
7.975440528634362,-1.1395381094186103
8.008810572687224,-1.158192782745629
8.042180616740088,-0.9907111884934806
8.075550660792953,-0.7355931614732941
8.108920704845815,-0.5058249335612879
8.142290748898679,-0.3892949394597197
8.175660792951541,-0.4213789844970743
8.209030837004406,-0.5789869347699185
8.24240088105727,-0.7959689047344274
8.275770925110132,-0.9915077468653142
8.309140969162996,-1.0993793951434365
8.342511013215859,-1.0876747363555654
8.375881057268723,-0.9640495682877188
8.409251101321587,-0.7676402031800995
8.44262114537445,-0.5526927636556613
8.475991189427313,-0.36983580693481677
8.509361233480176,-0.24990150059584826
8.54273127753304,-0.19399565202631602
8.576101321585904,-0.17272273759044593
8.609471365638766,-0.13608409474609473
8.64284140969163,-0.032377629822840495
8.676211453744493,0.17002148442037607
8.709581497797357,0.4671388018458532
8.742951541850221,0.8179683327161781
8.776321585903084,1.1588958874984687
8.809691629955948,1.4278760578949155
8.84306167400881,1.5871238729571484
8.876431718061674,1.6337427673187206
8.909801762114538,1.5938479452648149
8.9431718061674,1.5040210020078035
8.976541850220265,1.390035647128727
9.009911894273127,1.253733670095587
9.043281938325991,1.0744407352480547
9.076651982378856,0.8238483424907976
9.110022026431718,0.4866694838411332
9.143392070484582,0.07677062008161516
9.176762114537445,-0.35915067678594825
9.210132158590309,-0.7524424818820438
9.243502202643173,-1.033651601368036
9.276872246696035,-1.1555170689819196
9.3102422907489,-1.1089190809062826
9.343612334801762,-0.9260256379971469
9.376982378854626,-0.670070564196176
9.41035242290749,-0.41616089040803395
9.443722466960352,-0.23014809782045614
9.477092511013216,-0.15210950026846057
9.510462555066079,-0.1883539601583136
9.543832599118943,-0.3130308964188006
9.577202643171807,-0.47863576401255026
9.61057268722467,-0.6335113296844422
9.643942731277534,-0.7424125186508893
9.677312775330396,-0.8029983716240182
9.71068281938326,-0.8489495555356436
9.744052863436124,-0.9329882319116923
9.777422907488987,-1.092174201495768
9.81079295154185,-1.3102006276891673
9.844162995594713,-1.4991620670993062
9.877533039647577,-1.518819174533957
9.910903083700441,-1.2336562703474137
9.944273127753304,-0.5852327709734022
9.977643171806168,0.3567861419547714
10.01101321585903,1.3963549608886752
10.044383259911895,2.272791637671745
10.077753303964759,2.758890966722895
10.111123348017621,2.7513315160752883
10.144493392070485,2.3110922132424427
10.177863436123348,1.6349111101597595
10.211233480176212,0.9713130093145208
10.244603524229076,0.519801068185457
10.277973568281938,0.35763757045540717
10.311343612334802,0.42374278083958306
10.344713656387665,0.5620953530352172
10.378083700440529,0.600943382626555
10.411453744493393,0.43065673256599024
10.444823788546255,0.04698468550671288
10.47819383259912,-0.4554507311528071
10.511563876651982,-0.9315716616576143
10.544933920704846,-1.2509112451871873
10.57830396475771,-1.3494843212515597
10.611674008810573,-1.2476984919175815
10.645044052863437,-1.0308689246834022
10.678414096916299,-0.8057679873998638
10.711784140969163,-0.6553878341561646
10.745154185022027,-0.6115978433553328
10.77852422907489,-0.6541314122552347
10.811894273127754,-0.7307809475781996
10.845264317180618,-0.7847592413585753
10.87863436123348,-0.774818910984404
10.912004405286345,-0.6809619332931149
10.945374449339207,-0.4984302900746057
10.978744493392071,-0.22916662470684898
11.012114537444935,0.1204170568615738
11.045484581497798,0.53287237875028
11.078854625550662,0.9697963457504054
11.112224669603524,1.3683332385200095
11.145594713656388,1.6516088409710818
11.178964757709252,1.75270604698615
11.212334801762115,1.6426658580410294
11.245704845814979,1.3482244892225586
11.279074889867841,0.9480949485589997
11.312444933920705,0.5466420154852635
11.34581497797357,0.23550349141706975
11.379185022026432,0.06040567285112014
11.412555066079296,0.008164166144924538
11.445925110132158,0.018909980384957736
11.479295154185023,0.016485419851500545
11.512665198237887,-0.05795302693827897
11.546035242290749,-0.22425750377779974
11.579405286343613,-0.4617710931785838
11.612775330396476,-0.7261032279175967
11.64614537444934,-0.9738588835616205
11.679515418502204,-1.1818592626772217
11.712885462555066,-1.3509355459760037
11.74625550660793,-1.4929829889326078
11.779625550660793,-1.6095037508826417
11.812995594713657,-1.6753066957588878
11.846365638766521,-1.6389851875790744
11.879735682819383,-1.4427664788399033
11.913105726872248,-1.053008302629984
11.94647577092511,-0.4855381390799212
11.979845814977974,0.18833787923516232
12.013215859030838,0.859587516768931
12.0465859030837,1.4151513940762706
12.079955947136565,1.7721845372399054
12.113325991189427,1.8985837553552898
12.146696035242291,1.8138805038502057
12.180066079295155,1.5743527985295158
12.213436123348018,1.251699885676519
12.246806167400882,0.9139006096203691
12.280176211453744,0.6123672703230765
12.313546255506608,0.3753665976176165
12.346916299559473,0.2064285654230241
12.380286343612335,0.08752497737416494
12.413656387665199,-0.012312957025245428
12.447026431718061,-0.1234919316085185
12.480396475770926,-0.2610792675241522
12.51376651982379,-0.41499089635351105
12.547136563876652,-0.5510588794239133
12.580506607929516,-0.6247308477098447
12.613876651982379,-0.6027833830576262
12.647246696035243,-0.4832619633834883
12.680616740088107,-0.30315626829535963
12.71398678414097,-0.1281778679386391
12.747356828193833,-0.027454510045043394
12.780726872246696,-0.04380737358233179
12.81409691629956,-0.17335975272631418
12.847466960352424,-0.36466938400329874
12.880837004405286,-0.5388543092048422
12.91420704845815,-0.6223664491044866
12.947577092511013,-0.5778355194354521
12.980947136563877,-0.41883745765725827
13.014317180616741,-0.2015739033856382
13.047687224669604,0.0028405452334827773
13.081057268722468,0.14249616843116866
13.11442731277533,0.20893556644071767
13.147797356828194,0.23978649470123048
13.181167400881058,0.29832033488576937
13.21453744493392,0.43950824792006477
13.247907488986785,0.6785526269544868
13.281277533039647,0.9766283179976359
13.314647577092511,1.2504460594986813
13.348017621145376,1.401361075464935
13.381387665198238,1.351431894372031
13.414757709251102,1.0718503340337344
13.448127753303964,0.5937349525505178
13.481497797356829,-0.0007412144650895542
13.514867841409693,-0.6018180841005387
13.548237885462555,-1.1016686993874873
13.58160792951542,-1.4215972775211907
13.614977973568282,-1.5305402471733736
13.648348017621146,-1.4506910118843672
13.68171806167401,-1.248288826503267
13.715088105726872,-1.0107473384390293
13.748458149779736,-0.8157390522131518
13.781828193832599,-0.7022852956389427
13.815198237885463,-0.6556306952840959
13.848568281938327,-0.6143478339810412
13.88193832599119,-0.4996539502257002
13.915308370044054,-0.2563916696535824
13.948678414096916,0.11230172284877189
13.98204845814978,0.5342919843828862
14.015418502202644,0.8900626547376043
14.048788546255507,1.0602199067939269
14.08215859030837,0.9791870381697275
14.115528634361233,0.6705759734992262
14.148898678414097,0.24649656080396856
14.182268722466961,-0.1312420051116093
14.215638766519824,-0.3127883795995918
14.249008810572688,-0.21890015774003402
14.28237885462555,0.12817738931866887
14.315748898678414,0.614200069982367
14.349118942731279,1.0779352573922079
14.382488986784141,1.3721411538597748
14.415859030837005,1.4153839062288436
14.449229074889868,1.2150226055369144
14.482599118942732,0.8549727748024977
14.515969162995596,0.4565022852718818
14.549339207048458,0.12998522022814876
14.582709251101322,-0.06308860803907601
14.616079295154185,-0.12485070022875301
14.649449339207049,-0.1099489162736709
14.682819383259913,-0.09599950363659007
14.716189427312775,-0.1489194486953312
14.74955947136564,-0.29673096441499897
14.782929515418502,-0.5207376996010219
14.816299559471366,-0.7656646176544358
14.84966960352423,-0.9632898284275863
14.883039647577093,-1.0596095547181754
14.916409691629957,-1.0349139921310084
14.94977973568282,-0.9093341530152799
14.983149779735683,-0.7322926069744502
15.016519823788547,-0.5607539871863875
15.04988986784141,-0.4357525250409101
15.083259911894274,-0.3674032346800573
15.116629955947138,-0.33487973672653243
15.15,-0.30094564228585513
15.183370044052865,-0.23354487047153508
15.216740088105727,-0.12326712252308869
15.250110132158591,0.012481621872759393
15.283480176211455,0.14066207366576092
15.316850220264318,0.2326693784502875
15.350220264317182,0.2817657529322192
15.383590308370044,0.30789503810294383
15.416960352422908,0.3472118441881955
15.450330396475772,0.43234527330664346
15.483700440528635,0.5742299934606306
15.517070484581499,0.7545963554360721
15.550440528634361,0.931509523210757
15.583810572687225,1.0533173363984418
15.61718061674009,1.0733718862463164
15.650550660792952,0.9600801865968424
15.683920704845816,0.7016931963784456
15.717290748898678,0.30874341622953544
15.750660792951543,-0.18331958960111705
15.784030837004407,-0.7123107737918952
15.817400881057269,-1.192901158332135
15.850770925110133,-1.530378335617336
15.884140969162996,-1.644854181347081
15.91751101321586,-1.4991148662633782
15.950881057268724,-1.1180109266125158
15.984251101321586,-0.587934725827379
16.01762114537445,-0.03261398040464362
16.050991189427315,0.4271602762342553
16.084361233480177,0.7134446761115452
16.11773127753304,0.8134962985487838
16.151101321585905,0.7755091650733118
16.184471365638768,0.6812114776919937
16.21784140969163,0.6088110657105401
16.251211453744492,0.6024188930949087
16.284581497797358,0.6591759317093461
16.31795154185022,0.7365279918647972
16.351321585903083,0.7740562433558875
16.38469162995595,0.7199750225595806
16.41806167400881,0.5523906393156867
16.451431718061674,0.28848053510675
16.48480176211454,-0.020759434099223296
16.518171806167402,-0.3079293681157872
16.551541850220264,-0.5126525844152878
16.584911894273127,-0.6026028496604541
16.618281938325993,-0.584049835758655
16.651651982378855,-0.49730911551650103
16.685022026431717,-0.39837183613900873
16.718392070484583,-0.3340754036197147
16.751762114537446,-0.32154386079525427
16.785132158590308,-0.34123806729865586
16.818502202643174,-0.34703605765857304
16.851872246696036,-0.2890016662294621
16.8852422907489,-0.13873105440523684
16.91861233480176,0.09377177353029005
16.951982378854627,0.35862905091397346
16.98535242290749,0.5802046209621966
17.01872246696035,0.6809593918964224
17.052092511013218,0.6063673074874197
17.08546255506608,0.34293276372154324
17.118832599118942,-0.07561344446969581
17.152202643171808,-0.5751597713363583
17.18557268722467,-1.0590228576872787
17.218942731277533,-1.4320776269925868
17.2523127753304,-1.624821756946719
17.28568281938326,-1.610440668061756
17.319052863436124,-1.4092757267535883
17.352422907488986,-1.0786971143624398
17.385792951541852,-0.6915512605722494
