Time (s),Filtered Signal
0.0,0.02535603904751592
0.03337000366703337,-0.13107300357463209
0.06674000733406674,-0.15483269252752832
0.1001100110011001,0.03076140258315811
0.13348001466813347,0.4150730942062617
0.16685001833516683,0.9079371161853679
0.2002200220022002,1.3805090676253151
0.2335900256692336,1.7186150360078423
0.26696002933626695,1.8637963357762262
0.3003300330033003,1.8252307138880461
0.33370003667033366,1.6610098819264094
0.36707004033736707,1.4416858124954257
0.4004400440044004,1.2156828926788183
0.4338100476714338,0.9928117398200652
0.4671800513384672,0.7514710485799563
0.5005500550055005,0.46297187565546516
0.5339200586725339,0.11853490051965858
0.5672900623395672,-0.25585228307111557
0.6006600660066006,-0.6047103293742226
0.634030069673634,-0.8659431393242466
0.6674000733406673,-0.9996096265783367
0.7007700770077008,-1.0075576115448786
0.7341400806747341,-0.9332210479664695
0.7675100843417675,-0.8409550010993034
0.8008800880088008,-0.7850535285088502
0.8342500916758342,-0.7843119291959189
0.8676200953428675,-0.8152967151219317
0.9009900990099009,-0.8275328295836383
0.9343601026769344,-0.771994299830595
0.9677301063439677,-0.6272984611768612
1.001100110011001,-0.4098804116963199
1.0344701136780343,-0.16394248213279514
1.0678401173450678,0.061632630717115125
1.1012101210121013,0.23563459380057453
1.1345801246791345,0.35408481008510684
1.167950128346168,0.4333258475761296
1.2013201320132012,0.49268365395704167
1.2346901356802347,0.5381963075594667
1.268060139347268,0.5573732155173671
1.3014301430143014,0.5277931341930754
1.3348001466813346,0.4339043284320172
1.368170150348368,0.2814716385827497
1.4015401540154016,0.10042383183878432
1.4349101576824348,-0.06643518303668661
1.4682801613494683,-0.18311705215082988
1.5016501650165015,-0.23766450937470782
1.535020168683535,-0.24693758274301075
1.5683901723505682,-0.2456196949753665
1.6017601760176017,-0.26489194210737294
1.6351301796846351,-0.31242727772040696
1.6685001833516684,-0.365337264033277
1.7018701870187019,-0.3810385329027256
1.735240190685735,-0.3210292910303027
1.7686101943527686,-0.17485412763447264
1.8019801980198018,0.029220525086895207
1.8353502016868353,0.23330916355556905
1.8687202053538687,0.3744696617661855
1.902090209020902,0.4121317816697439
1.9354602126879354,0.3447791784727128
1.9688302163549687,0.20863460950692403
2.002200220022002,0.06060883011739818
2.0355702236890356,-0.04507966745117977
2.0689402273560686,-0.07576038967306373
2.102310231023102,-0.027713515495602126
2.1356802346901356,0.07852692686285036
2.169050238357169,0.2104495849623153
2.2024202420242025,0.33690971194214847
2.2357902456912355,0.43723706067412677
2.269160249358269,0.5037985954524299
2.3025302530253025,0.5387465600466739
2.335900256692336,0.547610186960544
2.369270260359369,0.5329199793067416
2.4026402640264024,0.49050666860462855
2.436010267693436,0.40995392852202345
2.4693802713604693,0.2792154199145501
2.502750275027503,0.09182892989481353
2.536120278694536,-0.1461882893454594
2.5694902823615693,-0.413158817717581
2.6028602860286028,-0.6746140721217001
2.636230289695636,-0.8919130207229463
2.6696002933626692,-1.0332150784066239
2.7029702970297027,-1.081767741317902
2.736340300696736,-1.0377121639278533
2.7697103043637696,-0.9133741305231493
2.803080308030803,-0.72597443228552
2.836450311697836,-0.4930408756480433
2.8698203153648696,-0.233342764506016
2.903190319031903,0.028542651373082296
2.9365603226989365,0.2595007703727007
2.96993032636597,0.4221016478435666
3.003300330033003,0.486474005235293
3.0366703337000365,0.4448077491918899
3.07004033736707,0.32023095767312215
3.1034103410341034,0.16342455438198958
3.1367803447011364,0.036218382791296744
3.17015034836817,-0.011595867370420069
3.2035203520352034,0.03821335500977675
3.236890355702237,0.16585895522038996
3.2702603593692703,0.3234999841375187
3.3036303630363033,0.4569359118754227
3.3370003667033368,0.5284817670244395
3.3703703703703702,0.530048098957185
3.4037403740374037,0.48081958909191735
3.4371103777044367,0.4122089488205496
3.47048038137147,0.34932876378909655
3.5038503850385037,0.29938079503253195
3.537220388705537,0.2525942677303971
3.5705903923725706,0.1936298420225882
3.6039603960396036,0.1153248026143813
3.637330399706637,0.025740871572142752
3.6707004033736705,-0.056010014028814496
3.704070407040704,-0.11261030214530048
3.7374404107077375,-0.14206635523872085
3.7708104143747705,-0.16321661137080198
3.804180418041804,-0.20879319575612662
3.8375504217088374,-0.30844442979537895
3.870920425375871,-0.46984390055470443
3.904290429042904,-0.6677129290950673
3.9376604327099374,-0.8474525747841749
3.971030436376971,-0.9435494083324278
4.004400440044004,-0.90587830810856
4.037770443711038,-0.7226463005266017
4.071140447378071,-0.42924436872046334
4.104510451045105,-0.0979576550252599
4.137880454712137,0.18791516879830994
4.171250458379171,0.3645750203594603
4.204620462046204,0.4096673828132779
4.237990465713238,0.34677210150170856
4.271360469380271,0.23207915165674992
4.304730473047305,0.13084385087253467
4.338100476714338,0.0944002461212535
4.3714704803813715,0.14597764275541694
4.404840484048405,0.27787061121341594
4.438210487715438,0.45753579002844336
4.471580491382471,0.6383218088415208
4.5049504950495045,0.7714393768672306
4.538320498716538,0.8173752463734922
4.571690502383571,0.755516170945783
4.605060506050605,0.5901924347621952
4.638430509717638,0.3509096817074547
4.671800513384672,0.08542992221759275
4.705170517051705,-0.1532987024421901
4.738540520718738,-0.32265382393736525
4.771910524385771,-0.40300814529732504
4.805280528052805,-0.40282793204904377
4.838650531719838,-0.3540931432094505
4.872020535386872,-0.2995502658901999
4.905390539053905,-0.27641433587519293
4.938760542720939,-0.30249211474386567
4.972130546387972,-0.36983916308255527
5.005500550055006,-0.4483620950360316
5.038870553722038,-0.49818319214380097
5.072240557389072,-0.48629379135722794
5.105610561056105,-0.40117769307699
5.138980564723139,-0.25945321021429507
5.172350568390172,-0.10124884037255402
5.2057205720572055,0.024736154066710578
5.239090575724239,0.08115430901223103
5.272460579391272,0.05882047690082297
5.305830583058306,-0.017332973532406447
5.3392005867253385,-0.09697170636884296
5.372570590392372,-0.12524042100057156
5.405940594059405,-0.067306124755707
5.439310597726439,0.07450005788193692
5.472680601393472,0.25935401683008574
5.506050605060506,0.423810851160384
5.539420608727539,0.5081787318480623
5.572790612394573,0.4816469308778523
5.606160616061606,0.355051145531483
5.63953061972864,0.17612354514124767
5.672900623395672,0.010196580389167792
5.706270627062706,-0.08458934981224385
5.739640630729739,-0.07728398433660896
5.773010634396773,0.02745024921839121
5.806380638063806,0.1935954789410069
5.83975064173084,0.3671363857976843
5.873120645397873,0.49302530851750476
5.9064906490649065,0.5308180595665704
5.93986065273194,0.46554990702229215
5.9732306563989725,0.3116337793584387
6.006600660066006,0.10846262562260525
6.0399706637330395,-0.09211875901183533
6.073340667400073,-0.24364409558396982
6.106710671067106,-0.3222389621431291
6.14008067473414,-0.33578862345675414
6.173450678401173,-0.3196391339590275
6.206820682068207,-0.3190926660583851
6.24019068573524,-0.36591054406743206
6.273560689402273,-0.4602741936947554
6.306930693069306,-0.5680526888147365
6.34030069673634,-0.6358840935611932
6.373670700403373,-0.6172332297743697
6.407040704070407,-0.49649412785738367
6.44041070773744,-0.2988494376967266
6.473780711404474,-0.08060600890504915
6.507150715071507,0.09569003751133907
6.540520718738541,0.18970325268303256
6.573890722405573,0.20187681126825913
6.607260726072607,0.17304184010131637
6.64063072973964,0.16453027367378886
6.6740007334066735,0.22731103221238005
6.707370737073707,0.37426866590072455
6.7407407407407405,0.5691196565253702
6.774110744407774,0.7384159120124475
6.807480748074807,0.8024441420065437
6.840850751741841,0.7114759923416504
6.8742207554088735,0.4704850140938739
6.907590759075907,0.14022591781928556
6.94096076274294,-0.18644951570975105
6.974330766409974,-0.4222857323577959
7.007700770077007,-0.5198569590696671
7.041070773744041,-0.4868557464411244
7.074440777411074,-0.3765659302239038
7.107810781078108,-0.2597555422935934
7.141180784745141,-0.19252031039451384
7.174550788412174,-0.1951324953828711
7.207920792079207,-0.25007037169208096
7.241290795746241,-0.3172778769741272
7.274660799413274,-0.3567747627185235
7.308030803080308,-0.3467635683612246
7.341400806747341,-0.2895781241507405
7.3747708104143745,-0.205091476407194
7.408140814081408,-0.117263572633311
7.4415108177484415,-0.04150428660010212
7.474880821415475,0.021609204773471346
7.5082508250825075,0.08486430447066301
7.541620828749541,0.16738335109154157
7.5749908324165744,0.28574346316023924
7.608360836083608,0.44642329278965126
7.641730839750641,0.6412407590486708
7.675100843417675,0.8462198783139928
7.708470847084708,1.0239969249642373
7.741840850751742,1.1300438905163157
7.775210854418775,1.1226763670451099
7.808580858085808,0.9754388368759084
7.841950861752841,0.6884969645729563
7.875320865419875,0.29442794497764313
7.908690869086908,-0.14546585641750487
7.942060872753942,-0.5551889372971712
7.975430876420975,-0.8649972972264859
8.008800880088009,-1.032143441865447
8.042170883755041,-1.0532747737486732
8.075540887422076,-0.9629957362916415
8.108910891089108,-0.8187091421921523
8.142280894756142,-0.677918020415467
8.175650898423175,-0.5776304477739952
8.20902090209021,-0.5244564660021291
8.242390905757242,-0.4988570794939048
8.275760909424275,-0.47038946980262697
8.309130913091309,-0.41595632568084906
8.342500916758341,-0.3321993772628261
8.375870920425376,-0.23642438333571905
8.409240924092408,-0.15610615069980266
8.442610927759443,-0.11249579523635721
8.475980931426475,-0.1067232239172114
8.50935093509351,-0.11572583268298149
8.542720938760542,-0.10067514992088707
8.576090942427575,-0.02436468180393079
8.60946094609461,0.13071451933949044
8.642830949761642,0.35259317930595346
8.676200953428676,0.6033792963061528
8.709570957095709,0.8344726820125574
8.742940960762743,1.0057873645690776
8.776310964429776,1.0993767903040639
8.80968096809681,1.1210661347464699
8.843050971763843,1.0903206093921731
8.876420975430875,1.0248970978466054
8.90979097909791,0.9293017256896099
8.943160982764942,0.7934527873280616
8.976530986431976,0.6019302120895448
9.009900990099009,0.34828617933410005
9.043270993766043,0.046272917624464054
9.076640997433076,-0.2683487798824647
9.11001100110011,-0.5468007466469655
9.143381004767143,-0.7431266927558348
9.176751008434175,-0.8299213965613605
9.21012101210121,-0.8075390582940207
9.243491015768242,-0.7037015244628857
9.276861019435277,-0.564456812524449
9.31023102310231,-0.44020696390533703
9.343601026769344,-0.3713189098862486
9.376971030436376,-0.3771747248895609
9.41034103410341,-0.45127437781331525
9.443711037770443,-0.5635963362121332
9.477081041437476,-0.6697894770594418
9.51045104510451,-0.7248819436304371
9.543821048771543,-0.6974744139699851
9.577191052438577,-0.5796741244427798
9.61056105610561,-0.38907083075152304
9.643931059772644,-0.16187262901866878
9.677301063439677,0.06012463514040134
9.710671067106711,0.24345810704061283
9.744041070773743,0.372264738258941
9.777411074440776,0.44960913264213065
9.81078107810781,0.49124295769145976
9.844151081774843,0.515425439239382
9.877521085441877,0.5337964569880411
9.91089108910891,0.5472576507128241
9.944261092775944,0.5480521194895944
9.977631096442977,0.5261944891838741
10.011001100110011,0.47657877896208795
10.044371103777044,0.40324014210111425
10.077741107444076,0.3190319561116265
10.11111111111111,0.24125559244454609
10.144481114778143,0.18536121477677375
10.177851118445178,0.15919643554784696
10.21122112211221,0.1596687557105051
10.244591125779245,0.17271494419458785
10.277961129446277,0.17658184616548547
10.311331133113312,0.1477112245011694
10.344701136780344,0.06790120243307234
10.378071140447377,-0.06909485567910312
10.411441144114411,-0.2535602066115518
10.444811147781444,-0.4600274550799772
10.478181151448478,-0.6522699409883813
10.51155115511551,-0.792098507140677
10.544921158782545,-0.8494996697000259
10.578291162449577,-0.8108447276518441
10.611661166116612,-0.682299645800636
10.645031169783644,-0.48722772912883305
10.678401173450677,-0.25868603244388844
10.711771177117711,-0.029994332774434057
10.745141180784744,0.17313657372349217
10.778511184451778,0.33649848917071773
10.81188118811881,0.456868439475122
10.845251191785845,0.538454044966212
10.878621195452878,0.5884360858690756
10.911991199119912,0.6133066588678644
10.945361202786945,0.6166523200869735
10.978731206453979,0.5982231307243235
11.012101210121012,0.5540356371451501
11.045471213788044,0.477636054955578
11.078841217455079,0.3628008025151359
11.112211221122111,0.207394459315601
11.145581224789145,0.017085393117916972
11.178951228456178,-0.19301036212843112
11.212321232123212,-0.400162882160097
11.245691235790245,-0.5791166708640982
11.27906123945728,-0.7084351761300846
11.312431243124312,-0.7753774774274702
11.345801246791344,-0.7774232221999694
11.379171250458379,-0.7204142470122715
11.412541254125411,-0.6149510346122499
11.445911257792446,-0.47318780395576937
11.479281261459478,-0.3073688954282282
11.512651265126513,-0.13003739096016936
11.546021268793545,0.04519564751398213
11.57939127246058,0.20353226291461643
11.612761276127612,0.330056437055897
11.646131279794645,0.41176121644982405
11.67950128346168,0.44002465772606125
11.712871287128712,0.4132236053779441
11.746241290795746,0.33929859470842144
11.779611294462779,0.23760956172042902
11.812981298129813,0.13849528957562776
11.846351301796846,0.07849465486375179
11.87972130546388,0.0902581778482963
11.913091309130913,0.18895356153087978
11.946461312797945,0.3602324462931226
11.97983131646498,0.556469905547998
12.013201320132012,0.706283422878174
12.046571323799046,0.7371484300146416
12.079941327466079,0.6041709459045224
12.113311331133113,0.3131325904133562
12.146681334800146,-0.07395390978481685
12.18005133846718,-0.45621229932735663
12.213421342134213,-0.7293294177529406
12.246791345801245,-0.8248986582659719
12.28016134946828,-0.7364576200903944
12.313531353135312,-0.5203620091964445
12.346901356802347,-0.27112466632406207
12.38027136046938,-0.08263946388309702
12.413641364136414,-0.012732955232609961
12.447011367803446,-0.06582988776635451
12.48038137147048,-0.19896402618473566
12.513751375137513,-0.34523867627372
12.547121378804546,-0.44194108972197405
12.58049138247158,-0.4508893712501354
12.613861386138613,-0.36497860939105986
12.647231389805647,-0.20277794467010155
12.68060139347268,0.0023053514931904947
12.713971397139714,0.21221870505516177
12.747341400806746,0.3914647486854784
12.78071140447378,0.5123167045814772
12.814081408140813,0.5595444816173492
12.847451411807846,0.534150982400847
12.88082141547488,0.45365280874976727
12.914191419141913,0.3468250609739296
12.947561422808947,0.24374735452981144
12.98093142647598,0.16534550033645795
13.014301430143014,0.11769936002676688
13.047671433810047,0.09397338069795351
13.081041437477081,0.0822731927816056
13.114411441144114,0.07410199012709653
13.147781444811146,0.06797943678601924
13.18115144847818,0.0663758609089838
13.214521452145213,0.0689323834776269
13.247891455812248,0.06758493925929931
13.28126145947928,0.04783006544840739
13.314631463146315,-0.004011780877927796
13.348001466813347,-0.09195369589433669
13.381371470480381,-0.20558816288254161
13.414741474147414,-0.3226023449347015
13.448111477814447,-0.41734456704855233
13.481481481481481,-0.47083203004083385
13.514851485148514,-0.47719003201935545
13.548221488815548,-0.44397689940312074
13.58159149248258,-0.3873154636649304
13.614961496149615,-0.3250779270296496
13.648331499816647,-0.27148367965185527
13.681701503483682,-0.23476867761176728
13.715071507150714,-0.21740733186562025
13.748441510817747,-0.21708379429534516
13.781811514484781,-0.2268759693344392
13.815181518151814,-0.23457499841012858
13.848551521818848,-0.2226027266328628
13.88192152548588,-0.17044396949672705
13.915291529152915,-0.06040184818652902
13.948661532819948,0.11465525011299785
13.982031536486982,0.34480034099108864
14.015401540154015,0.6014668554342977
14.048771543821047,0.8428134863216405
14.082141547488082,1.0250039267944617
14.115511551155114,1.115382457461249
14.148881554822148,1.1022437780249736
14.182251558489181,0.9971204902623819
14.215621562156215,0.8287301915560199
14.248991565823248,0.6313743411127613
14.282361569490282,0.4328983027642179
14.315731573157315,0.24725512375246086
14.349101576824348,0.07440119314750755
14.382471580491382,-0.09317121786174709
14.415841584158414,-0.26097840349619633
14.449211587825449,-0.4252376086590076
14.482581591492481,-0.5718504351502263
14.515951595159516,-0.6828102073099503
14.549321598826548,-0.7471833467266871
14.582691602493583,-0.7706853196980932
14.616061606160615,-0.7774598798618467
14.649431609827648,-0.8008289691417074
14.682801613494682,-0.8655127496194769
14.716171617161715,-0.96936695552456
14.749541620828749,-1.074801828322079
14.782911624495782,-1.1168770572304314
14.816281628162816,-1.0274855457498873
14.849651631829849,-0.7665301460763715
14.883021635496883,-0.3460109783911779
14.916391639163916,0.16544525195381424
14.94976164283095,0.6619626705270865
14.983131646497982,1.0369621495892263
15.016501650165015,1.2215208257387384
15.04987165383205,1.2076428898053042
15.083241657499082,1.0462597452379412
15.116611661166116,0.821646093279397
15.149981664833149,0.6149538980027028
15.183351668500183,0.47403115184432204
15.216721672167216,0.4024060957990971
15.25009167583425,0.36985688864058797
15.283461679501283,0.3362029210511089
15.316831683168315,0.2745485464228455
15.35020168683535,0.18251893914412942
15.383571690502382,0.07797592062303559
15.416941694169417,-0.01561098176122687
15.45031169783645,-0.08425806502946297
15.483681701503484,-0.13043017255029715
15.517051705170516,-0.16908450124191537
15.55042170883755,-0.21657649104087595
15.583791712504583,-0.27978097663940404
15.617161716171616,-0.3517016261300552
15.65053171983865,-0.41531107715320525
15.683901723505683,-0.4524711615664598
15.717271727172717,-0.4524618265823142
15.75064173083975,-0.4158876720344296
15.784011734506784,-0.35316377250391295
15.817381738173816,-0.2798434353413476
15.85075174184085,-0.21183699939340028
15.884121745507883,-0.16207343009257133
15.917491749174916,-0.1380561317566342
15.95086175284195,-0.13903654279145905
15.984231756508983,-0.15289831807455634
16.017601760176017,-0.1551629473883372
16.05097176384305,-0.113522587307004
16.084341767510082,0.0007016403716075869
16.117711771177117,0.19729811213729154
16.15108177484415,0.45542926223811453
16.184451778511182,0.7232138297465873
16.217821782178216,0.9317327585804945
16.25119178584525,1.018871137155298
16.284561789512285,0.9523511494465148
16.317931793179316,0.740960971791341
16.35130179684635,0.4289387682326468
16.384671800513384,0.07729775823760203
16.41804180418042,-0.25767725237454286
16.45141180784745,-0.5381756828654135
16.484781811514484,-0.7459103081419062
16.51815181518152,-0.8735314161168618
16.55152181884855,-0.9149437433572175
16.584891822515583,-0.8627936832844364
16.618261826182618,-0.7156341802652406
16.651631829849652,-0.48964391796822504
16.685001833516683,-0.22524366628972733
16.718371837183717,0.01916746925497266
16.75174184085075,0.18649906342567094
16.785111844517782,0.24463511822726766
16.818481848184817,0.20165669401174566
16.85185185185185,0.10330250169673459
16.885221855518886,0.012713527497948162
16.918591859185916,-0.01783874880197505
16.95196186285295,0.030709511149989325
16.985331866519985,0.13833945706210318
17.01870187018702,0.25827264988594806
17.05207187385405,0.34020468771234985
17.085441877521085,0.3526901441076857
17.11881188118812,0.2947610290300861
17.15218188485515,0.19316214342613047
17.185551888522184,0.08846868220875637
17.21892189218922,0.017449100052678728
17.252291895856253,-0.0007772063812686374
17.285661899523284,0.030059210647741082
17.319031903190318,0.08785857330012137
