Frequency (Hz),Amplitude
0.0,4.458842873536105
0.019867549668874173,4.456788642462059
0.039735099337748346,4.450628376599593
0.059602649006622516,4.440369359659078
0.07947019867549669,4.426023736671009
0.09933774834437085,4.40760852252252
0.11920529801324503,4.385145614449855
0.13907284768211922,4.358661809048106
0.15894039735099338,4.32818882454915
0.17880794701986755,4.293763329331389
0.1986754966887417,4.255426977869948
0.2185430463576159,4.213226455619347
0.23841059602649006,4.167213534655871
0.2582781456953642,4.117445142305047
0.27814569536423844,4.063983445458224
0.2980132450331126,4.006895953862107
0.31788079470198677,3.946255646370621
0.33774834437086093,3.8821411250149436
0.3576158940397351,3.8146368028146265
0.3774834437086093,3.7438331325758867
0.3973509933774834,3.6698268855705467
0.4172185430463576,3.592721491050022
0.4370860927152318,3.5126274501387016
0.45695364238410596,3.4296628409189465
0.4768211920529801,3.3439539356597034
0.49668874172185434,3.255635956403931
0.5165562913907285,3.1648540018429365
0.5364238410596026,3.071764186988953
0.5562913907284769,2.9765350481526167
0.5761589403973509,2.879349279823939
0.5960264900662252,2.780405888097606
0.6158940397350993,2.6799228683027456
0.6357615894039735,2.5781405436605134
0.6556291390728477,2.4753257382790297
0.6754966887417219,2.371777002479124
0.695364238410596,2.2678311611924373
0.7152317880794702,2.1638715144174356
0.7350993377483444,2.0603380746751876
0.7549668874172186,1.9577402619109288
0.7748344370860927,1.8566724536457162
0.7947019867549668,1.7578326349814881
0.8145695364238411,1.6620439795762405
0.8344370860927152,1.5702783050923779
0.8543046357615894,1.4836786742467667
0.8741721854304636,1.4035756046860484
0.8940397350993378,1.331487263929519
0.9139072847682119,1.2690893395619038
0.9337748344370861,1.2181375157571248
0.9536423841059603,1.1803297472315726
0.9735099337748344,1.1571127001223354
0.9933774834437087,1.1494668660021317
1.0132450331125828,1.1577337003198738
1.033112582781457,1.1815502435070944
1.0529801324503312,1.2199188496078979
1.0728476821192052,1.271382580888146
1.0927152317880795,1.3342402237507336
1.1125827814569538,1.4067382757836708
1.1324503311258278,1.4872065371878977
1.1523178807947019,1.5741337646519755
1.1721854304635762,1.6661965175024864
1.1920529801324504,1.7622582414597459
1.2119205298013245,1.8613527435893165
1.2317880794701985,1.9626615215989507
1.2516556291390728,2.065490365584113
1.271523178807947,2.1692478872383303
1.2913907284768211,2.273426992480152
1.3112582781456954,2.377589446783262
1.3311258278145695,2.4813532808282397
1.3509933774834437,2.584382636965532
1.370860927152318,2.686379637126387
1.390728476821192,2.7870778893735038
1.410596026490066,2.8862373064358287
1.4304635761589404,2.983639967636246
1.4503311258278146,3.0790868080561373
1.4701986754966887,3.172394963132942
1.4900662251655628,3.2633956330719336
1.5099337748344372,3.351932360362281
1.5298013245033113,3.4378596364996987
1.5496688741721854,3.521041771895966
1.5695364238410596,3.6013519769188522
1.5894039735099337,3.6786716129007315
1.609271523178808,3.7528895804599745
1.6291390728476822,3.8239018191321605
1.6490066225165563,3.891610897524296
1.6688741721854303,3.9559256773095828
1.6887417218543048,4.016761037619693
1.7086092715231789,4.074037648959599
1.728476821192053,4.127681787813941
1.7483443708609272,4.177625184747736
1.7682119205298013,4.223804900116591
1.7880794701986755,4.266163222560305
1.8079470198675496,4.304647586313082
1.8278145695364238,4.3392105040638755
1.847682119205298,4.369809512675399
1.8675496688741722,4.3964071295450236
1.8874172185430464,4.4189708177863825
1.9072847682119205,4.437472958741696
1.9271523178807946,4.4518908306173515
1.9470198675496688,4.462206592276514
1.9668874172185429,4.468407271434163
1.9867549668874174,4.470484756687267
2.0066225165562916,4.4684357929830405
2.0264900662251657,4.462261980286421
2.0463576158940397,4.451969775359139
2.066225165562914,4.437570496711445
2.086092715231788,4.419080332938595
2.1059602649006623,4.396520354811484
2.1258278145695364,4.369916531660368
2.1456953642384105,4.339299752776375
2.165562913907285,4.304705854765457
2.185430463576159,4.266175656029079
2.205298013245033,4.223754999825641
2.2251655629139075,4.17749480769588
2.2450331125827816,4.12745114542804
2.2649006622516556,4.073685304211041
2.2847682119205297,4.01626390019593
2.3046357615894038,3.9552589963850946
2.324503311258278,3.8907482516265888
2.3443708609271523,3.822815102551471
2.364238410596027,3.7515489856087796
2.384105960264901,3.6770456079964497
2.403973509933775,3.599407278348179
2.423841059602649,3.518743310634438
2.443708609271523,3.43517051802491
2.463576158940397,3.348813817640529
2.4834437086092715,3.2598069724606473
2.5033112582781456,3.1682935034877695
2.52317880794702,3.0744278140592485
2.543046357615894,2.9783765795157158
2.562913907284768,2.8803204700417586
2.5827814569536423,2.7804562933402908
2.6026490066225163,2.678999668069384
2.622516556291391,2.576188370062285
2.642384105960265,2.4722865328014163
2.662251655629139,2.3675899328276073
2.6821192052980134,2.262432650369939
2.7019867549668874,2.157195463976676
2.7218543046357615,2.0523164089091344
2.741721854304636,1.9483039858808002
2.76158940397351,1.845753512672981
2.781456953642384,1.7453669924557556
2.801324503311258,1.6479764916162656
2.821192052980132,1.5545701396700267
2.8410596026490067,1.4663181213427556
2.8609271523178808,1.3845929770843166
2.8807947019867552,1.3109738784424334
2.9006622516556293,1.2472188785144263
2.9205298013245033,1.1951851810031504
2.9403973509933774,1.156681234804565
2.9602649006622515,1.1332535403688422
2.9801324503311255,1.1259465455852056
3.0,1.1351092074914813
3.0198675496688745,1.1603249640851243
3.0397350993377485,1.2004961238146192
3.0596026490066226,1.2540453941077938
3.0794701986754967,1.3191559551760583
3.0993377483443707,1.393979125606938
3.119205298013245,1.4767751853320314
3.1390728476821192,1.5659871530001088
3.1589403973509933,1.6602646181529788
3.1788079470198674,1.7584573823805603
3.198675496688742,1.8595943374636679
3.218543046357616,1.9628573787866619
3.23841059602649,2.0675556637176626
3.2582781456953644,2.173102622984181
3.2781456953642385,2.2789964967454246
3.2980132450331126,2.3848043504284915
3.3178807947019866,2.490149178612027
3.3377483443708607,2.5946996032030705
3.3576158940397347,2.6981616851571864
3.3774834437086096,2.800272428008108
3.3973509933774837,2.9007946224024437
3.4172185430463577,2.99951274837972
3.437086092715232,3.0962297105481635
3.456953642384106,3.190764229368971
3.47682119205298,3.282948750219148
3.4966887417218544,3.372627762180458
3.5165562913907285,3.4596564421217275
3.5364238410596025,3.5438995579803887
3.556291390728477,3.6252305793632438
3.576158940397351,3.703530954603898
3.596026490066225,3.77868952196966
3.615894039735099,3.850602029368935
3.6357615894039736,3.919170742110194
3.6556291390728477,3.9843041223387927
3.6754966887417218,4.045916566984941
3.695364238410596,4.103928193590477
3.7152317880794703,4.1582646653943725
3.7350993377483444,4.208857048661138
3.754966887417219,4.255641696522469
3.774834437086093,4.298560154638185
3.794701986754967,4.337559084820753
3.814569536423841,4.372590203450891
3.834437086092715,4.4036102320706325
3.854304635761589,4.430580858001592
3.8741721854304636,4.453468703219619
3.8940397350993377,4.472245300038152
3.9139072847682117,4.486887072424875
3.9337748344370858,4.497375322009914
3.9536423841059607,4.503696218047041
3.9735099337748347,4.505840790769561
3.993377483443709,4.503804927745987
4.013245033112583,4.497589372991661
4.033112582781457,4.487199728737421
4.052980132450331,4.472646459897762
4.072847682119205,4.453944901424728
4.0927152317880795,4.431115268883822
4.112582781456953,4.404182672748618
4.132450331125828,4.373177137087865
4.152317880794702,4.338133623518176
4.172185430463576,4.29909206152346
4.19205298013245,4.256097386508871
4.211920529801325,4.209199587271051
4.231788079470199,4.158453764942311
4.251655629139073,4.1039202059187145
4.271523178807947,4.045664471832724
4.291390728476821,3.9837575103042444
4.311258278145695,3.918275791034772
4.33112582781457,3.849301472838217
4.3509933774834435,3.776922608485633
4.370860927152318,3.7012333958505135
4.390728476821192,3.6223344858689086
4.410596026490066,3.540333360398687
4.43046357615894,3.455344796333761
4.450331125827815,3.3674914365159236
4.470198675496689,3.2769044933707265
4.490066225165563,3.183724618147419
4.509933774834438,3.0881029776638442
4.529801324503311,2.9902025922035516
4.549668874172186,2.8902000035553934
4.569536423841059,2.7882873622687727
4.589403973509934,2.6846750495015015
4.6092715231788075,2.579594983234746
4.629139072847682,2.473304803394954
4.649006622516556,2.3660931881049687
4.66887417218543,2.258286626279118
4.688741721854305,2.1502580612015083
4.708609271523179,2.042437922927913
4.728476821192054,1.9353281726045053
4.748344370860927,1.829520057762262
4.768211920529802,1.7257162534399435
4.788079470198675,1.6247577942050586
4.80794701986755,1.527655412438535
4.827814569536423,1.435623120549003
4.847682119205298,1.3501084293452452
4.867549668874172,1.2728077986241288
4.887417218543046,1.2056479037454526
4.9072847682119205,1.150705909387358
4.927152317880794,1.1100431378365139
4.947019867549669,1.0854486093697338
4.966887417218543,1.078137434134098
4.986754966887418,1.0885025574998384
5.006622516556291,1.1160275174762722
5.026490066225166,1.159402711869415
5.04635761589404,1.2167887948127791
5.066225165562914,1.2861162863186868
5.086092715231788,1.3653295862970178
5.105960264900662,1.4525390618758123
5.125827814569536,1.5460898036104307
5.14569536423841,1.6445738001021155
5.1655629139072845,1.7468114421380516
5.185430463576159,1.8518204426332439
5.205298013245033,1.9587825177411924
5.225165562913908,2.0670127751347938
5.245033112582782,2.175933618040602
5.264900662251656,2.285053386676456
5.28476821192053,2.3939492723206954
5.304635761589404,2.50225381945136
5.324503311258278,2.6096443282770228
5.344370860927152,2.715834552689978
5.364238410596027,2.8205681942003604
5.3841059602649,2.9236137933742175
5.403973509933775,3.0247607068307367
5.4238410596026485,3.12381592808342
5.443708609271523,3.2206015658391647
5.463576158940397,3.3149528362368197
5.483443708609272,3.406716458421203
5.503311258278146,3.4957493680126848
5.52317880794702,3.5819176822476306
5.543046357615895,3.6650958652511347
5.562913907284768,3.745166053152333
5.582781456953643,3.822017507397217
5.602649006622516,3.895546171282202
5.622516556291391,3.9656543098981216
5.642384105960264,4.032250217694912
5.662251655629139,4.095247981022073
5.682119205298013,4.154567285470842
5.701986754966887,4.210133259796089
5.7218543046357615,4.261876349745502
5.741721854304636,4.309732216360059
5.7615894039735105,4.353641654302125
5.781456953642384,4.393550526567915
5.801324503311259,4.429409712590551
5.821192052980132,4.461175067270423
5.841059602649007,4.488807388905524
5.860927152317881,4.512272394355949
5.880794701986755,4.531540700078669
5.900662251655629,4.546587807923699
5.920529801324503,4.557394094801172
5.940397350993377,4.56394480551785
5.960264900662251,4.566230048249224
5.980132450331126,4.564244792263904
6.0,4.557988867656722
6.0198675496688745,4.547466966979685
6.039735099337749,4.53268864878926
6.059602649006623,4.513668343260038
6.079470198675497,4.490425360150955
6.099337748344371,4.462983899556404
6.119205298013245,4.4313730660355
6.139072847682119,4.395626886893654
6.158940397350993,4.355784335598428
6.178807947019867,4.311889361554064
6.198675496688741,4.263990927746376
6.218543046357616,4.212143058113069
6.23841059602649,4.156404896910257
6.258278145695365,4.096840782853308
6.2781456953642385,4.033520341432783
6.298013245033113,3.966518599578081
6.317880794701987,3.895916127802211
6.337748344370861,3.8217992161657657
6.357615894039735,3.7442600919174382
6.377483443708609,3.6633971885957988
6.397350993377484,3.5793154788359
6.417218543046357,3.4921268862808104
6.437086092715232,3.4019507960727466
6.456953642384105,3.308914688689696
6.47682119205298,3.2131549288039083
6.496688741721854,3.1148177499157845
6.516556291390729,3.014060487505717
6.5364238410596025,2.911053129363208
6.556291390728477,2.805980272982798
6.5761589403973515,2.6990436083443012
6.596026490066225,2.5904650825576123
6.6158940397351,2.4804909541231357
6.635761589403973,2.3693970132843343
6.655629139072848,2.257495336448942
6.675496688741721,2.145143062744802
6.695364238410596,2.032753834156424
6.715231788079469,1.9208127266857196
6.735099337748344,1.809895702594671
6.754966887417219,1.7006947799607686
6.774834437086093,1.5940501110263392
6.794701986754967,1.4909896856278435
6.814569536423841,1.3927758281392664
6.8344370860927155,1.3009539647003232
6.854304635761589,1.217391755534815
6.874172185430464,1.1442843643013212
6.894039735099337,1.0840862327021825
6.913907284768212,1.0393218946079692
6.933774834437086,1.01225136707688
6.95364238410596,1.0044406789025877
6.973509933774834,1.0163895845492859
6.993377483443709,1.047400986477662
7.013245033112583,1.0957658982345402
7.033112582781457,1.159160133271597
7.052980132450331,1.235064248775641
7.072847682119205,1.3210718797043606
7.0927152317880795,1.4150535330639036
7.112582781456954,1.5152080004458663
7.132450331125828,1.6200487347027557
7.152317880794702,1.7283619570469386
7.172185430463576,1.839158035806791
7.19205298013245,1.9516263184202685
7.211920529801324,2.065097039449681
7.231788079470198,2.179010742068382
7.251655629139073,2.2928943648272435
7.271523178807947,2.4063427887942623
7.291390728476822,2.5190046804496413
7.311258278145695,2.630571643239539
7.33112582781457,2.7407698909860723
7.3509933774834435,2.849353835621655
7.370860927152318,2.9561011278592746
7.390728476821192,3.0608088031742318
7.410596026490066,3.1632902718949985
7.430463576158941,3.26337295702535
7.450331125827814,3.360896431759894
7.470198675496689,3.4557109446436267
7.490066225165562,3.547676247149264
7.509933774834438,3.6366606584942684
7.52980132450331,3.7225403175644978
7.549668874172186,3.8051985831553465
7.569536423841059,3.8845255523401216
7.589403973509934,3.960417673328279
7.6092715231788075,4.0327774341996205
7.629139072847682,4.101513112773344
7.649006622516557,4.166538575873078
7.66887417218543,4.22777311859151
7.6887417218543055,4.285141335994694
7.708609271523178,4.33857302115553
7.728476821192054,4.3880030845555975
7.748344370860927,4.433371490812286
7.768211920529802,4.474623209424755
7.788079470198675,4.51170817682727
7.80794701986755,4.544581267522439
7.827814569536423,4.573202272462742
7.847682119205298,4.597535883175775
7.8675496688741715,4.617551680400469
7.887417218543046,4.633224126230539
7.907284768211921,4.64453255895628
7.927152317880795,4.651461189963799
7.9470198675496695,4.653999102199192
7.966887417218543,4.652140249837321
7.986754966887418,4.645883458917341
8.006622516556291,4.6352324288223175
8.026490066225167,4.620195734592341
8.046357615894038,4.600786830173415
8.066225165562914,4.57702405282138
8.086092715231787,4.548930629004504
8.105960264900663,4.516534682285834
8.125827814569536,4.479869243819778
8.14569536423841,4.438972266274639
8.165562913907285,4.393886642198795
8.185430463576159,4.34466022809325
8.205298013245034,4.291345875746905
8.225165562913906,4.234001472747173
8.245033112582782,4.1726899945151015
8.264900662251655,4.107479570752316
8.28476821192053,4.038443569857415
8.304635761589404,3.965660705708182
8.324503311258278,3.88921517226438
8.344370860927151,3.8091968127889086
8.364238410596027,3.725701332202608
8.3841059602649,3.63883056329569
8.403973509933774,3.548692800379988
8.42384105960265,3.4554032176961123
8.443708609271523,3.359084394788138
8.463576158940398,3.259866977537395
8.483443708609272,3.1578905121787075
8.503311258278146,3.0533045012071334
8.52317880794702,2.9462697457482028
8.543046357615895,2.8369600603027108
8.562913907284768,2.725564475053365
8.582781456953642,2.612290081362572
8.602649006622515,2.497365732296315
8.62251655629139,2.381046888501986
8.642384105960264,2.2636220096952133
8.66225165562914,2.1454210458889196
8.682119205298013,2.026826796628803
8.701986754966887,1.9082901999699615
8.721854304635762,1.7903510023404718
8.741721854304636,1.6736657434380091
8.76158940397351,1.5590455019470268
8.781456953642383,1.4475061555740576
8.801324503311259,1.3403333815359009
8.821192052980132,1.2391617854514352
8.841059602649008,1.1460594210597084
8.86092715231788,1.063590830738671
8.880794701986755,0.9947999428408791
8.90066225165563,0.9430178597404302
8.920529801324504,0.91140386013859
8.940397350993377,0.9022473611627224
8.960264900662251,0.9162957050934089
8.980132450331126,0.9525066004995292
9.0,1.00839801449125
9.019867549668875,1.0807538081480594
9.039735099337747,1.1662885924949147
9.059602649006623,1.262053324369592
9.079470198675496,1.3655872930485518
9.099337748344372,1.474914872386776
9.119205298013245,1.588475981911996
9.139072847682119,1.7050419212162424
9.158940397350994,1.8236390553786557
9.178807947019868,1.9434870020693051
9.198675496688743,2.0639511535857076
9.218543046357615,2.184507126258448
9.23841059602649,2.304714428573641
9.258278145695364,2.4241970093791307
9.27814569536424,2.5426288589558266
9.298013245033111,2.659723299667879
9.317880794701987,2.7752249711449153
9.33774834437086,2.8889037904845334
9.357615894039736,3.0005503683491983
9.37748344370861,3.109972505653926
9.397350993377483,3.21699249827678
9.417218543046358,3.3214450506267053
9.437086092715232,3.4231756515175413
9.456953642384107,3.5220393037027375
9.47682119205298,3.6178995259043973
9.496688741721854,3.71062756622793
9.516556291390728,3.80010178060056
9.536423841059603,3.886207140794321
9.556291390728477,3.9688348447441992
9.57615894039735,4.047882007998095
9.596026490066224,4.12325141977345
9.6158940397351,4.194851350631428
9.635761589403973,4.262595401494933
9.655629139072847,4.32640238583504
9.675496688741722,4.38619623848317
9.695364238410596,4.441905945805167
9.715231788079471,4.493465492980747
9.735099337748345,4.540813824931107
9.754966887417218,4.583894818075347
9.774834437086092,4.622657260608569
9.794701986754967,4.657054839409337
9.814569536423841,4.687046132021273
9.834437086092716,4.7125946024313095
9.854304635761588,4.733668599596432
9.874172185430464,4.750241357862796
9.894039735099337,4.762290998583988
9.913907284768213,4.769800532384612
9.933774834437086,4.772757861637318
9.95364238410596,4.771155782829934
9.973509933774835,4.764991988598374
9.993377483443709,4.75426906929352
10.013245033112582,4.7389945140396135
10.033112582781456,4.719180711330658
10.052980132450331,4.694844949302652
10.072847682119205,4.666009415916201
10.09271523178808,4.63270119938961
10.112582781456952,4.594952289340986
10.132450331125828,4.552799579232694
10.152317880794701,4.50628487086957
10.172185430463577,4.455454881889123
10.192052980132452,4.400361257406598
10.211920529801324,4.341060587250853
10.2317880794702,4.277614430562199
10.251655629139073,4.210089349938865
10.271523178807948,4.138556957837391
10.29139072847682,4.063093978585965
10.311258278145695,3.983782330198059
10.331125827814569,3.9007092312330034
10.350993377483444,3.813967339313319
10.370860927152318,3.723654929677212
10.390728476821192,3.6298761244552127
10.410596026490065,3.532741186405109
10.43046357615894,3.4323668948826533
10.450331125827816,3.328877027242239
10.470198675496688,3.2224029761815185
10.490066225165563,3.1130845435284447
10.509933774834437,3.00107096471771
10.529801324503312,2.8865222373287382
10.549668874172186,2.7696108539336945
10.56953642384106,2.650524077682119
10.589403973509933,2.5294669538677987
10.609271523178808,2.4066663303004687
10.629139072847682,2.2823762760521284
10.649006622516556,2.1568854611347734
10.66887417218543,2.03052731815483
10.688741721854305,1.9036941954443682
10.70860927152318,1.7768572953283785
10.728476821192054,1.6505950621937242
10.748344370860927,1.5256339499960545
10.7682119205298,1.402907221043619
10.788079470198676,1.2836394102011888
10.80794701986755,1.169465222669234
