Frequency (Hz),Amplitude
0.0,2.190210998955928
0.020066889632107024,2.1898684419023184
0.04013377926421405,2.1888417599980627
0.060200668896321065,2.187133920637576
0.0802675585284281,2.184749868211918
0.10033444816053512,2.1816965221550952
0.12040133779264213,2.1779827740998816
0.14046822742474915,2.173619484032129
0.1605351170568562,2.168619475298455
0.1806020066889632,2.1629975282860454
0.20066889632107024,2.156770372554857
0.22073578595317725,2.149956677161701
0.24080267558528426,2.1425770388720107
0.2608695652173913,2.134653967908299
0.2809364548494983,2.1262118708347537
0.3010033444816054,2.1172770301245714
0.3210702341137124,2.1078775799012197
0.34113712374581934,2.098043477286834
0.3612040133779264,2.087806468731354
0.3812709030100334,2.077200050635364
0.4013377926421405,2.066259423519714
0.42140468227424743,2.0550214389365284
0.4414715719063545,2.0435245382624543
0.4615384615384615,2.031808682467317
0.4816053511705685,2.019915271913312
0.5016722408026756,2.0078870552152073
0.5217391304347826,1.9957680261839201
0.5418060200668896,1.9836033078899131
0.5618729096989966,1.9714390229229606
0.5819397993311036,1.9593221489967665
0.6020066889632107,1.9473003591555684
0.6220735785953176,1.9354218459902899
0.6421404682274248,1.923735129468509
0.6622073578595318,1.9122888482286569
0.6822742474916387,1.901131534487147
0.7023411371237458,1.8903113730570476
0.7224080267558528,1.8798759453764413
0.7424749163879598,1.869871959888703
0.7625418060200668,1.8603449705965565
0.7826086956521738,1.8513390861148706
0.802675585284281,1.8428966720580775
0.8227424749163879,1.8350580500967815
0.8428093645484949,1.827861197482894
0.862876254180602,1.821341451248628
0.882943143812709,1.8155312216067703
0.903010033444816,1.8104597192938359
0.923076923076923,1.806152701681344
0.9431438127090299,1.8026322424168044
0.963210702341137,1.7999165291334973
0.983277591973244,1.79801969338318
1.0033444816053512,1.796951676403742
1.0234113712374582,1.796718133648713
1.0434782608695652,1.7973203802008688
1.0635451505016722,1.798755378298167
1.0836120401337792,1.8010157672540814
1.1036789297658862,1.8040899350962956
1.1237458193979932,1.8079621303181244
1.1438127090301002,1.8126126112759129
1.1638795986622072,1.8180178300068015
1.1839464882943145,1.8241506466128106
1.2040133779264215,1.8309805698786334
1.2240802675585283,1.8384740194724554
1.2441471571906353,1.846594604922909
1.2642140468227423,1.8553034165641238
1.2842809364548495,1.8645593237806481
1.3043478260869565,1.8743192761455787
1.3244147157190636,1.8845386034046785
1.3444816053511706,1.8951713106929455
1.3645484949832773,1.9061703658511924
1.3846153846153846,1.9174879762168793
1.4046822742474916,1.929075852773073
1.4247491638795986,1.9408854600345808
1.4448160535117056,1.9528682505166728
1.4648829431438126,1.96497588305819
1.4849498327759196,1.977160424650556
1.5050167224080266,1.9893745357529327
1.5250836120401337,2.0015716393502796
1.5451505016722407,2.013706074236814
1.5652173913043477,2.0257332331842246
1.5852842809364547,2.0376096867868903
1.605351170568562,2.049293293868986
1.625418060200669,2.0607432993969224
1.6454849498327757,2.0719204208688966
1.6655518394648827,2.082786924158123
1.6856187290969897,2.0933066897705377
1.705685618729097,2.1034452704472826
1.725752508361204,2.113169940999859
1.745819397993311,2.1224497412152186
1.765886287625418,2.1312555126120847
1.7859531772575248,2.1395599297705683
1.806020066889632,2.147337526896571
1.826086956521739,2.154564720222281
1.846153846153846,2.1612198267847895
1.866220735785953,2.1672830800679916
1.8862876254180598,2.1727366429383617
1.9063545150501673,2.1775646182537276
1.926421404682274,2.1817530574755843
1.9464882943143813,2.185289967570078
1.966555183946488,2.1881653164401267
1.9866220735785953,2.1903710370913863
2.0066889632107023,2.191901030697208
2.026755852842809,2.192751168692591
2.0468227424749164,2.192919293993198
2.0668896321070234,2.192405221403664
2.0869565217391304,2.1912107372476877
2.1070234113712374,2.1893395982218555
2.1270903010033444,2.186797529444189
2.1471571906354514,2.1835922216374706
2.1672240802675584,2.1797333273553967
2.1872909698996654,2.1752324561266567
2.2073578595317724,2.1701031683573255
2.2274247491638794,2.164360967795501
2.2474916387959865,2.158023292323287
2.267558528428094,2.151109502799865
2.2876254180602005,2.1436408696353406
2.3076923076923075,2.1356405567282284
2.3277591973244145,2.127133602349539
2.3478260869565215,2.118146896503997
2.367892976588629,2.108709154243867
2.3879598662207355,2.0988508843540674
2.408026755852843,2.0886043527690363
2.4280936454849495,2.078003540023636
2.4481605351170566,2.0670840919831996
2.468227424749164,2.0558832630438815
2.4882943143812706,2.0444398509454635
2.508361204013378,2.032794122297636
2.5284280936454846,2.0209877278905424
2.548494983277592,2.0090636068448364
2.568561872909699,1.997065878659218
2.5886287625418056,1.9850397222396778
2.608695652173913,1.97303124104849
2.6287625418060196,1.9610873135978135
2.648829431438127,1.9492554286372563
2.668896321070234,1.937583504551478
2.688963210702341,1.9261196926966684
2.709030100334448,1.9149121646664378
2.7290969899665547,1.9040088837889995
2.749163879598662,1.8934573615182688
2.769230769230769,1.883304399787311
2.789297658862876,1.8735958208378751
2.809364548494983,1.8643761865140045
2.82943143812709,1.8556885094980975
2.849498327759197,1.8475739594572362
2.869565217391304,1.8400715675365933
2.8896321070234112,1.8332179330626275
2.9096989966555182,1.8270469366780377
2.9297658862876252,1.821589464399126
2.9498327759197323,1.816873147241824
2.9698996655518393,1.8129221210858835
2.9899665551839463,1.8097568113233686
3.0100334448160533,1.8073937465593544
3.0301003344481603,1.8058454052002766
3.0501672240802673,1.8051200981861042
3.0702341137123748,1.8052218904143287
3.0903010033444813,1.8061505625911953
3.1103678929765888,1.807901614360482
3.1304347826086953,1.810466308639261
3.1505016722408024,1.8138317561718702
3.1705685618729094,1.8179810384372335
3.1906354515050164,1.8228933662458564
3.210702341137124,1.8285442706729205
3.2307692307692304,1.83490582241603
3.250836120401338,1.8419468752567467
3.270903010033445,1.8496333290505604
3.2909698996655514,1.8579284075695055
3.311036789297659,1.8667929465660122
3.3311036789297654,1.8761856876006024
3.351170568561873,1.8860635734600162
3.3712374581939795,1.896382041363085
3.391304347826087,1.90709531058568
3.411371237458194,1.9181566616094718
3.4314381270903005,1.9295187043898072
3.451505016722408,1.9411336338272223
3.471571906354515,1.9529534709973744
3.491638795986622,1.9649302891341904
3.511705685618729,1.977016423760342
3.531772575250836,1.9891646667124159
3.551839464882943,2.001328444112192
3.5719063545150496,2.0134619785894063
3.591973244147157,2.0255204362671497
3.612040133779264,2.037460059180995
3.632107023411371,2.049238283921538
3.652173913043478,2.0608138473715445
3.672240802675585,2.0721468804582326
3.692307692307692,2.0831989908635435
3.712374581939799,2.093933335635051
3.732441471571906,2.104314684622094
3.752508361204013,2.1143094756294714
3.7725752508361197,2.1238858621386387
3.7926421404682276,2.1330137543962975
3.8127090301003346,2.141664854615614
3.832775919732441,2.149812686977804
3.852842809364548,2.157432623063425
3.872909698996655,2.1645019032846875
3.8929765886287626,2.170999654833066
3.9130434782608696,2.1769069066020523
3.933110367892976,2.1822066014923553
3.953177257525083,2.1868836064575636
3.9732441471571907,2.190924720601376
3.9933110367892977,2.1943186815941655
4.013377926421405,2.1970561706350313
4.033444816053511,2.1991298161474906
4.053511705685618,2.2005341963601905
4.073578595317726,2.201265840889897
4.093645484949833,2.20132323141109
4.113712374581939,2.2007068014648103
4.133779264214047,2.199418935428556
4.153846153846153,2.197463966638556
4.173913043478261,2.194848174625242
4.193979933110368,2.1915797813917863
4.214046822742475,2.1876689466339436
4.234113712374581,2.183127761766356
4.254180602006689,2.1779702425862704
4.274247491638796,2.1722123203690615
4.294314381270903,2.1658718311517267
4.314381270903009,2.158968502919556
4.334448160535117,2.151523940368025
4.354515050167224,2.143561606866049
4.374581939799331,2.1351068031983185
4.394648829431437,2.126186642613916
4.414715719063545,2.1168300216558085
4.434782608695651,2.107067586191869
4.454849498327759,2.0969316920138783
4.474916387959866,2.08645635931699
4.494983277591973,2.075677220320765
4.5150501672240795,2.064631459245002
4.535117056856188,2.053357743812015
4.555183946488294,2.0418961474143678
4.575250836120401,2.0302880610660314
4.595317725752508,2.018576094249641
4.615384615384615,2.0068039637863104
4.635451505016722,1.9950163698919912
4.655518394648829,1.9832588586499742
4.6755852842809364,1.9715776702271564
4.695652173913043,1.9600195722965774
4.71571906354515,1.948631678304603
4.735785953177258,1.9374612504402466
4.7558528428093645,1.92655548742941
4.775919732441471,1.9159612975874274
4.795986622073578,1.9057250579183074
4.816053511705686,1.8958923604433597
4.8361204013377925,1.8865077473690337
4.856187290969899,1.8776144371528332
4.8762541806020065,1.8692540439842102
4.896321070234113,1.861466293647767
4.916387959866221,1.854288739159669
4.936454849498328,1.8477564799444068
4.956521739130435,1.8419018886255771
4.976588628762541,1.8367543497201404
4.996655518394649,1.832340014630761
5.016722408026756,1.8286815773091032
5.036789297658863,1.825798074803356
5.056856187290969,1.823704716599884
5.076923076923077,1.822412746225467
5.096989966555184,1.8219293380009816
5.117056856187291,1.8222575311495972
5.137123745819398,1.8233962026849102
5.157190635451505,1.8253400796692074
5.177257525083611,1.8280797905717392
5.197324414715719,1.831601954608033
5.217391304347826,1.8358893071386089
5.237458193979933,1.8409208584805834
5.257525083612039,1.8466720828659862
5.277591973244148,1.853115133786027
5.297658862876254,1.8602190816041735
5.317725752508361,1.8679501691078233
5.337792642140468,1.876272080595978
5.357859531772575,1.8851462201596885
5.377926421404682,1.8945319949883932
5.397993311036789,1.9043870998103676
5.418060200668896,1.9146677989278054
5.438127090301003,1.9253292027156146
5.458193979933109,1.9363255358952425
5.478260869565218,1.94761039535212
5.498327759197324,1.9591369957193079
5.518394648829431,1.9708584013863892
5.538461538461538,1.9827277440001865
5.558528428093646,1.9946984248941473
5.578595317725752,2.006724302210749
5.598662207357859,2.0187598627635777
5.618729096989966,2.0307603789218547
5.638795986622073,2.0426820509922288
5.65886287625418,2.0544821357221577
5.678929765886288,2.0661190616608667
5.698996655518394,2.0775525321909067
5.719063545150501,2.088743617091079
5.739130434782608,2.099654833513513
5.759197324414716,2.110250217259243
5.7792642140468224,2.120495385220924
5.799331103678929,2.130357589832732
5.8193979933110365,2.139805766328768
5.839464882943144,2.1488105735656324
5.8595317725752505,2.1573444291142545
5.879598662207358,2.1653815392728024
5.8996655518394645,2.172897924598338
5.919732441471571,2.179871441500215
5.9397993311036785,2.1862818003852107
5.959866220735786,2.1921105807926278
5.9799331103678925,2.1973412439083466
5.999999999999999,2.2019591427995366
6.020066889632107,2.2059515306676736
6.040133779264214,2.209307567375274
6.060200668896321,2.2120183244625724
6.080267558528428,2.2140767888329873
6.100334448160535,2.2154778652512706
6.120401337792642,2.216218377764534
6.1404682274247495,2.216297070124591
6.160535117056856,2.215714605258859
6.180602006688963,2.2144735638070006
6.200668896321069,2.2125784417104004
6.2207357859531776,2.210035646811762
6.240802675585284,2.2068534943916944
6.260869565217391,2.20304220153811
6.280936454849498,2.1986138802121493
6.301003344481605,2.193582528840742
6.321070234113712,2.187964022230807
6.341137123745819,2.1817760995630238
6.361204013377926,2.17503835018395
6.381270903010033,2.167772196874148
6.40133779264214,2.160000876226376
6.421404682274248,2.151749415722786
6.441471571906354,2.143044607052602
6.461538461538461,2.133914975163481
6.481605351170568,2.124390742490362
6.501672240802676,2.114503787756675
6.521739130434782,2.1042875986948486
6.54180602006689,2.0937772179880505
6.561872909698996,2.0830091816945715
6.581939799331103,2.0720214493820532
6.60200668896321,2.0608533251741807
6.622073578595318,2.0495453688993956
6.642140468227424,2.03813929653367
6.662207357859531,2.0266778691506957
6.682274247491639,2.0152047696365027
6.702341137123746,2.003764466496226
6.722408026755852,1.9924020641813278
6.742474916387959,1.9811631395009264
6.762541806020066,1.9700935638528527
6.782608695652174,1.9592393112221804
6.80267558528428,1.9486462521476215
6.822742474916388,1.9383599341492364
6.842809364548494,1.9284253494425074
6.862876254180601,1.9188866911288238
6.882943143812709,1.9097870994443513
6.903010033444816,1.9011684000582219
6.9230769230769225,1.8930708368246392
6.94314381270903,1.8855328017964843
6.963210702341137,1.8785905656841453
6.983277591973244,1.8722780122728069
7.0033444816053505,1.8666263805761913
7.023411371237458,1.861664018685486
7.0434782608695645,1.8574161533521787
7.063545150501672,1.853904679309192
7.083612040133779,1.851147972176569
7.103678929765886,1.8491607285122453
7.123745819397993,1.8479538361577061
7.143812709030099,1.8475342775019632
7.1638795986622075,1.8479050676607847
7.183946488294314,1.8490652288637974
7.204013377926421,1.8510098015860919
7.224080267558528,1.853729892183726
7.2441471571906355,1.8572127560246579
7.264214046822742,1.861441914379445
7.2842809364548495,1.86639730267712
7.304347826086956,1.8720554471649098
7.324414715719063,1.8783896665543842
7.34448160535117,1.8853702949024937
7.364548494983278,1.892964921769436
7.384615384615384,1.9011386456143107
7.404682274247491,1.9098543364273477
7.424749163879598,1.9190729037412564
7.444816053511706,1.9287535663989233
7.464882943143812,1.9388541207612486
7.48494983277592,1.9493312043992652
7.505016722408026,1.960140552708863
7.525083612040134,1.971237246297771
7.545150501672239,1.9825759474061435
7.565217391304348,1.9941111240215363
7.585284280936455,2.005797260724905
7.605351170568561,2.0175890556490517
7.625418060200669,2.0294416032386957
7.645484949832775,2.041310562769576
7.665551839464882,2.0531523128112816
7.685618729096991,2.0649240920055387
7.705685618729096,2.076584126680723
7.725752508361204,2.088091745936865
7.74581939799331,2.099407484917048
7.765886287625418,2.1104931770347686
7.785953177257525,2.1213120359563784
7.806020066889631,2.1318287281469237
7.826086956521739,2.1420094367803713
7.846153846153847,2.1518219177947278
7.866220735785952,2.1612355488416863
7.88628762541806,2.170221371842238
7.906354515050166,2.178752129815992
7.926421404682274,2.186802298605139
7.946488294314381,2.194348114064977
7.966555183946488,2.2013675952438283
7.986622073578595,2.207840564026012
8.006688963210701,2.213748661663813
8.02675585284281,2.2190753625780366
8.046822742474916,2.2238059857625627
8.066889632107022,2.2279277040860155
8.08695652173913,2.231429551743734
8.107023411371236,2.23430243007531
8.127090301003344,2.236539111927007
8.147157190635452,2.238134244704469
8.167224080267557,2.2390843522284083
8.187290969899665,2.239387835474936
8.207357859531772,2.2390449722519383
8.227424749163879,2.2380579158334655
8.247491638795987,2.236430692544976
8.267558528428093,2.2341691982632566
8.2876254180602,2.231281193765563
8.307692307692307,2.2277762988326493
8.327759197324415,2.223665984979654
8.347826086956522,2.2189635666569556
8.367892976588628,2.213684190729964
8.387959866220736,2.2078448240120196
8.408026755852843,2.2014642385882284
8.42809364548495,2.1945629946298384
8.448160535117056,2.1871634203589614
8.468227424749163,2.1792895887819395
8.488294314381271,2.1709672907668764
8.508361204013378,2.1622240039971614
8.528428093645484,2.1530888572886897
8.548494983277592,2.1435925897149883
8.568561872909697,2.1337675039422717
8.588628762541806,2.1236474131371006
8.608695652173914,2.113267580774413
8.628762541806019,2.1026646526449033
8.648829431438127,2.0918765803404646
8.668896321070234,2.080942535487127
8.68896321070234,2.06990281399945
8.709030100334449,2.05879872965164
8.729096989966555,2.0476724963024346
8.749163879598662,2.0365670981756456
8.769230769230768,2.0255261476904685
8.789297658862875,2.014593730457456
8.809364548494983,2.0038142372106327
8.82943143812709,1.9932321826354475
8.849498327759196,1.9828920112769326
8.869565217391303,1.9728378909724338
8.889632107023411,1.9631134945467519
8.909698996655518,1.9537617708304647
8.929765886287624,1.9448247064089226
8.949832775919733,1.9363430798716998
8.96989966555184,1.928356210699646
8.989966555183946,1.920901705286512
9.010033444816054,1.9140152029301394
9.030100334448159,1.9077301249282985
9.050167224080267,1.9020774301603471
9.070234113712376,1.8970853807116421
9.09030100334448,1.8927793211883428
9.110367892976589,1.8891814753634275
9.130434782608695,1.8863107636814234
9.150501672240802,1.8841826449254047
9.17056856187291,1.8828089850152228
9.190635451505017,1.882197955467926
9.210702341137123,1.8823539635210396
9.23076923076923,1.8832776153144775
9.250836120401337,1.8849657128686796
9.270903010033445,1.8874112849101812
9.290969899665551,1.890603650907202
9.311036789297658,1.8945285170143566
9.331103678929765,1.8991681020119089
9.351170568561873,1.9045012907829586
9.37123745819398,1.9105038124202802
9.391304347826086,1.9171484397047707
9.411371237458194,1.9244052064575783
9.4314381270903,1.9322416391390154
9.451505016722408,1.9406229990455255
9.471571906354516,1.9495125315330162
9.49163879598662,1.9588717188588496
9.511705685618729,1.9686605334709837
9.531772575250837,1.9788376888653587
9.551839464882942,1.9893608854652816
9.57190635451505,2.000187049333143
9.591973244147155,2.011272561891049
9.612040133779264,2.0225734791895165
9.632107023411372,2.0340457396122082
9.652173913043477,2.045645359230432
9.672240802675585,2.0573286143185485
9.692307692307692,2.06905221080573
9.712374581939798,2.080773440668967
9.732441471571907,2.0924503254660594
9.752508361204013,2.104041747366691
9.77257525083612,2.115507568165904
9.792642140468226,2.1268087368606454
9.812709030100335,2.1379073864386386
9.832775919732441,2.148766920574021
9.852842809364548,2.1593520909482873
9.872909698996656,2.169629065922218
9.89297658862876,2.17956549127709
9.91304347826087,2.189130543725001
9.933110367892976,2.1982949778606633
9.953177257525082,2.207031167193017
9.97324414715719,2.2153131398565007
9.993311036789297,2.2231166095601105
10.013377926421404,2.2304190022891497
10.033444816053512,2.23719947923061
10.053511705685617,2.243438956349475
10.073578595317725,2.249120121000326
10.093645484949834,2.254227445917071
10.113712374581938,2.2587472008835903
10.133779264214047,2.2626674623497176
10.153846153846153,2.265978121220523
10.17391304347826,2.2686708890119958
10.193979933110368,2.270739302532941
10.214046822742475,2.272178727221416
10.234113712374581,2.2729863592332737
10.254180602006688,2.273161226351189
10.274247491638796,2.2727041877537313
10.294314381270903,2.2716179326559467
10.31438127090301,2.269906977805034
10.334448160535118,2.267577663786539
10.354515050167223,2.2646381500684956
10.37458193979933,2.26109840868169
10.394648829431437,2.2569702164048575
10.414715719063544,2.25226714529266
10.434782608695652,2.2470045513524615
10.454849498327757,2.2411995611425013
10.474916387959865,2.2348710560295526
10.494983277591974,2.228039653807761
10.515050167224079,2.220727687343091
10.535117056856187,2.212959179869043
10.555183946488295,2.2047598165199505
10.5752508361204,2.196156911648253
10.595317725752508,2.1871793714325674
10.615384615384615,2.1778576512450445
10.635451505016722,2.168223707209845
10.65551839464883,2.1583109413519956
10.675585284280936,2.148154139707581
10.695652173913043,2.13778940274528
10.71571906354515,2.1272540674366724
10.735785953177256,2.1165866203117862
10.755852842809364,2.1058266008488435
10.775919732441471,2.095014494576472
10.795986622073578,2.08419161531516
10.816053511705684,2.0733999760558808
10.836120401337793,2.0626821480697903
