Time (s),Filtered Signal
0.0,-0.02562783599736963
0.033370535714285714,0.2508591316812928
0.06674107142857143,0.42558454083279734
0.10011160714285713,0.4362139822691557
0.13348214285714285,0.28218954985697636
0.16685267857142858,0.021478219098528557
0.20022321428571427,-0.25532295558380363
0.23359375,-0.4608051476889437
0.2669642857142857,-0.5409056992748957
0.30033482142857143,-0.48836148848207206
0.33370535714285715,-0.3371429119042382
0.36707589285714287,-0.14368318678592346
0.40044642857142854,0.035332487535489066
0.43381696428571426,0.15987073741159144
0.4671875,0.21365824328721603
0.5005580357142857,0.20179990841991813
0.5339285714285714,0.1424609800259623
0.5672991071428571,0.05718157805246247
0.6006696428571429,-0.03636729234349866
0.6340401785714286,-0.1270726227479227
0.6674107142857143,-0.20840967348976497
0.70078125,-0.2736523003505043
0.7341517857142857,-0.3114942358871563
0.7675223214285715,-0.3054541167496295
0.8008928571428571,-0.23882921415260103
0.8342633928571428,-0.10394454404977817
0.8676339285714285,0.08860892271965246
0.9010044642857142,0.3063213791328667
0.934375,0.5005840963085765
0.9677455357142857,0.6215871282657484
1.0011160714285714,0.6369638610180723
1.0344866071428571,0.5458994463782405
1.0678571428571428,0.3813928239625589
1.1012276785714286,0.1983170305799207
1.1345982142857143,0.05171345783863613
1.16796875,-0.025084622712545534
1.2013392857142857,-0.03233543339788026
1.2347098214285714,-0.0002776564496007066
1.2680803571428572,0.027854229804662452
1.3014508928571429,0.017498984917394544
1.3348214285714286,-0.04159953349290241
1.3681919642857143,-0.13302473097692194
1.4015625,-0.22478090137171888
1.4349330357142858,-0.2872605670276997
1.4683035714285715,-0.30841573928007804
1.5016741071428572,-0.2984194226067839
1.535044642857143,-0.28180650473403646
1.5684151785714286,-0.28151577483594326
1.6017857142857141,-0.30329118474671457
1.6351562499999999,-0.32874184744763923
1.6685267857142856,-0.3212279588703115
1.7018973214285713,-0.24264933439985473
1.735267857142857,-0.07396354745294527
1.7686383928571427,0.16987460565194012
1.8020089285714285,0.4380480768193637
1.8353794642857142,0.6575522724491907
1.86875,0.7584565314914143
1.9021205357142856,0.7013431131824981
1.9354910714285714,0.4953365716223432
1.968861607142857,0.1977717073687198
2.002232142857143,-0.10622586867860735
2.0356026785714287,-0.3367512059540737
2.0689732142857142,-0.4503719377643328
2.10234375,-0.4548397434189488
2.1357142857142857,-0.3996802377463388
2.169084821428571,-0.346916927760424
2.202455357142857,-0.3366070229372947
2.2358258928571426,-0.36503742049358084
2.2691964285714286,-0.3872229209283922
2.302566964285714,-0.34280511760381205
2.3359375,-0.19217012323896093
2.3693080357142855,0.055939528920525734
2.4026785714285714,0.34002452737260586
2.436049107142857,0.5679436535692466
2.469419642857143,0.6558578131339701
2.5027901785714284,0.5660465261162365
2.5361607142857143,0.32587558745405804
2.56953125,0.01867359991500323
2.6029017857142858,-0.2499375746401459
2.6362723214285713,-0.3954093047111243
2.669642857142857,-0.3878483794236905
2.7030133928571427,-0.2606917477701707
2.7363839285714286,-0.0909245434364762
2.769754464285714,0.039265772116911846
2.803125,0.08076740229981777
2.8364955357142856,0.037577854352144585
2.8698660714285715,-0.04008636123457746
2.903236607142857,-0.08469766209665347
2.936607142857143,-0.04687277009939153
2.9699776785714285,0.08033523580820186
3.0033482142857144,0.2592930799531219
3.03671875,0.42715815725359285
3.070089285714286,0.52586184891646
3.1034598214285714,0.5278240018236824
3.1368303571428573,0.4460555807111888
3.170200892857143,0.325685196329671
3.2035714285714283,0.22246827753064385
3.2369419642857142,0.17852317498740933
3.2703124999999997,0.20507995320914832
3.3036830357142857,0.27790094232497786
3.337053571428571,0.3459319713440076
3.370424107142857,0.3497022801570484
3.4037946428571426,0.2436001149774978
3.4371651785714286,0.015149562067414569
3.470535714285714,-0.30530122123441256
3.50390625,-0.6491066134228424
3.5372767857142855,-0.9287126010879315
3.5706473214285714,-1.0671231516175794
3.604017857142857,-1.0275908087848076
3.637388392857143,-0.8315254489220232
3.6707589285714284,-0.5553563063544872
3.7041294642857143,-0.30469522555387557
3.7375,-0.17398966218246903
3.7708705357142858,-0.20749224004782602
3.8042410714285713,-0.3786690083531591
3.837611607142857,-0.5985413707599877
3.8709821428571427,-0.7511147048577534
3.9043526785714286,-0.7414040622890746
3.937723214285714,-0.534908358752325
3.97109375,-0.1706653492895708
4.004464285714286,0.25765016801078494
4.0378348214285715,0.6426874223585498
4.0712053571428575,0.9061783924367999
4.1045758928571425,1.0236493402059539
4.1379464285714285,1.0219871284351234
4.171316964285714,0.955312312829007
4.2046875,0.8745267396409148
4.238058035714285,0.8062432531971362
4.271428571428571,0.7488824743335066
4.304799107142857,0.6834420820966268
4.338169642857142,0.5898962984614898
4.371540178571428,0.45994383453380827
4.404910714285714,0.30128660004854385
4.43828125,0.13404848044495749
4.471651785714285,-0.01680462444799981
4.505022321428571,-0.12905347570188627
4.538392857142857,-0.18871284607903685
4.571763392857143,-0.19327313698918344
4.605133928571428,-0.15323629048835888
4.638504464285714,-0.09179919761777891
4.671875,-0.041520956586122384
4.705245535714286,-0.03683154417469732
4.738616071428571,-0.10297073964863762
4.771986607142857,-0.24469637735258554
4.805357142857143,-0.44002792309938443
4.838727678571429,-0.6435607651593419
4.872098214285714,-0.800102249192522
4.90546875,-0.8641960381584097
4.938839285714286,-0.8174044949204985
4.972209821428572,-0.6753693839090347
5.005580357142857,-0.48100014673417973
5.038950892857143,-0.28665544836911444
5.072321428571429,-0.13358283570033022
5.105691964285715,-0.03825628508123003
5.1390625,0.008327133183554321
5.172433035714286,0.029149513996745775
5.2058035714285715,0.044664789419217164
5.2391741071428575,0.06090896907708037
5.2725446428571425,0.06882183749486799
5.3059151785714285,0.05454590669560604
5.339285714285714,0.013809806558436874
5.3726562499999995,-0.039032315223407874
5.406026785714285,-0.07359651953266026
5.439397321428571,-0.057033586632635656
5.472767857142857,0.02871715432418682
5.506138392857142,0.17561642585302575
5.539508928571428,0.35059995743617206
5.572879464285714,0.5087739290425823
5.60625,0.6121369250214831
5.639620535714285,0.6446617854571562
5.672991071428571,0.6167744037333763
5.706361607142857,0.5576756923814667
5.739732142857143,0.4996265585793538
5.773102678571428,0.4616570164017067
5.806473214285714,0.44005251389086714
5.83984375,0.4098696991701822
5.873214285714286,0.33705999508846984
5.906584821428571,0.19625549405361617
5.939955357142857,-0.013473823470920944
5.973325892857143,-0.26233575128254827
6.006696428571429,-0.49689608191912443
6.040066964285714,-0.6586333403730404
6.0734375,-0.7064957610076382
6.106808035714286,-0.6334523282874639
6.140178571428572,-0.46926144936235803
6.173549107142857,-0.26802362349222936
6.206919642857143,-0.0864754721661031
6.240290178571429,0.03656095427588073
6.273660714285715,0.09022732413638047
6.30703125,0.08788951935474644
6.340401785714286,0.05383567324586326
6.3737723214285715,0.00916116164505735
6.407142857142857,-0.035419320251121454
6.4405133928571425,-0.07762969083444937
6.4738839285714285,-0.11656010272568149
6.507254464285714,-0.1472302647682132
6.5406249999999995,-0.16131439188491614
6.573995535714285,-0.1532463403638906
6.607366071428571,-0.12649920633474274
6.640736607142857,-0.09440656703697596
6.674107142857142,-0.07363485074791082
6.707477678571428,-0.07364003529228874
6.740848214285714,-0.08861761640475006
6.77421875,-0.0975701650864487
6.807589285714285,-0.0737672779940241
6.840959821428571,0.0003924254979507087
6.874330357142857,0.12043799194111236
6.907700892857143,0.25585311492002916
6.941071428571428,0.358388896101398
6.974441964285714,0.3804369282018081
7.0078125,0.29630148495938485
7.041183035714286,0.11709296016054983
7.074553571428571,-0.10817565818151102
7.107924107142857,-0.3073292400039783
7.141294642857143,-0.4108357027041262
7.174665178571429,-0.37864959706931445
7.208035714285714,-0.21693479618840156
7.24140625,0.0227180524887206
7.274776785714286,0.26180655048671087
7.308147321428572,0.4240082904972088
7.341517857142857,0.46333555650752534
7.374888392857143,0.3803169861875155
7.408258928571429,0.22010321215162212
7.441629464285715,0.05354968919925002
7.475,-0.051217456784268624
7.508370535714286,-0.055823954147223596
7.5417410714285715,0.03309372378224595
7.575111607142857,0.16654777303676976
7.6084821428571425,0.2734225526306134
7.6418526785714285,0.2910155657495462
7.675223214285714,0.19376070306919016
7.7085937499999995,0.007466636716043338
7.741964285714285,-0.19858861224690919
7.775334821428571,-0.3400411522412988
7.808705357142857,-0.35482944010111667
7.842075892857142,-0.23275432145933836
7.875446428571428,-0.022828065897258356
7.908816964285714,0.18614599606908894
7.9421875,0.30360305234532226
7.975558035714285,0.27647349524613507
8.008928571428571,0.11143851980194769
8.042299107142856,-0.12989749338361664
8.075669642857143,-0.35995635840745893
8.109040178571428,-0.5039843014951054
8.142410714285715,-0.5304258871180147
8.17578125,-0.4595260728943173
8.209151785714285,-0.34773262553621925
8.242522321428572,-0.2567964838555318
8.275892857142857,-0.22293954983362724
8.309263392857142,-0.2405096904592392
8.342633928571429,-0.2670965993614657
8.376004464285714,-0.24683138577039967
8.409375,-0.14025579284694253
8.442745535714286,0.053592540764511115
8.47611607142857,0.293303056496786
8.509486607142858,0.5111989520638183
8.542857142857143,0.6418697163292563
8.576227678571428,0.6498515426461382
8.609598214285715,0.543718431869315
8.64296875,0.37041849790236425
8.676339285714285,0.19317936702309393
8.709709821428572,0.06407825328107364
8.743080357142857,0.004531638999101387
8.776450892857143,0.002421232270714743
8.809821428571428,0.02572825733342962
8.843191964285714,0.044052160908461535
8.8765625,0.04571045900246521
8.909933035714285,0.04116991690397192
8.94330357142857,0.051651361257546775
8.976674107142857,0.09039627032200434
9.010044642857142,0.14839144472357765
9.04341517857143,0.19378559700884074
9.076785714285714,0.18619428312540848
9.11015625,0.09822573922743318
9.143526785714286,-0.06790318365551648
9.176897321428571,-0.27818415341748226
9.210267857142856,-0.4804538857003623
9.243638392857143,-0.626412760907301
9.277008928571428,-0.69026635806198
9.310379464285715,-0.6747841454600507
9.34375,-0.6031670059097483
9.377120535714285,-0.5029760474482394
9.410491071428572,-0.3918648889545889
9.443861607142857,-0.27239127889765513
9.477232142857142,-0.13698609973156248
9.510602678571429,0.02156920334926017
9.543973214285714,0.20084768295417077
9.57734375,0.38536236847340843
9.610714285714286,0.5498286494901822
9.64408482142857,0.6667330800930632
9.677455357142858,0.7147581861189213
9.710825892857143,0.6852665799661852
9.744196428571428,0.5852729672979613
9.777566964285715,0.4363220676400701
9.8109375,0.26943518201902034
9.844308035714285,0.11715848543336636
9.877678571428572,0.004817514066655063
9.911049107142857,-0.05613954355386009
9.944419642857143,-0.07009434257019603
9.977790178571428,-0.05356821658070542
10.011160714285714,-0.027494748805088533
10.04453125,-0.009092513241800555
10.077901785714285,-0.007105570786606736
10.11127232142857,-0.022109895183740243
10.144642857142857,-0.05055554668207159
10.178013392857142,-0.08922631557158077
10.21138392857143,-0.13711549848842294
10.244754464285714,-0.19392205777834476
10.278125,-0.25678700519292585
10.311495535714286,-0.3179302243782513
10.344866071428571,-0.3650973107314804
10.378236607142856,-0.38494945092477806
10.411607142857143,-0.3678959342544972
10.444977678571428,-0.31218753828269896
10.478348214285715,-0.2255182486481689
10.51171875,-0.1235415504194019
10.545089285714285,-0.02595944716153293
10.578459821428572,0.048383667357520026
10.611830357142857,0.08592245541774923
10.645200892857142,0.08134774398640846
10.678571428571429,0.03883603021959041
10.711941964285714,-0.028402796266805592
10.745312499999999,-0.10023901118681174
10.778683035714286,-0.15354198051189358
10.81205357142857,-0.16780199817792651
10.845424107142858,-0.13141523895722518
10.878794642857143,-0.046389812033268925
10.912165178571428,0.0711813554649732
10.945535714285715,0.19624920360700107
10.97890625,0.30411320279832765
11.012276785714285,0.37970858669003016
11.045647321428572,0.42194228186445376
11.079017857142857,0.4404272884984577
11.112388392857143,0.44630731209036345
11.145758928571428,0.4426979149775811
11.179129464285714,0.4209987210513071
11.2125,0.36611362900132416
11.245870535714285,0.26814633192744924
11.27924107142857,0.13372885242494226
11.312611607142857,-0.010387056152894996
11.345982142857142,-0.125005243569511
11.37935267857143,-0.1748643898636771
11.412723214285714,-0.14615071210703054
11.44609375,-0.056286163666901826
11.479464285714286,0.04974766605665233
11.512834821428571,0.11617023595480129
11.546205357142856,0.09953146535536717
11.579575892857143,-0.01206152781998502
11.612946428571428,-0.19275417939469588
11.646316964285715,-0.3892692940095668
11.6796875,-0.543492092819049
11.713058035714285,-0.6169850797239813
11.746428571428572,-0.6058857178655875
11.779799107142857,-0.5391633931693025
11.813169642857142,-0.4613696646300451
11.846540178571429,-0.4086880247731165
11.879910714285714,-0.3903091391968113
11.913281249999999,-0.3842662965357775
11.946651785714286,-0.3494285226611994
11.98002232142857,-0.2472972496048274
12.013392857142858,-0.06273323655125962
12.046763392857143,0.18612931768590316
12.080133928571428,0.4527294047951211
12.113504464285715,0.678540017306916
12.146875,0.8132834922582969
12.180245535714285,0.8306211666703555
12.213616071428572,0.7342719220110552
12.246986607142857,0.5540875830147705
12.280357142857143,0.3351970428401798
12.313727678571428,0.12480346782583417
12.347098214285714,-0.03921606809368936
12.38046875,-0.13525457814469258
12.413839285714285,-0.15959529044288487
12.44720982142857,-0.12346797354850299
12.480580357142857,-0.047469754011796594
12.513950892857142,0.044322623417153324
12.54732142857143,0.1287799162095688
12.580691964285714,0.18620553269567627
12.6140625,0.2017061359313159
12.647433035714286,0.16676635764649034
12.680803571428571,0.08162836426128978
12.714174107142856,-0.04243099412150667
12.747544642857143,-0.1830600552389604
12.780915178571428,-0.31102482882166327
12.814285714285713,-0.39877248440932145
12.84765625,-0.43070536917399804
12.881026785714285,-0.41040566114689675
12.914397321428572,-0.3602703446565015
12.947767857142857,-0.312069461140165
12.981138392857142,-0.29163439392164126
13.014508928571429,-0.3047265035909449
13.047879464285714,-0.33168740533310953
13.081249999999999,-0.33486075158242506
13.114620535714286,-0.2764518473131722
13.14799107142857,-0.13867212092972925
13.181361607142858,0.06397470416217768
13.214732142857143,0.28707395252344436
13.248102678571428,0.4729464761315969
13.281473214285715,0.5738927089835214
13.31484375,0.5710868792453833
13.348214285714285,0.48064274757153524
13.381584821428572,0.3449940238402864
13.414955357142857,0.2146761421242926
13.448325892857143,0.12926158804845092
13.481696428571428,0.10525229890540853
13.515066964285714,0.13444862799744944
13.5484375,0.19135795393532568
13.581808035714285,0.24492456504832819
13.61517857142857,0.26925148069055554
13.648549107142857,0.24966697500609053
13.681919642857142,0.18328786478150894
13.71529017857143,0.07579214429476894
13.748660714285714,-0.06263496458025848
13.78203125,-0.21969333824828693
13.815401785714286,-0.3809718452785314
13.848772321428571,-0.5287619667647352
13.882142857142856,-0.6418055105570525
13.915513392857143,-0.6975646392838076
13.948883928571428,-0.6771019178808922
13.982254464285713,-0.5712033534478516
14.015625,-0.38570805240476685
14.048995535714285,-0.14414701325341453
14.082366071428572,0.11370650142795892
14.115736607142857,0.3381787154496261
14.149107142857142,0.48077967635211555
14.182477678571429,0.508167150555887
14.215848214285714,0.4149329296249385
14.249218749999999,0.22976823940345362
14.282589285714286,0.010548771868161085
14.31595982142857,-0.17227589124961679
14.349330357142858,-0.25927684650687494
14.382700892857143,-0.22380771166875355
14.416071428571428,-0.08268690862703947
14.449441964285715,0.10951188540100591
14.4828125,0.2811216952519741
14.516183035714285,0.37101564576004276
14.549553571428572,0.35193601345625247
14.582924107142857,0.23981309431130451
14.616294642857143,0.08523745105760447
14.649665178571428,-0.04911218127977019
14.683035714285714,-0.11524795242458226
14.71640625,-0.09927847446436448
14.749776785714285,-0.025196296378927768
14.78314732142857,0.058243230148946536
14.816517857142857,0.10132978093955793
14.849888392857142,0.07693535490495128
14.88325892857143,-0.006975484610813549
14.916629464285714,-0.11150528162295172
14.95,-0.1855675446109524
14.983370535714286,-0.1903734764398281
15.016741071428571,-0.11821613363472715
15.050111607142856,0.003142831803364574
15.083482142857143,0.12242337200496534
15.116852678571428,0.18749870761932327
15.150223214285713,0.16832939012853754
15.18359375,0.0697706969953624
15.216964285714285,-0.07124684702206284
15.250334821428572,-0.20231670596762952
15.283705357142857,-0.27782385003895466
15.317075892857142,-0.2765865181447099
15.350446428571429,-0.20740401179028353
15.383816964285714,-0.10125471069589882
15.417187499999999,0.004787049056957425
15.450558035714286,0.08355070174315503
15.48392857142857,0.12640122899802786
15.517299107142858,0.14165562853846234
15.550669642857143,0.14514727302421696
15.584040178571428,0.14869981792879958
15.617410714285715,0.15255311177406297
15.65078125,0.14526213056616447
15.684151785714285,0.1107158503768338
15.717522321428572,0.03849462825064668
15.750892857142857,-0.06774462985437617
15.784263392857143,-0.18818855561251474
15.817633928571428,-0.29242402783283195
15.851004464285714,-0.3503440603361325
15.884375,-0.3435843820446355
15.917745535714285,-0.2724186029390411
15.95111607142857,-0.15516845556553813
15.984486607142857,-0.020664213339820076
16.017857142857142,0.10257319047075784
16.05122767857143,0.19549721542168091
16.084598214285712,0.252314469860747
16.11796875,0.27809215375990837
16.151339285714286,0.282491477587003
16.18470982142857,0.27351334695135554
16.218080357142856,0.2545028572101386
16.251450892857143,0.22532797697324977
16.28482142857143,0.1860773526212031
16.318191964285713,0.14029584528000882
16.3515625,0.09534145916088817
16.384933035714287,0.05940120221550819
16.41830357142857,0.03679804032601393
16.451674107142857,0.024269342532107607
16.485044642857144,0.010438402553889394
16.518415178571427,-0.020855175818501506
16.551785714285714,-0.08444418819043141
16.58515625,-0.1871213444442157
16.618526785714284,-0.3226386954667637
16.65189732142857,-0.4701313071619758
16.685267857142858,-0.5968243737376913
16.71863839285714,-0.6650505704692797
16.752008928571428,-0.6426473463262571
16.785379464285715,-0.5144613861618281
16.81875,-0.2911952174360982
16.852120535714285,-0.011203173548042464
16.88549107142857,0.2676766226865901
16.91886160714286,0.4852725423221977
16.95223214285714,0.5993881118785755
16.98560267857143,0.6004877138269973
17.018973214285715,0.5133686734650522
17.05234375,0.3843044170889337
17.085714285714285,0.25967072104744576
17.119084821428572,0.16687428430962403
17.152455357142856,0.10731576392617587
17.185825892857142,0.0643788863531752
17.21919642857143,0.020811851869049602
17.252566964285712,-0.025536482516319313
17.2859375,-0.05754229725674118
17.319308035714286,-0.04905015492477444
17.35267857142857,0.01645397602800431
17.386049107142856,0.13012783320278976
17.419419642857143,0.2551641593582381
17.45279017857143,0.3402136760421596
17.486160714285713,0.34262771108932605
17.51953125,0.24940233079045812
17.552901785714287,0.08438914344173677
17.58627232142857,-0.10266026935514871
17.619642857142857,-0.26006174819475336
