Time (s),Filtered Signal
0.0,-0.006973585900219459
0.0334075723830735,-0.5285572442842991
0.066815144766147,-1.018993221873355
0.1002227171492205,-1.4376492932762455
0.133630289532294,-1.7348167131616852
0.1670378619153675,-1.866771949228902
0.200445434298441,-1.817739735196664
0.23385300668151449,-1.6150894908938622
0.267260579064588,-1.326270976477788
0.3006681514476615,-1.0358963722685244
0.334075723830735,-0.8130962173300429
0.3674832962138085,-0.6855101019195163
0.400890868596882,-0.6330532993349074
0.4342984409799555,-0.6038780282267641
0.46770601336302897,-0.543210920392935
0.5011135857461025,-0.419763594020147
0.534521158129176,-0.23711844896954218
0.5679287305122495,-0.026627985928312253
0.601336302895323,0.17168986251732404
0.6347438752783965,0.3285085990124221
0.66815144766147,0.4347944689372317
0.7015590200445435,0.49862954763756323
0.734966592427617,0.5339456611699724
0.7683741648106905,0.549814628407846
0.801781737193764,0.5472385818148704
0.8351893095768375,0.5245784199979611
0.868596881959911,0.4866779074655507
0.9020044543429845,0.4501069200793111
0.9354120267260579,0.43926534200228246
0.9688195991091315,0.4739395465889315
1.002227171492205,0.5548393035175816
1.0356347438752784,0.6560932751957343
1.069042316258352,0.7309019446042295
1.1024498886414256,0.7296973909078922
1.135857461024499,0.6228909494992725
1.1692650334075725,0.4168492919830629
1.202672605790646,0.1544596938022947
1.2360801781737194,-0.10067582242111973
1.269487750556793,-0.2889849123135061
1.3028953229398665,-0.3768401685399983
1.33630289532294,-0.36593808922851445
1.3697104677060135,-0.2873979181005811
1.403118040089087,-0.1854736311726201
1.4365256124721606,-0.09987179567497399
1.469933184855234,-0.05452441704248447
1.5033407572383075,-0.05574688232635849
1.536748329621381,-0.09734416763191164
1.5701559020044544,-0.16742234195057173
1.603563474387528,-0.25248002223379823
1.6369710467706016,-0.3376440438515121
1.670378619153675,-0.4052958718299531
1.7037861915367485,-0.43569510525371874
1.737193763919822,-0.4118180673296816
1.7706013363028954,-0.32741036413800767
1.804008908685969,-0.19417291604926215
1.8374164810690425,-0.04303002040450448
1.8708240534521159,0.0835105977426452
1.9042316258351895,0.14651128055709103
1.937639198218263,0.12732666330529022
1.9710467706013366,0.03784708853836894
2.00445434298441,-0.08179067717216493
2.0378619153674835,-0.17844434002792578
2.071269487750557,-0.20797317440120341
2.1046770601336307,-0.15389381319000134
2.138084632516704,-0.03379873915354086
2.1714922048997773,0.10932637158011131
2.204899777282851,0.2261940488072888
2.2383073496659245,0.2811723212294402
2.271714922048998,0.26401567157739436
2.3051224944320716,0.18940827308349423
2.338530066815145,0.08686680152440887
2.3719376391982183,-0.012338944558825254
2.405345211581292,-0.08478880760174741
2.4387527839643655,-0.11819726445774287
2.472160356347439,-0.1097926685584913
2.5055679287305126,-0.06339470444905868
2.538975501113586,0.012016563141705424
2.5723830734966593,0.10208780737988533
2.605790645879733,0.18730799782555999
2.6391982182628064,0.24585773087229443
2.67260579064588,0.25936253782901403
2.7060133630289536,0.21939072842749024
2.739420935412027,0.13147188858728598
2.7728285077951007,0.014461147472609414
2.806236080178174,-0.10458781450396157
2.8396436525612474,-0.19787649722782244
2.873051224944321,-0.24394232738143648
2.9064587973273945,-0.2325006445579012
2.939866369710468,-0.16640894840546286
2.9732739420935417,-0.06085511790185701
3.006681514476615,0.059973667157195
3.0400890868596884,0.16837884896170932
3.073496659242762,0.23991025187362236
3.1069042316258355,0.2597295507846724
3.140311804008909,0.22653745016544832
3.1737193763919826,0.15260345797172797
3.207126948775056,0.059805768145686763
3.2405345211581293,-0.027032045659086856
3.273942093541203,-0.08754300114103716
3.3073496659242765,-0.11205605513477422
3.34075723830735,-0.10506167284425479
3.3741648106904236,-0.08447198198623092
3.407572383073497,-0.075691657644808
3.4409799554565703,-0.10099375118543084
3.474387527839644,-0.16731843473180225
3.5077951002227175,-0.2581057863784165
3.541202672605791,-0.3349521090725133
3.5746102449888646,-0.3513194268817617
3.608017817371938,-0.27419382361226446
3.6414253897550113,-0.10390135265648381
3.674832962138085,0.1188269430583701
3.7082405345211584,0.32436300274054647
3.7416481069042318,0.4409837598754375
3.7750556792873056,0.4255091358998107
3.808463251670379,0.28367485955321436
3.8418708240534527,0.07047906880000053
3.875278396436526,-0.1302805830291
3.9086859688195994,-0.23888421807759427
3.942093541202673,-0.2112817618159374
3.9755011135857465,-0.056333547798058194
4.00890868596882,0.1682154820023616
4.042316258351893,0.3788805942640533
4.075723830734967,0.4984962066805849
4.109131403118041,0.4836194405275846
4.142538975501114,0.3366488752367229
4.1759465478841875,0.09970521851978105
4.209354120267261,-0.1643707482569495
4.242761692650334,-0.3939370742039499
4.276169265033408,-0.5444866296200354
4.309576837416482,-0.5949603518038844
4.342984409799555,-0.5464511761268074
4.3763919821826285,-0.41786072891480447
4.409799554565702,-0.24160859357353104
4.443207126948775,-0.05908641394795745
4.476614699331849,0.08650716665604005
4.510022271714923,0.16104145546369214
4.543429844097996,0.15136576240842728
4.5768374164810695,0.07238293328619295
4.610244988864143,-0.036228366482645075
4.643652561247216,-0.12457016164321448
4.67706013363029,-0.1528821432627706
4.710467706013364,-0.10803356623960317
4.743875278396437,-0.00756113436282673
4.77728285077951,0.11106281522177107
4.810690423162584,0.21016274100544524
4.844097995545657,0.26971234547473577
4.877505567928731,0.2935430437595744
4.910913140311805,0.3010728057699859
4.944320712694878,0.31042684826231814
4.977728285077951,0.3240058272651395
5.011135857461025,0.32592092046257487
5.044543429844098,0.2931203399076235
5.077951002227172,0.21311260052677417
5.111358574610246,0.09656705620840568
5.144766146993319,-0.02417470070536605
5.178173719376392,-0.11101168045770475
5.211581291759466,-0.14152599236155508
5.244988864142539,-0.12303338986737157
5.278396436525613,-0.09014793013210644
5.311804008908687,-0.08626061306536574
5.34521158129176,-0.13883483731483748
5.378619153674833,-0.2422998685885923
5.412026726057907,-0.3583332752498052
5.445434298440981,-0.4338257909409887
5.478841870824054,-0.4272461810044515
5.512249443207128,-0.32973584786911797
5.545657015590201,-0.17023042489507317
5.579064587973274,-0.002319325714847652
5.612472160356348,0.12022556607460455
5.645879732739422,0.16701185630391613
5.679287305122495,0.14245607657692091
5.712694877505569,0.08033578587664476
5.746102449888642,0.025176639450464975
5.779510022271715,0.01034028230805048
5.812917594654789,0.04357107320502116
5.846325167037863,0.10622169397476884
5.879732739420936,0.16507206883886236
5.91314031180401,0.18958262771234605
5.946547884187083,0.1656628808560806
5.979955456570156,0.10005212738319204
6.01336302895323,0.0149551018940667
6.046770601336304,-0.06273548848181432
6.080178173719377,-0.11182640910789268
6.1135857461024505,-0.12280288372081312
6.146993318485524,-0.09853138614973744
6.180400890868597,-0.05115473960519833
6.213808463251671,0.002773786481255005
6.247216035634745,0.0474618209486674
6.280623608017818,0.07247548992285181
6.3140311804008915,0.07584808201108385
6.347438752783965,0.06453604711336847
6.380846325167038,0.05143019702349699
6.414253897550112,0.04947214137394551
6.447661469933186,0.06514697396176462
6.481069042316259,0.09453162842202546
6.5144766146993325,0.12425787910595071
6.547884187082406,0.1373398631522748
6.581291759465479,0.12111641459488137
6.614699331848553,0.07326729623023627
6.648106904231627,0.0029030982309295574
6.6815144766147,-0.07348629586574774
6.7149220489977735,-0.13867369221653358
6.748329621380847,-0.1803493199892804
6.78173719376392,-0.19340988585768706
6.815144766146994,-0.17891359312814778
6.848552338530068,-0.14164228838887968
6.881959910913141,-0.08843514053937704
6.915367483296214,-0.028084987071765734
6.948775055679288,0.02819440386463208
6.982182628062361,0.06752745397916551
7.015590200445435,0.07837672164550465
7.048997772828509,0.055001062428811726
7.082405345211582,0.0011091748005080146
7.115812917594655,-0.0696010259106731
7.149220489977729,-0.13684742401576783
7.182628062360802,-0.17991103395058097
7.216035634743876,-0.184034951140034
7.24944320712695,-0.14472663180226292
7.282850779510023,-0.06885197827575083
7.316258351893096,0.027247100816785955
7.34966592427617,0.12174655041316947
7.383073496659243,0.19268513334735363
7.416481069042317,0.2240603544035893
7.449888641425391,0.21161012287136333
7.4832962138084635,0.16621548648700143
7.516703786191537,0.11232603944673492
7.550111358574611,0.079916821893164
7.583518930957685,0.09146131011721965
7.616926503340758,0.14893649877979673
7.650334075723832,0.22767017973707207
7.683741648106905,0.2820945856905797
7.717149220489978,0.2632749631464077
7.750556792873052,0.1417566770050909
7.783964365256126,-0.07470806642723328
7.817371937639199,-0.33797563673322584
7.850779510022273,-0.5741465469302856
7.884187082405346,-0.7108009096379003
7.917594654788419,-0.7051067621925043
7.951002227171493,-0.5601345024348567
7.984409799554567,-0.32209398527572447
8.01781737193764,-0.06029407658155876
8.051224944320714,0.16027777017283573
8.084632516703786,0.300966152976507
8.118040089086861,0.35697119430136637
8.151447661469934,0.3493756544617812
8.184855233853007,0.3084670337761764
8.218262806236082,0.2584098483143307
8.251670378619155,0.2106712255654035
8.285077951002227,0.16722506910826665
8.318485523385302,0.1286127874944403
8.351893095768375,0.09985112532212682
8.385300668151448,0.08970513389982357
8.418708240534523,0.1039568494595079
8.452115812917596,0.13767321747603642
8.485523385300668,0.17249538574344878
8.518930957683743,0.182123551252616
8.552338530066816,0.14420400032458533
8.585746102449889,0.05268498731256706
8.619153674832964,-0.07614902678889753
8.652561247216036,-0.2077783540142067
8.68596881959911,-0.3023498005661916
8.719376391982184,-0.3305941750649887
8.752783964365257,-0.28558545192617474
8.78619153674833,-0.18536821179935514
8.819599109131405,-0.0658283945060468
8.853006681514477,0.03268873291865903
8.88641425389755,0.07945505036938175
8.919821826280625,0.0630620007491982
8.953229398663698,-0.006081234292031376
8.98663697104677,-0.10057028996775863
9.020044543429846,-0.18605837118919466
9.053452115812918,-0.23315615117664273
9.086859688195991,-0.22742962265943215
9.120267260579066,-0.17423901800990607
9.153674832962139,-0.0965188577739151
9.187082405345212,-0.025774320302787004
9.220489977728286,0.010846011758656774
9.25389755011136,0.0024973026506443356
9.287305122494432,-0.03960371176214078
9.320712694877507,-0.08571841233772907
9.35412026726058,-0.09960206249152642
9.387527839643653,-0.05421239989409895
9.420935412026727,0.055593907256759105
9.4543429844098,0.20887887169845315
9.487750556792873,0.3647246952981476
9.521158129175948,0.47604249597948955
9.55456570155902,0.5056312708294769
9.587973273942094,0.4387009617248245
9.621380846325168,0.28795780954110645
9.654788418708241,0.09018351051458982
9.688195991091314,-0.10422525016476278
9.721603563474389,-0.24563028853298155
9.755011135857462,-0.2994826486657353
9.788418708240535,-0.25652848243393145
9.82182628062361,-0.13557246244057344
9.855233853006682,0.02256026237867908
9.888641425389755,0.168273858009493
9.92204899777283,0.25919301403616485
9.955456570155903,0.27308559470051774
9.988864142538976,0.21302618875751606
10.02227171492205,0.10333739690716985
10.055679287305123,-0.021334343528958997
10.089086859688196,-0.12887713510802878
10.12249443207127,-0.1993843317156984
10.155902004454344,-0.22856486329636555
10.189309576837417,-0.22487382344618378
10.222717149220491,-0.20287026089777072
10.256124721603564,-0.17630702695005745
10.289532293986637,-0.15380020782195084
10.322939866369712,-0.13818230012746333
10.356347438752785,-0.12869870173995485
10.389755011135858,-0.12393294089542237
10.423162583518932,-0.12332192516944802
10.456570155902005,-0.12635866376174293
10.489977728285078,-0.13038341526518304
10.523385300668153,-0.12909619063406214
10.556792873051226,-0.1136725812379785
10.590200445434299,-0.0766437802655377
10.623608017817373,-0.016592691987036175
10.657015590200446,0.05928004137060186
10.69042316258352,0.13670523901011486
10.723830734966594,0.19957393957353076
10.757238307349667,0.2361208685775657
10.790645879732741,0.2427672841395418
10.824053452115814,0.2238982672162636
10.857461024498887,0.18847130470633686
10.890868596881962,0.14618466210999354
10.924276169265035,0.10570470539987811
10.957683741648108,0.07537679345857351
10.991091314031182,0.06447981557459972
11.024498886414255,0.08223805902594836
11.057906458797328,0.13327676076511333
11.091314031180403,0.2111984076542333
11.124721603563476,0.29450065609153503
11.158129175946549,0.3492123376985334
11.191536748329623,0.3397149910816326
11.224944320712696,0.2444342236761317
11.25835189309577,0.06906972549173776
11.291759465478844,-0.15047731173083187
11.325167037861917,-0.3592006226232492
11.35857461024499,-0.5046532881694293
11.391982182628064,-0.5593203250184262
11.425389755011137,-0.532229120118161
11.45879732739421,-0.46311308226744163
11.492204899777285,-0.4014282002716045
11.525612472160358,-0.3807305656117704
11.55902004454343,-0.40158007922931366
11.592427616926505,-0.4316567824151423
11.625835189309578,-0.4227315883669079
11.659242761692651,-0.3355794697650343
11.692650334075726,-0.16034199685111722
11.726057906458799,0.0772748337472674
11.759465478841872,0.32620341892957194
11.792873051224946,0.5309725992895451
11.82628062360802,0.6532146119451829
11.859688195991092,0.6841241051374422
11.893095768374167,0.6432813830700777
11.92650334075724,0.5659020197364856
11.959910913140313,0.48559822893656746
11.993318485523387,0.4209299051321834
12.02672605790646,0.37119909419141334
12.060133630289533,0.32187858308558975
12.093541202672608,0.25549145159130837
12.12694877505568,0.16187802111709226
12.160356347438753,0.04314956643542875
12.193763919821828,-0.08798102913650077
12.227171492204901,-0.21443674275862049
12.260579064587974,-0.3218152454004985
12.293986636971049,-0.4028438675097873
12.327394209354122,-0.4576809902555486
12.360801781737194,-0.4906219080360933
12.39420935412027,-0.5052698073983922
12.427616926503342,-0.5006748148284609
12.461024498886415,-0.470375992716308
12.49443207126949,-0.4050467703091271
12.527839643652563,-0.2979754586027852
12.561247216035635,-0.15131686590466378
12.59465478841871,0.01968053944580937
12.628062360801783,0.18704516356938106
12.661469933184856,0.31620375564212144
12.69487750556793,0.37660906816485895
12.728285077951004,0.3531592454237714
12.761692650334076,0.2535047938362355
12.795100222717151,0.10744854936329525
12.828507795100224,-0.04210998159672219
12.861915367483297,-0.15338089294981477
12.895322939866372,-0.19934562971155026
12.928730512249444,-0.17553518321117348
12.962138084632517,-0.09936018448564463
12.995545657015592,-0.002006438726869251
13.028953229398665,0.08346870933970313
13.062360801781738,0.13342357416307077
13.095768374164813,0.1407390608784619
13.129175946547885,0.11586977870440168
13.162583518930958,0.08178374919570727
13.195991091314033,0.06439620037240194
13.229398663697106,0.08154748090504663
13.262806236080179,0.1345451033405507
13.296213808463254,0.20612854782739762
13.329621380846326,0.26676128735703797
13.3630289532294,0.28755646586093375
13.396436525612474,0.25436817155326963
13.429844097995547,0.17590808622393497
13.46325167037862,0.08081339307953522
13.496659242761694,0.003977979959022883
13.530066815144767,-0.03150208585145758
13.56347438752784,-0.027256667354549912
13.596881959910915,-0.009875053494666353
13.630289532293988,-0.017309716127384363
13.66369710467706,-0.07790352097546319
13.697104677060135,-0.19297969780932095
13.730512249443208,-0.3325893328364584
13.763919821826281,-0.44731830263993005
13.797327394209356,-0.49057533086513155
13.830734966592429,-0.4401873559549821
13.864142538975502,-0.3085106655201041
13.897550111358576,-0.13635348359072672
13.93095768374165,0.02563261705741629
13.964365256124722,0.13835378498868
13.997772828507797,0.18802391790087641
14.03118040089087,0.18651582941946085
14.064587973273943,0.15981376828265206
14.097995545657017,0.13190189288586143
14.13140311804009,0.11295478279731243
14.164810690423163,0.09750796171366792
14.198218262806238,0.0724042982286746
14.23162583518931,0.028969803347429164
14.265033407572384,-0.028174193717272197
14.298440979955458,-0.08106292107397656
14.331848552338531,-0.10736074214338769
14.365256124721604,-0.09334796482820189
14.398663697104679,-0.04341741444276131
14.432071269487752,0.019764417153275895
14.465478841870825,0.0653183141345792
14.4988864142539,0.06971195931532413
14.532293986636972,0.02984307012830676
14.565701559020045,-0.03345503765658363
14.59910913140312,-0.08397244582017982
14.632516703786193,-0.08717733641975807
14.665924276169266,-0.027713456605857778
14.69933184855234,0.08136796792081429
14.732739420935413,0.20271226173501072
14.766146993318486,0.29080033328986304
14.79955456570156,0.31270379166103346
14.832962138084634,0.26330561053288914
14.866369710467707,0.16718600078638657
14.899777282850781,0.06593979573553764
14.933184855233854,-0.002782426818776139
14.966592427616927,-0.023754905971248342
15.0,-0.010571759709862585
