Frequency (Hz),Amplitude
0.0,0.27168592381715084
0.019867549668874173,0.3009600261968658
0.039735099337748346,0.37523566686891346
0.059602649006622516,0.4735920682416185
0.07947019867549669,0.5837037493981678
0.09933774834437085,0.6997169269099306
0.11920529801324503,0.8187688405652355
0.13907284768211922,0.9393252134559537
0.15894039735099338,1.0604785948063873
0.17880794701986755,1.1816405167370807
0.1986754966887417,1.3023966774973739
0.2185430463576159,1.4224339312982832
0.23841059602649006,1.5415011457788859
0.2582781456953642,1.659387078683679
0.27814569536423844,1.775907299763016
0.2980132450331126,1.8908961604108183
0.31788079470198677,2.0042017023816117
0.33774834437086093,2.1156823423387787
0.3576158940397351,2.2252046647160437
0.3774834437086093,2.3326419262578617
0.3973509933774834,2.4378730291500035
0.4172185430463576,2.540781809579392
0.4370860927152318,2.641256542795289
0.45695364238410596,2.739189599324675
0.4768211920529801,2.83447720828876
0.49668874172185434,2.9270192975655447
0.5165562913907285,3.0167193896627476
0.5364238410596026,3.1034845383019958
0.5562913907284769,3.1872252949140134
0.5761589403973509,3.267855697161663
0.5960264900662252,3.345293273663621
0.6158940397350993,3.4194590605594333
0.6357615894039735,3.4902776266180693
0.6556291390728477,3.55767710436843
0.6754966887417219,3.621589225304327
0.695364238410596,3.68194935764536
0.7152317880794702,3.738696545459049
0.7350993377483444,3.7917735481961126
0.7549668874172186,3.8411268798808957
0.7748344370860927,3.886706847345931
0.7947019867549668,3.928467587015692
0.8145695364238411,3.9663670998354763
0.8344370860927152,4.00036728401488
0.8543046357615894,4.030433965313734
0.8741721854304636,4.056536924647301
0.8940397350993378,4.078649922826266
0.9139072847682119,4.096750722281313
0.9337748344370861,4.110821105649495
0.9536423841059603,4.120846891124536
0.9735099337748344,4.126817944494224
0.9933774834437087,4.128728187807359
1.0132450331125828,4.12657560463034
1.033112582781457,4.120362241869704
1.0529801324503312,4.11009420815291
1.0728476821192052,4.095781668775437
1.0927152317880795,4.0774388372376515
1.1125827814569538,4.05508396341202
1.1324503311258278,4.028739318398276
1.1523178807947019,3.998431176143844
1.1721854304635762,3.964189791928129
1.1920529801324504,3.9260493778340653
1.2119205298013245,3.884048075358323
1.2317880794701985,3.8382279253459046
1.2516556291390728,3.7886348354743924
1.271523178807947,3.735318545562041
1.2913907284768211,3.6783325910339197
1.3112582781456954,3.6177342649538446
1.3311258278145695,3.553584579122894
1.3509933774834437,3.4859482248626232
1.370860927152318,3.414893534250456
1.390728476821192,3.3404924427683604
1.410596026490066,3.2628204545761204
1.4304635761589404,3.1819566119510507
1.4503311258278146,3.0979834708724447
1.4701986754966887,3.0109870853150547
1.4900662251655628,2.921057003608104
1.5099337748344372,2.8282862813011587
1.5298013245033113,2.7327715164797746
1.5496688741721854,2.6346129155792863
1.5695364238410596,2.533914400736134
1.5894039735099337,2.4307837740272618
1.609271523178808,2.325332960256928
1.6291390728476822,2.217678359341009
1.6490066225165563,2.107941353570881
1.6688741721854303,1.99624903704367
1.6887417218543048,1.8827352693174932
1.7086092715231789,1.7675422116352089
1.728476821192053,1.6508225976241797
1.7483443708609272,1.532743150586224
1.7682119205298013,1.4134898430244898
1.7880794701986755,1.2932762148017165
1.8079470198675496,1.1723569635147202
1.8278145695364238,1.051051022283743
1.847682119205298,0.929782576672382
1.8675496688741722,0.8091579846148331
1.8874172185430464,0.6901193202636872
1.9072847682119205,0.5742731303477213
1.9271523178807946,0.46464508574033836
1.9470198675496688,0.36747225765073616
1.9668874172185429,0.2958656442097727
1.9867549668874174,0.27127401833329484
2.0066225165562916,0.30537738541053316
2.0264900662251657,0.3827023718027182
2.0463576158940397,0.4827025151117718
2.066225165562914,0.593751061138237
2.086092715231788,0.7103588234116948
2.1059602649006623,0.8298276310734767
2.1258278145695364,0.9507002614374808
2.1456953642384105,1.0721079638006943
2.165562913907285,1.1934830919587178
2.185430463576159,1.314423233407582
2.205298013245033,1.4346223743593782
2.2251655629139075,1.5538338352228516
2.2450331125827816,1.6718492431197
2.2649006622516556,1.7884860618070333
2.2847682119205297,1.9035799139981837
2.3046357615894038,2.0169797027691794
2.324503311258278,2.128544428842029
2.3443708609271523,2.2381410688378978
2.364238410596027,2.345643136264002
2.384105960264901,2.4509296928814095
2.403973509933775,2.553884663750289
2.423841059602649,2.654396361015715
2.443708609271523,2.752357153615004
2.463576158940397,2.8476632404906264
2.4834437086092715,2.940214498135769
2.5033112582781456,3.029914382065209
2.52317880794702,3.1166698677112765
2.543046357615894,3.2003914202911874
2.562913907284768,3.280992986007507
2.5827814569536423,3.358391998929042
2.6026490066225163,3.4325093993196205
2.622516556291391,3.5032696602090763
2.642384105960265,3.570600819753551
2.662251655629139,3.6344345174883324
2.6821192052980134,3.6947060329932917
2.7019867549668874,3.751354325805087
2.7218543046357615,3.8043220756505445
2.741721854304636,3.8535557222600243
2.76158940397351,3.899005504163232
2.781456953642384,3.9406254959825455
2.801324503311258,3.9783736438280495
2.821192052980132,4.0122117984695596
2.8410596026490067,4.0421057460191
2.8609271523178808,4.068025235903654
2.8807947019867552,4.089944005947415
2.9006622516556293,4.107839804415183
2.9205298013245033,4.121694408896297
2.9403973509933774,4.1314936419323
2.9602649006622515,4.137227383312864
2.9801324503311255,4.138889578983006
3.0,4.136478246522311
3.0198675496688745,4.12999547717284
3.0397350993377485,4.119447434408387
3.0596026490066226,4.104844349052923
3.0794701986754967,4.08620051097215
3.0993377483443707,4.063534257378173
3.119205298013245,4.036867957805275
3.1390728476821192,4.006227995833459
3.1589403973509933,3.971644747658522
3.1788079470198674,3.933152557631414
3.198675496688742,3.8907897109185554
3.218543046357616,3.844598403468141
3.23841059602649,3.794624709507899
3.2582781456953644,3.740918546848247
3.2781456953642385,3.683533640325341
3.2980132450331126,3.6225274837919272
3.3178807947019866,3.5579613011577513
3.3377483443708607,3.4899000070987616
3.3576158940397347,3.418412168205005
3.3774834437086096,3.343569965531157
3.3973509933774837,3.265449159766732
3.4172185430463577,3.1841290605749606
3.437086092715232,3.0996925020905457
3.456953642384106,3.0122258271577
3.47682119205298,2.9218188836907757
3.4966887417218544,2.828565037637582
3.5165562913907285,2.7325612085466164
3.5364238410596025,2.633907935875246
3.556291390728477,2.532709487214141
3.576158940397351,2.42907402398867
3.596026490066225,2.3231138466268124
3.615894039735099,2.214945750768632
3.6357615894039736,2.104691540648405
3.6556291390728477,1.9924787683354976
3.6754966887417218,1.878441803246057
3.695364238410596,1.7627233943227159
3.7152317880794703,1.645476983959877
3.7350993377483444,1.5268701988565125
3.754966887417219,1.4070902380875336
3.774834437086093,1.2863524230955965
3.794701986754967,1.1649142221581497
3.814569536423841,1.043099177766347
3.834437086092715,0.9213396752024928
3.854304635761589,0.8002577004701209
3.8741721854304636,0.6808273996729365
3.8940397350993377,0.5647266553793976
3.9139072847682117,0.45515321660700775
3.9337748344370858,0.35877892931365285
3.9536423841059607,0.289672027261546
3.9735099337748347,0.27002666836197425
3.993377483443709,0.30949887016304256
4.013245033112583,0.39045509455469085
4.033112582781457,0.4926434879590778
4.052980132450331,0.6051201701424959
4.072847682119205,0.722769560110163
4.0927152317880795,0.8430697186041718
4.112582781456953,0.9646492142783651
4.132450331125828,1.0866838446438667
4.152317880794702,1.2086306013414414
4.172185430463576,1.3301014494059946
4.19205298013245,1.4507991351796217
4.211920529801325,1.5704824960878836
4.231788079470199,1.6889467163277911
4.251655629139073,1.8060115849392977
4.271523178807947,1.9215142493797301
4.291390728476821,2.035304602121814
4.311258278145695,2.147242266509892
4.33112582781457,2.257194585374643
4.3509933774834435,2.365035256204828
4.370860927152318,2.470643393586747
4.390728476821192,2.573902880182498
4.410596026490066,2.674701916309473
4.43046357615894,2.7729327085107953
4.450331125827815,2.8684912568061014
4.470198675496689,2.9612772128580835
4.490066225165563,3.0511937896067276
4.509933774834438,3.1381477085351985
4.529801324503311,3.222049174580781
4.549668874172186,3.302811871385071
4.569536423841059,3.3803529714713414
4.589403973509934,3.4545931572917756
4.6092715231788075,3.525456650068602
4.629139072847682,3.592871244072762
4.649006622516556,3.656768344516298
4.66887417218543,3.7170830076335584
4.688741721854305,3.7737539818277672
4.708609271523179,3.82672374898987
4.728476821192054,3.8759385652737803
4.748344370860927,3.9213485007500672
4.768211920529802,3.962907477468682
4.788079470198675,4.000573305546934
4.80794701986755,4.034307716967789
4.827814569536423,4.064076396829201
4.847682119205298,4.089849011830524
4.867549668874172,4.111599235819944
4.887417218543046,4.129304772258145
4.9072847682119205,4.142947373480725
4.927152317880794,4.15251285666471
4.947019867549669,4.157991116425353
4.966887417218543,4.159376133987656
4.986754966887418,4.156665982894164
5.006622516556291,4.14986283122621
5.026490066225166,4.13897294033171
5.04635761589404,4.124006660067271
5.066225165562914,4.104978420578256
5.086092715231788,4.0819067206566855
5.105960264900662,4.054814112733843
5.125827814569536,4.023727184583852
5.14569536423841,3.988676537835598
5.1655629139072845,3.949696763414264
5.185430463576159,3.9068264140630142
5.205298013245033,3.8601079741270974
5.225165562913908,3.809587826824196
5.245033112582782,3.755316219271879
5.264900662251656,3.697347225603262
5.28476821192053,3.635738708575287
5.304635761589404,3.5705522801667566
5.324503311258278,3.501853261779998
5.344370860927152,3.429710644810281
5.364238410596027,3.3541970525398597
5.3841059602649,3.275388704565577
5.403973509933775,3.1933653853003063
5.4238410596026485,3.108210418528551
5.443708609271523,3.0200106505871602
5.463576158940397,2.928856445543711
5.483443708609272,2.8348416968442143
5.503311258278146,2.738063861427756
5.52317880794702,2.638624024451247
5.543046357615895,2.536627005824251
5.562913907284768,2.4321815241745086
5.582781456953643,2.325400440357546
5.602649006622516,2.21640111232529
5.622516556291391,2.105305907936607
5.642384105960264,1.992242945234766
5.662251655629139,1.877347166164392
5.682119205298013,1.7607619090498883
5.701986754966887,1.6426412444797913
5.7218543046357615,1.5231535106071523
5.741721854304636,1.402486789804858
5.7615894039735105,1.2808576361513804
5.781456953642384,1.158525462748556
5.801324503311259,1.0358172353224955
5.821192052980132,0.9131719318353696
5.841059602649007,0.7912252473329069
5.860927152317881,0.6709820089785977
5.880794701986755,0.5541942913691567
5.900662251655629,0.44425390718437585
5.920529801324503,0.3483630142721754
5.940397350993377,0.2818386551243393
5.960264900662251,0.2679021911404424
5.980132450331126,0.3137171104429386
6.0,0.39910390014233815
6.0198675496688745,0.5041261402676285
6.039735099337749,0.6185764323280656
6.059602649006623,0.7377482129474818
6.079470198675497,0.8593174434531212
6.099337748344371,0.9820115230189648
6.119205298013245,1.1050587366766857
6.139072847682119,1.2279456560677495
6.158940397350993,1.350301768751706
6.178807947019867,1.4718406169378973
6.198675496688741,1.5923278851195914
6.218543046357616,1.7115631826808215
6.23841059602649,1.8293691818330546
6.258278145695365,1.9455848996470795
6.2781456953642385,2.060061413826013
6.298013245033113,2.1726590603133564
6.317880794701987,2.283245562083568
6.337748344370861,2.3916947595237095
6.357615894039735,2.4978857390624474
6.377483443708609,2.6017022311499765
6.397350993377484,2.7030321938720614
6.417218543046357,2.801767526616985
6.437086092715232,2.8978038761491645
6.456953642384105,2.9910405091215995
6.47682119205298,3.0813802328117106
6.496688741721854,3.168729351104091
6.516556291390729,3.25299764634178
6.5364238410596025,3.3340983801764255
6.556291390728477,3.411948308322177
6.5761589403973515,3.486467705388627
6.596026490066225,3.5575803968897435
6.6158940397351,3.625213796202063
6.635761589403973,3.6892989447462443
6.655629139072848,3.7497705540420156
6.675496688741721,3.8065670485705576
6.695364238410596,3.859630608595787
6.715231788079469,3.908907212263264
6.735099337748344,3.9543466764260624
6.754966887417219,3.9959026957495523
6.774834437086093,4.033532879728175
6.794701986754967,4.067198787312759
6.814569536423841,4.096865958899717
6.8344370860927155,4.122503945476576
6.854304635761589,4.1440863347547205
6.874172185430464,4.16159077414958
6.894039735099337,4.174998990495282
6.913907284768212,4.1842968064020845
6.933774834437086,4.189474153185488
6.95364238410596,4.19052508031326
6.973509933774834,4.187447761332973
6.993377483443709,4.180244496258437
7.013245033112583,4.168921710407902
7.033112582781457,4.15348994970233
7.052980132450331,4.133963872446438
7.072847682119205,4.11036223763176
7.0927152317880795,4.082707889817318
7.112582781456954,4.051027740662389
7.132450331125828,4.015352747206508
7.152317880794702,3.9757178870155947
7.172185430463576,3.9321621303406924
7.19205298013245,3.884728409468401
7.211920529801324,3.8334635854809984
7.231788079470198,3.7784184126917864
7.251655629139073,3.7196475010789785
7.271523178807947,3.6572092771142484
7.291390728476822,3.5911659434719576
7.311258278145695,3.521583438220444
7.33112582781457,3.4485313942434006
7.3509933774834435,3.3720830998292888
7.370860927152318,3.2923154616142836
7.390728476821192,3.2093089713903167
7.410596026490066,3.1231476787236025
7.430463576158941,3.0339191719117085
7.450331125827814,2.941714570599477
7.470198675496689,2.846628534461622
7.490066225165562,2.7487592938731096
7.509933774834438,2.648208710618946
7.52980132450331,2.545082379737859
7.549668874172186,2.439489788003132
7.569536423841059,2.331544551036322
7.589403973509934,2.221364760775434
7.6092715231788075,2.109073489868857
7.629139072847682,1.9947995227108732
7.649006622516557,1.8786784197392485
7.66887417218543,1.7608540819587706
7.6887417218543055,1.6414810841149219
7.708609271523178,1.5207282209378659
7.728476821192054,1.398784027020176
7.748344370860927,1.275865621619915
7.768211920529802,1.152233383898296
7.788079470198675,1.0282163368029562
7.80794701986755,0.9042582852434514
7.827814569536423,0.7810067652876407
7.847682119205298,0.6594968385564449
7.8675496688741715,0.5415620041567661
7.887417218543046,0.4308278376213755
7.907284768211921,0.33519060483093216
7.927152317880795,0.2716999032385513
7.9470198675496695,0.26493546124516426
7.966887417218543,0.3185883935857765
7.986754966887418,0.40944099367572045
8.006622516556291,0.5180548974982504
8.026490066225167,0.6350893562215412
8.046357615894038,0.7563083789251605
8.066225165562914,0.8796172917924356
8.086092715231787,1.0038596530092971
8.105960264900663,1.1283263246179014
8.125827814569536,1.2525395952161738
8.14569536423841,1.3761503366443548
8.165562913907285,1.498885378203235
8.185430463576159,1.620518884061773
8.205298013245034,1.7408559650257254
8.225165562913906,1.8597228816487117
8.245033112582782,1.9769609722147576
8.264900662251655,2.0924227744451174
8.28476821192053,2.205969486369297
8.304635761589404,2.3174692707052174
8.324503311258278,2.426796105337556
8.344370860927151,2.5338289959787756
8.364238410596027,2.6384514341800593
8.3841059602649,2.7405510246580347
8.403973509933774,2.840019231361076
8.42384105960265,2.936751207958783
8.443708609271523,3.030645689043306
8.463576158940398,3.1216049253835836
8.483443708609272,3.209534651346067
8.503311258278146,3.2943440758786373
8.52317880794702,3.3759458907461473
8.543046357615895,3.4542562913294224
8.562913907284768,3.52919500646323
8.582781456953642,3.600685334633917
8.602649006622515,3.6686541844782043
8.62251655629139,3.7330321179851444
8.642384105960264,3.7937533951489577
8.66225165562914,3.8507560190824837
8.682119205298013,3.9039817808010064
8.701986754966887,3.953376303041253
8.721854304635762,3.998889082600826
8.741721854304636,4.040473530778151
8.76158940397351,4.078087011569083
8.781456953642383,4.1116908773361285
8.801324503311259,4.141250501716196
8.821192052980132,4.166735309572756
8.841059602649008,4.1881188038319985
8.86092715231788,4.2053785890710405
8.880794701986755,4.218496391750176
8.90066225165563,4.227458077002547
8.920529801324504,4.232253661913168
8.940397350993377,4.232877325235918
8.960264900662251,4.229327413513195
8.980132450331126,4.221606443577219
9.0,4.209721101426601
9.019867549668875,4.1936822374858025
9.039735099337747,4.173504858269987
9.059602649006623,4.149208114492435
9.079470198675496,4.12081528566865
9.099337748344372,4.088353761288461
9.119205298013245,4.0518550186479825
9.139072847682119,4.011354597455799
9.158940397350994,3.9668920713544624
9.178807947019868,3.9185110165294916
9.198675496688743,3.866258977615951
9.218543046357615,3.8101874311576402
9.23841059602649,3.750351746930637
9.258278145695364,3.686811147511539
9.27814569536424,3.619628666558705
9.298013245033111,3.548871106384898
9.317880794701987,3.474608995541762
9.33774834437086,3.3969165473194245
9.357615894039736,3.3158716203041987
9.37748344370861,3.2315556824523255
9.397350993377483,3.144053780558629
9.417218543046358,3.053454517564168
9.437086092715232,2.9598500409174258
9.456953642384107,2.863336046263366
9.47682119205298,2.7640118022118094
9.496688741721854,2.661980204022279
9.516556291390728,2.5573478670275462
9.536423841059603,2.4502252749565874
9.556291390728477,2.3407270047257156
9.57615894039735,2.2289720588988557
9.596026490066224,2.1150843517808124
9.6158940397351,1.9991934182135649
9.635761589403973,1.8814354511641425
9.655629139072847,1.7619548350457814
9.675496688741722,1.6409064446561334
9.695364238410596,1.5184591594299834
9.715231788079471,1.3948013683241238
9.735099337748345,1.2701498548673198
9.754966887417218,1.1447646655555015
9.774834437086092,1.0189750935640323
9.794701986754967,0.893227508981772
9.814569536423841,0.7681790530868564
9.834437086092716,0.6448952586505696
9.854304635761588,0.5253039415162453
9.874172185430464,0.41333183529281464
9.894039735099337,0.3178527788730866
9.913907284768213,0.2584762055819063
9.933774834437086,0.2614294834766353
9.95364238410596,0.32505192336525546
9.973509933774835,0.42264713490444733
9.993377483443709,0.5357240544019107
10.013245033112582,0.6560235232398346
10.033112582781456,0.7798658962891709
10.052980132450331,0.9054258021192066
10.072847682119205,1.0316839499100732
10.09271523178808,1.158005730538553
10.112582781456952,1.2839563464546697
10.132450331125828,1.4092125676113374
10.152317880794701,1.5335174253795052
10.172185430463577,1.656655482800086
10.192052980132452,1.7784386280700537
10.211920529801324,1.8986975577521372
10.2317880794702,2.017276486537354
10.251655629139073,2.1340297634697087
10.271523178807948,2.2488196554778086
10.29139072847682,2.361514868169382
10.311258278145695,2.4719895450967235
10.331125827814569,2.580122585023291
10.350993377483444,2.685797174993174
10.370860927152318,2.788900472534333
10.390728476821192,2.8893233925495356
10.410596026490065,2.9869604686731908
10.43046357615894,3.0817097681697416
10.450331125827816,3.173472845644015
10.470198675496688,3.2621547250331644
10.490066225165563,3.3476639022442365
10.509933774834437,3.429912362824937
10.529801324503312,3.5088156104904256
10.549668874172186,3.584292703359833
10.56953642384106,3.6562662955058425
10.589403973509933,3.7246626819719264
10.609271523178808,3.789411845821472
10.629139072847682,3.850447506091188
10.649006622516556,3.907707165754706
10.66887417218543,3.9611321589810107
10.688741721854305,4.0106676971114075
10.70860927152318,4.056262912886183
10.728476821192054,4.0978709025381415
10.748344370860927,4.1354487654375935
10.7682119205298,4.168957641028582
