Frequency (Hz),Amplitude
0.0,2.0756978004433013
0.019823788546255508,2.0755079772898877
0.039647577092511016,2.074939119746405
0.059471365638766524,2.073993062625845
0.07929515418502203,2.0726728608172973
0.09911894273127755,2.0709827845584026
0.11894273127753305,2.068928312759139
0.13876651982378857,2.0665161243199393
0.15859030837004406,2.0637540873703255
0.17841409691629956,2.060651246339042
0.1982378854625551,2.05721780675061
0.2180616740088106,2.0534651176284764
0.2378854625550661,2.049405651370092
0.25770925110132165,2.045052980945924
0.27753303964757714,2.040421754261325
0.29735682819383263,2.035527665508983
0.31718061674008813,2.030387423329755
0.3370044052863437,2.0250187155917403
0.3568281938325991,2.0194401705919565
0.37665198237885467,2.0136713144820737
0.3964757709251102,2.007732524720355
0.41629955947136565,2.0016449793560684
0.4361233480176212,1.9954306019615207
0.4559471365638767,1.9891120020403414
0.4757709251101322,1.9827124107599736
0.49559471365638774,1.9762556118814485
0.5154185022026433,1.9697658677914576
0.5352422907488987,1.963267840580685
0.5550660792951543,1.9567865081585414
0.5748898678414097,1.9503470754485552
0.5947136563876653,1.9439748807699806
0.6145374449339208,1.9376952975804784
0.6343612334801763,1.9315336318306366
0.6541850220264318,1.9255150152634664
0.6740088105726874,1.9196642950797485
0.6938325991189428,1.914005920481795
0.7136563876651982,1.9085638267019918
0.7334801762114539,1.9033613172165047
0.7533039647577093,1.8984209449368843
0.7731277533039648,1.893764393258909
0.7929515418502204,1.8894123579284605
0.8127753303964759,1.885384430752982
0.8325991189427313,1.8816989862431959
0.8524229074889869,1.8783730723095158
0.8722466960352424,1.8754223061586244
0.8920704845814978,1.8728607765356868
0.9118942731277534,1.870700953435466
0.931718061674009,1.8689536063593415
0.9515418502202644,1.8676277321255506
0.9713656387665199,1.8667304931466961
0.9911894273127755,1.8662671669734934
1.0110132158590308,1.8662411077686532
1.0308370044052866,1.8666537202234954
1.0506607929515421,1.8675044462646804
1.0704845814977975,1.8687907647251818
1.090308370044053,1.8705082039755807
1.1101321585903086,1.8726503673339798
1.1299559471365639,1.875208970900988
1.1497797356828194,1.8781738933031877
1.1696035242290752,1.8815332366797406
1.1894273127753305,1.8852733981154641
1.209251101321586,1.8893791506117856
1.2290748898678416,1.8938337325980972
1.248898678414097,1.898618944919701
1.2687224669603525,1.9037152541961126
1.288546255506608,1.9091019014245345
1.3083700440528636,1.914757014705951
1.3281938325991192,1.9206577249944208
1.3480176211453747,1.9267802838115617
1.36784140969163,1.9331001819246516
1.3876651982378856,1.9395922680562685
1.4074889867841411,1.9462308667723278
1.4273127753303965,1.9529898947816235
1.4471365638766522,1.9598429749699329
1.4669603524229078,1.966763547583814
1.4867841409691631,1.9737249780705928
1.5066079295154187,1.9807006611697586
1.5264317180616742,1.9876641209358492
1.5462555066079295,1.9945891064524923
1.5660792951541853,2.0014496830700352
1.5859030837004409,2.0082203190658303
1.6057268722466962,2.0148759676848864
1.6255506607929517,2.0213921445700964
1.6453744493392073,2.0277450006353614
1.6651982378854626,2.0339113904719337
1.6850220264317182,2.0398689364082325
1.7048458149779737,2.0455960883674456
1.7246696035242293,2.0510721796847915
1.7444933920704848,2.056277479059329
1.7643171806167404,2.061193238822686
1.7841409691629957,2.065801739710921
1.8039647577092512,2.0700863323255954
1.8237885462555068,2.0740314754669935
1.8436123348017623,2.0776227715161495
1.863436123348018,2.0808469990343443
1.8832599118942732,2.083692142738221
1.9030837004405288,2.0861474209967787
1.9229074889867843,2.088203310983152
1.9427312775330399,2.0898515715996138
1.9625550660792954,2.09108526427862
1.982378854625551,2.091898771746518
2.002202643171806,2.0922878148194255
2.0220264317180616,2.092249467282776
2.041850220264317,2.0917821688880798
2.061674008810573,2.0908857364810443
2.0814977973568287,2.089561373255797
2.1013215859030843,2.087811676109719
2.1211453744493394,2.085640641052594
2.140969162995595,2.0830536666024178
2.1607929515418505,2.080057555077933
2.180616740088106,2.076660511675665
2.2004405286343616,2.07287214119563
2.220264317180617,2.0687034422563517
2.2400881057268722,2.064166798815438
2.2599118942731278,2.0592759687877913
2.2797356828193833,2.05404606952862
2.299559471365639,2.0484935599241356
2.319383259911895,2.0426362188092035
2.3392070484581504,2.0364931194078975
2.3590308370044055,2.0300845994716745
2.378854625550661,2.0234322267705944
2.3986784140969166,2.016558759576362
2.418502202643172,2.0094881017631483
2.4383259911894277,2.0022452521442275
2.4581497797356833,1.9948562476598597
2.4779735682819384,1.9873481000367519
2.497797356828194,1.9797487255519324
2.5176211453744495,1.9720868675568628
2.537444933920705,1.9643920114504638
2.5572687224669606,1.956694291836078
2.577092511013216,1.9490243916561403
2.5969162995594717,1.9414134331726858
2.6167400881057272,1.933892860750988
2.6365638766519828,1.9264943155090786
2.6563876651982383,1.9192495020173819
2.676211453744494,1.9121900473696585
2.6960352422907494,1.9053473530975387
2.715859030837005,1.8987524405652711
2.73568281938326,1.8924357906543732
2.7555066079295156,1.8864271787282878
2.775330396475771,1.8807555060485586
2.7951541850220267,1.8754486289928767
2.8149779735682823,1.87053318759456
2.834801762114538,1.866034435076925
2.854625550660793,1.86197607018798
2.874449339207049,1.85838007424367
2.8942731277533045,1.8552665548560805
2.91409691629956,1.8526535983503765
2.9339207048458156,1.8505571328564212
2.953744493392071,1.8489908039953853
2.9735682819383262,1.8479658649659032
2.993392070484582,1.8474910826704747
3.0132158590308373,1.847572661311597
3.033039647577093,1.8482141846355618
3.0528634361233484,1.8494165777143985
3.072687224669604,1.8511780888430172
3.092511013215859,1.8534942917980919
3.1123348017621146,1.856358108368198
3.1321585903083706,1.8597598507320925
3.151982378854626,1.8636872829439644
3.1718061674008817,1.8681257004914271
3.1916299559471373,1.8730580266313235
3.2114537444933924,1.8784649239882398
3.231277533039648,1.8843249197249363
3.2511013215859035,1.8906145424659893
3.270925110132159,1.8973084690768773
3.2907488986784146,1.9043796793691472
3.31057268722467,1.9117996168155738
3.3303964757709252,1.9195383534131878
3.350220264317181,1.9275647569214416
3.3700440528634363,1.9358466588211785
3.389867841409692,1.9443510214819473
3.4096916299559474,1.953044103182958
3.4295154185022034,1.961891619801436
3.4493392070484585,1.9708589021550063
3.469162995594714,1.979911048156685
3.4889867841409696,1.9890130691087846
3.508810572687225,1.9981300296203524
3.5286343612334807,2.0072271807807294
3.5484581497797363,2.0162700863558602
3.5682819383259914,2.025224741894226
3.588105726872247,2.0340576867339117
3.6079295154185025,2.0427361089923113
3.627753303964758,2.0512279436951744
3.6475770925110136,2.0595019642625116
3.667400881057269,2.067527867617361
3.6872246696035247,2.075276353219493
3.7070484581497802,2.0827191963515945
3.726872246696036,2.0898293160020125
3.7466960352422913,2.0965808376958703
3.7665198237885464,2.1029491516278407
3.7863436123348024,2.1089109664450283
3.8061674008810575,2.114444359019084
3.8259911894273135,2.1195288205333487
3.8458149779735686,2.1241452991945273
3.8656387665198246,2.1282762398595225
3.8854625550660797,2.1319056208476153
3.905286343612335,2.1350189881860766
3.925110132158591,2.137603487514417
3.9449339207048464,2.139647893848637
3.964757709251102,2.1411426393826156
3.9845814977973575,2.142079839478765
4.004405286343612,2.1424533169750117
4.024229074889869,2.142258624909015
4.044052863436123,2.1414930677344897
4.06387665198238,2.140155721076993
4.083700440528634,2.1382474500486697
4.103524229074891,2.135770926112282
4.123348017621146,2.1327306424539847
4.143171806167401,2.129132927792473
4.162995594713657,2.1249859585179145
4.182819383259912,2.1202997690176284
4.2026431718061685,2.1150862600073332
4.222466960352423,2.109359204644802
4.242290748898679,2.103134252159342
4.262114537444934,2.096428928682806
4.28193832599119,2.0892626349180485
4.301762114537445,2.081656640227417
4.321585903083701,2.0736340726679052
4.3414096916299565,2.065219904441284
4.361233480176212,2.056440932166945
4.381057268722468,2.047325751324111
4.400881057268723,2.0379047241482846
4.420704845814979,2.028209940207134
4.440528634361234,2.0182751688243754
4.46035242290749,2.0081358024689986
4.4801762114537445,1.9978287901847989
4.500000000000001,1.9873925601037954
4.5198237885462555,1.9768669300715278
4.539647577092512,1.966293005415822
4.559471365638767,1.9557130629183697
4.579295154185023,1.9451704201051552
4.599118942731278,1.934709289062358
4.618942731277533,1.9243746141137543
4.63876651982379,1.914211892868242
4.658590308370044,1.9042669803657397
4.678414096916301,1.8945858763189434
4.6982378854625555,1.8852144957677035
4.718061674008811,1.8761984238317673
4.737885462555067,1.8675826556611677
4.757709251101322,1.8594113231359881
4.777533039647578,1.8517274103474828
4.797356828193833,1.8445724603871652
4.817180616740089,1.8379862764619932
4.837004405286344,1.832006620823304
4.856828193832599,1.8266689154200098
4.876651982378855,1.8220059485416347
4.896475770925111,1.818047591978583
4.9162995594713665,1.8148205333746774
4.936123348017622,1.8123480284615205
4.955947136563877,1.8106496777324461
4.975770925110133,1.8097412318286423
4.995594713656388,1.809634429472715
5.015418502202644,1.810336871204011
5.035242290748899,1.8118519314644823
5.055066079295155,1.814178710777425
5.07488986784141,1.8173120288872282
5.094713656387666,1.8212424588214944
5.114537444933921,1.8259564009361036
5.134361233480177,1.8314361951464455
5.154185022026432,1.83766026876859
5.174008810572688,1.844603316722414
5.193832599118943,1.8522365103068124
5.213656387665199,1.8605277303596226
5.2334801762114544,1.8694418203684728
5.25330396475771,1.8789408550007527
5.2731277533039655,1.8889844195630574
5.292951541850221,1.8995298960667764
5.312775330396477,1.9105327518489175
5.332599118942731,1.921946827052298
5.352422907488988,1.9337246176851628
5.372246696035242,1.9458175514335514
5.392070484581499,1.9581762538704397
5.4118942731277535,1.9707508031735497
5.43171806167401,1.983490971915943
5.451541850220265,1.9963464549150645
5.47136563876652,2.009267082510524
5.491189427312777,2.022203018980995
5.511013215859031,2.0351049461045907
5.530837004405288,2.0479242321134135
5.550660792951542,2.0606130864935728
5.570484581497798,2.0731247012392218
5.5903083700440535,2.08541337928713
5.610132158590309,2.0974346509406776
5.6299559471365646,2.109145379144168
5.64977973568282,2.1205038544947743
5.669603524229076,2.1314698808835337
5.689427312775331,2.1420048526445727
5.709251101321586,2.15207182406532
5.729074889867842,2.1616355720745055
5.748898678414098,2.170662652881197
5.768722466960353,2.179121453289843
5.788546255506609,2.186982237365554
5.808370044052864,2.194217189071915
5.82819383259912,2.2008004514514377
5.848017621145375,2.2067081628685665
5.867841409691631,2.211918490785519
5.887665198237886,2.2164116634952964
5.907488986784142,2.220170000191274
5.927312775330397,2.223177939711362
5.9471365638766525,2.2254220682553103
5.966960352422908,2.2268911463368184
5.986784140969164,2.2275761351966454
6.00660792951542,2.2274702228697265
6.026431718061675,2.226568850066734
6.04625550660793,2.2248697359982685
6.066079295154186,2.222372904238519
6.085903083700441,2.2190807086920326
6.105726872246697,2.2149978596933733
6.125550660792952,2.210131450233224
6.145374449339208,2.2044909822645544
6.1651982378854635,2.198088392999841
6.185022026431718,2.1909380810608687
6.204845814977975,2.183056932288852
6.224669603524229,2.1744643449603145
6.244493392070486,2.1651822540841037
6.264317180616741,2.1552351543752852
6.284140969162996,2.144650121410716
6.303964757709252,2.1334568303690196
6.323788546255507,2.121687571641885
6.3436123348017635,2.1093772624745326
6.363436123348018,2.096563453649384
6.3832599118942746,2.083286330068863
6.403083700440529,2.0695887039208354
6.422907488986785,2.055515998925245
6.44273127753304,2.0411162239644187
6.462555066079296,2.0264399341967554
6.482378854625551,2.011540177548427
6.502202643171807,1.9964724242775347
6.5220264317180625,1.9812944771189742
6.541850220264318,1.9660663593575125
6.561674008810574,1.9508501780554592
6.581497797356829,1.9357099595965663
6.601321585903085,1.9207114547192643
6.62114537444934,1.90592191031999
6.640969162995596,1.891409805536822
6.6607929515418505,1.8772445499947055
6.680616740088107,1.8634961426305785
6.700440528634362,1.8502347902359035
6.720264317180618,1.8375304857686687
6.740088105726873,1.8254525475975716
6.759911894273129,1.8140691221404361
6.779735682819384,1.8034466538193046
6.799559471365639,1.7936493278356365
6.819383259911895,1.7847384929079044
6.83920704845815,1.7767720727317848
6.859030837004407,1.7698039764243765
6.8788546255506615,1.7638835194934843
6.898678414096917,1.7590548678210993
6.918502202643173,1.7553565176654031
6.938325991189428,1.7528208246811259
6.958149779735684,1.7514735943780426
6.977973568281939,1.7513337452584623
6.997797356828195,1.7524130541221403
7.01762114537445,1.7547159907671224
7.037444933920705,1.758239646659017
7.0572687224669615,1.7629737592343033
7.077092511013216,1.7689008305126883
7.096916299559473,1.7759963357934567
7.116740088105728,1.7842290155679272
7.136563876651983,1.793561241534677
7.156387665198239,1.8039494458640684
7.176211453744494,1.8153446016866532
7.19603524229075,1.8276927421949376
7.215859030837005,1.8409355057271135
7.235682819383261,1.8550106946849736
7.255506607929516,1.8698528370417917
7.275330396475772,1.8853937404190868
7.295154185022027,1.9015630301472002
7.314977973568283,1.918288664273196
7.334801762114538,1.9354974200469948
7.354625550660794,1.953115347930247
7.374449339207049,1.9710681905706697
7.394273127753305,1.9892817654300705
7.4140969162995605,2.007682310821537
7.433920704845816,2.02619679599234
7.453744493392072,2.044753196586182
7.473568281938327,2.063280737342251
7.493392070484583,2.081710104257124
7.513215859030838,2.0999736286679753
7.533039647577093,2.1180054458346658
7.552863436123348,2.1357416306246444
7.572687224669605,2.153120312858968
7.59251101321586,2.170081774777912
7.612334801762115,2.1865685329469593
7.6321585903083715,2.202525406760846
7.651982378854627,2.2178995755269635
7.671806167400882,2.232640625926864
7.691629955947137,2.2467005914744957
7.711453744493394,2.260033985414646
7.731277533039649,2.2725978283404835
7.751101321585904,2.284351671656156
7.7709251101321595,2.295257617870346
7.790748898678416,2.3052803385808436
7.81057268722467,2.3143870908978403
7.830396475770926,2.3225477329547224
7.850220264317182,2.3297347390691723
7.870044052863436,2.3359232150425373
7.889867841409693,2.341090914022628
7.909691629955948,2.3452182533007635
7.929515418502204,2.348288332369445
7.9493392070484585,2.3502869525293986
7.969162995594715,2.351202638304352
7.9889867841409705,2.3510266608964
8.008810572687224,2.3497530638945134
8.02863436123348,2.3473786914310133
8.048458149779737,2.3439032189662328
8.068281938325994,2.339329186867501
8.088105726872246,2.333662036934893
8.107929515418503,2.3269101520109183
8.12775330396476,2.3190848987935504
8.147577092511014,2.3102006739492666
8.167400881057269,2.300274953594679
8.187224669603525,2.289328346177875
8.207048458149782,2.277384648743135
8.226872246696036,2.2644709065010935
8.246696035242293,2.250617475548368
8.266519823788547,2.2358580884817374
8.286343612334802,2.2202299225283633
8.306167400881058,2.2037736696605923
8.325991189427315,2.18653360797579
8.345814977973568,2.1685576733931047
8.365638766519824,2.149897530444018
8.38546255506608,2.1306086406048816
8.405286343612337,2.110750326232454
8.42511013215859,2.0903858277106453
8.444933920704846,2.0695823508954616
8.464757709251103,2.04841110135144
8.484581497797357,2.0269473012098183
8.504405286343614,2.0052701837500653
8.524229074889869,1.9834629600260234
8.544052863436125,1.9616127510465757
8.56387665198238,1.9398104782103565
8.583700440528636,1.9181507039309966
8.60352422907489,1.8967314137354152
8.623348017621145,1.8756537306516154
8.643171806167402,1.8550215525221605
8.662995594713658,1.8349411030983438
8.682819383259913,1.8155203885138855
8.702643171806168,1.7968685521352905
8.722466960352424,1.7790951229606113
8.74229074889868,1.7623091557827717
8.762114537444935,1.7466182652966462
8.78193832599119,1.7321275611836622
8.801762114537446,1.718938496833435
8.821585903083701,1.707147650519968
8.841409691629957,1.6968454641786095
8.861233480176212,1.6881149709492083
8.881057268722468,1.6810305477940137
8.900881057268723,1.675656733161818
8.92070484581498,1.6720471512870003
8.940528634361234,1.6702435838378942
8.960352422907489,1.6702752260235985
8.980176211453745,1.6721581579606137
9.000000000000002,1.6758950534197035
9.019823788546258,1.6814751376317532
9.039647577092511,1.6888743944629594
9.059471365638768,1.6980560119263748
9.079295154185024,1.708971044622704
9.099118942731279,1.7215592631153398
9.118942731277533,1.7357501540287554
9.13876651982379,1.7514640311194343
9.158590308370046,1.7686132167102349
9.1784140969163,1.7871032544497722
9.198237885462555,1.8068341179102956
9.218061674008812,1.827701384512427
9.237885462555067,1.8495973500751324
9.257709251101323,1.8724120653868712
9.27753303964758,1.8960342821208565
9.297356828193834,1.9203523008280825
9.317180616740089,1.9452547184136477
9.337004405286345,1.9706310763208823
9.356828193832602,1.9963724135915024
9.376651982378855,2.022371731085588
9.396475770925111,2.0485243745226605
9.416299559471367,2.074728344759254
9.436123348017622,2.100884543972948
9.455947136563877,2.1268969662950834
9.475770925110133,2.152672841032904
9.49559471365639,2.178122736037756
9.515418502202644,2.2031606280843645
9.5352422907489,2.2277039463855055
9.555066079295155,2.2516735946203084
9.57488986784141,2.2749939561343053
9.594713656387666,2.29759288629439
9.614537444933923,2.3194016953661976
9.634361233480178,2.3403551247292547
9.654185022026432,2.360391318759683
9.674008810572689,2.3794517942881925
9.693832599118945,2.3974814091803727
9.713656387665198,2.4144283312807078
9.733480176211454,2.4302440087069765
9.75330396475771,2.444883142271297
9.773127753303967,2.4583036606330233
9.792951541850222,2.470466698651996
9.812775330396477,2.4813365793030497
9.832599118942733,2.4908807994305584
9.852422907488988,2.4990700195612665
9.872246696035244,2.505878057951081
9.892070484581499,2.5112818890150113
9.911894273127754,2.5152616462757846
9.93171806167401,2.517800629964273
9.951541850220266,2.518885319412213
9.971365638766521,2.5185053903931385
9.991189427312776,2.5166537375894373
10.011013215859032,2.5133265023922893
10.030837004405289,2.5085231062739264
10.050660792951543,2.5022462900096683
10.070484581497798,2.4945021590675296
10.090308370044054,2.485300235527026
10.11013215859031,2.474653516932782
10.129955947136565,2.4625785425342195
10.14977973568282,2.4490954674055176
10.169603524229077,2.4342281449806498
10.189427312775331,2.41800421857266
10.209251101321588,2.4004552224716824
10.229074889867842,2.3816166932284015
10.248898678414099,2.3615282917228853
10.268722466960353,2.3402339365869538
10.28854625550661,2.317781949481271
10.308370044052865,2.294225212617048
10.32819383259912,2.2696213387409485
10.348017621145376,2.244032853555202
10.367841409691632,2.2175273902009334
10.387665198237887,2.1901778949674227
10.407488986784141,2.1620628427733313
10.427312775330398,2.1332664601631746
10.447136563876654,2.1038789525357022
10.466960352422909,2.0739967310264955
10.486784140969164,2.043722632861954
10.50660792951542,2.0131661270430543
10.526431718061675,1.9824434948697123
10.546255506607931,1.9516779720608273
10.566079295154186,1.9209998360685923
10.585903083700442,1.8905464186788508
10.605726872246697,1.860462020245586
10.625550660792953,1.8308976981263725
10.645374449339208,1.8020108983789034
10.665198237885463,1.7739648969922965
10.685022026431719,1.7469280154578042
