Frequency (Hz),Amplitude
0.0,0.146741889651393
0.019801980198019802,0.14731542346294843
0.039603960396039604,0.1490206297561667
0.0594059405940594,0.15181305255208594
0.07920792079207921,0.1556239184317136
0.09900990099009901,0.16036675456563204
0.1188118811881188,0.1659445077608527
0.13861386138613863,0.1722560116778028
0.15841584158415842,0.1792011165988104
0.1782178217821782,0.18668427054420292
0.19801980198019803,0.19461667697189808
0.21782178217821782,0.20291732153330352
0.2376237623762376,0.21151319649942854
0.25742574257425743,0.22033901317393548
0.27722772277227725,0.22933662595625814
0.297029702970297,0.23845432433092165
0.31683168316831684,0.2476460932687076
0.33663366336633666,0.256870901312705
0.3564356435643564,0.26609204750991056
0.37623762376237624,0.2752765803868794
0.39603960396039606,0.28439479140364393
0.4158415841584158,0.2934197793511819
0.43564356435643564,0.30232707922325797
0.45544554455445546,0.3110943479879975
0.4752475247524752,0.3197010996205269
0.495049504950495,0.32812848224178115
0.5148514851485149,0.3363590909415923
0.5346534653465347,0.34437681067417797
0.5544554455445545,0.35216668440697185
0.5742574257425742,0.35971480243209647
0.594059405940594,0.3670082093950182
0.613861386138614,0.37403482615281297
0.6336633663366337,0.3807833840495028
0.6534653465346534,0.3872433695964662
0.6732673267326733,0.3934049778810367
0.6930693069306931,0.3992590733057903
0.7128712871287128,0.4047971564932757
0.7326732673267327,0.41001133638375625
0.7524752475247525,0.41489430671361494
0.7722772277227723,0.4194393261951334
0.7920792079207921,0.4236402018290057
0.8118811881188118,0.427491274873155
0.8316831683168316,0.4309874090688093
0.8514851485148516,0.4341239807892818
0.8712871287128713,0.4368968708317407
0.891089108910891,0.43930245761832265
0.9108910891089109,0.4413376116124987
0.9306930693069307,0.4429996907904758
0.9504950495049505,0.4442865370367947
0.9702970297029703,0.44519647335912993
0.99009900990099,0.4457283018403026
1.00990099009901,0.44588130226634914
1.0297029702970297,0.4456552313885
1.0495049504950495,0.4450503227953418
1.0693069306930694,0.444067287388559
1.0891089108910892,0.44270731447333106
1.108910891089109,0.4409720734918338
1.1287128712871286,0.43886371644678607
1.1485148514851484,0.43638488108164325
1.1683168316831685,0.43353869490538277
1.188118811881188,0.4303287801736853
1.2079207920792079,0.4267592599650331
1.227722772277228,0.4228347655212864
1.2475247524752475,0.41856044505747236
1.2673267326732673,0.4139419742872259
1.2871287128712872,0.40898556895914273
1.3069306930693068,0.40369799975684156
1.3267326732673268,0.3980866099843331
1.3465346534653466,0.3921593365402585
1.3663366336633662,0.3859247347826144
1.3861386138613863,0.37939200800381834
1.405940594059406,0.3725710423778891
1.4257425742574257,0.3654724484129931
1.4455445544554455,0.35810761014916065
1.4653465346534653,0.350488743590739
1.4851485148514851,0.3426289661632305
1.504950495049505,0.3345423793457866
1.5247524752475248,0.326244167062209
1.5445544554455446,0.317750712926779
1.5643564356435644,0.309079740044
1.5841584158415842,0.3002504777586656
1.6039603960396038,0.291283860538756
1.6237623762376237,0.2822027650266744
1.6435643564356437,0.27303229215834535
1.6633663366336633,0.2638001020166205
1.683168316831683,0.25453680955463615
1.7029702970297032,0.24527644915190974
1.7227722772277227,0.23605701457985573
1.7425742574257426,0.2269210774447546
1.7623762376237624,0.21791648015738185
1.782178217821782,0.20909708693299323
1.801980198019802,0.20052355553392803
1.8217821782178218,0.19226406016625686
1.8415841584158414,0.18439484906973672
1.8613861386138615,0.17700045791423094
1.881188118811881,0.1701733269132962
1.900990099009901,0.16401250188400832
1.920792079207921,0.1586210715177733
1.9405940594059405,0.15410205871524044
1.9603960396039604,0.15055270333994228
1.98019801980198,0.148057475690318
2.0,0.14668068273799487
2.01980198019802,0.14645998330104856
2.0396039603960396,0.14740224690741174
2.0594059405940595,0.14948279231628103
2.0792079207920793,0.152648204140437
2.099009900990099,0.15682199962767066
2.118811881188119,0.1619118109520802
2.1386138613861387,0.1678166639996298
2.1584158415841586,0.17443328218100734
2.1782178217821784,0.18166086737885875
2.1980198019801978,0.1894042757013237
2.217821782178218,0.19757580029657576
2.237623762376238,0.20609589576239196
2.257425742574257,0.2148931820127541
2.2772277227722775,0.22390400908621638
2.297029702970297,0.23307179084597568
2.3168316831683167,0.2423462477711543
2.336633663366337,0.25168264579176225
2.3564356435643563,0.2610410802073232
2.376237623762376,0.27038582864607014
2.3960396039603964,0.27968478146240616
2.4158415841584158,0.28890894895842095
2.4356435643564356,0.2980320400538383
2.455445544554456,0.3070301048919113
2.4752475247524752,0.31588123327017376
2.495049504950495,0.3245653010322789
2.514851485148515,0.33306375722284126
2.5346534653465347,0.3413594456415144
2.5544554455445545,0.34943645529244277
2.5742574257425743,0.3572799950382428
2.594059405940594,0.36487628849878573
2.6138613861386135,0.37221248587334776
2.633663366336634,0.3792765899115042
2.6534653465346536,0.38605739372027237
2.673267326732673,0.3925444284823568
2.6930693069306932,0.3987279194835809
2.712871287128713,0.4045987491156714
2.7326732673267324,0.4101484257434099
2.7524752475247527,0.41536905750936604
2.7722772277227725,0.42025333030256545
2.792079207920792,0.4247944892442826
2.811881188118812,0.4289863231497024
2.8316831683168315,0.4328231515121774
2.8514851485148514,0.4362998136304643
2.8712871287128716,0.439411659560917
2.891089108910891,0.4421545426288221
2.910891089108911,0.44452481327716376
2.9306930693069306,0.4465193140688551
2.9504950495049505,0.44813537569083617
2.9702970297029703,0.44937081383685096
2.99009900990099,0.45022392687038765
3.00990099009901,0.45069349419164023
3.0297029702970297,0.4507787752524042
3.0495049504950495,0.45047950918177027
3.0693069306930694,0.4497959150029647
3.089108910891089,0.44872869243932484
3.108910891089109,0.4472790233244756
3.128712871287129,0.4454485736494929
3.148514851485148,0.4432394962986608
3.1683168316831685,0.4406544345451708
3.1881188118811883,0.4376965264003062
3.2079207920792077,0.4343694099341745
3.227722772277228,0.4306772297140058
3.2475247524752473,0.4266246445380668
3.267326732673267,0.42221683668059234
3.2871287128712874,0.4174595229068769
3.3069306930693068,0.4123589675692779
3.3267326732673266,0.406921998156285
3.346534653465347,0.4011560237399188
3.366336633663366,0.3950690568547267
3.386138613861386,0.38866973944718003
3.4059405940594063,0.38196737366166517
3.4257425742574257,0.37497195838372116
3.4455445544554455,0.3676942326476827
3.4653465346534653,0.36014572724258703
3.485148514851485,0.3523388261250018
3.504950495049505,0.34428683958024603
3.5247524752475248,0.3360040914766967
3.5445544554455446,0.3275060234427689
3.564356435643564,0.3188093193776876
3.5841584158415842,0.3099320543963411
3.603960396039604,0.3008938731145365
3.6237623762376234,0.29171620310230506
3.6435643564356437,0.28242251035043364
3.6633663366336635,0.27303860465400476
3.683168316831683,0.26359300380165523
3.702970297029703,0.2541173661512601
3.722772277227723,0.24464700118407867
3.7425742574257423,0.23522146630283333
3.762376237623762,0.22588525440901186
3.7821782178217824,0.21668856900099442
3.801980198019802,0.20768816922720626
3.8217821782178216,0.19894824314110482
3.841584158415842,0.19054122922477232
3.8613861386138613,0.18254845013823262
3.881188118811881,0.17506034725544334
3.9009900990099013,0.16817601593546813
3.9207920792079207,0.16200166078417022
3.9405940594059405,0.15664756196577623
3.96039603960396,0.15222323747792213
3.98019801980198,0.14883077704223896
4.0,0.14655683665287947
4.01980198019802,0.14546441830454068
4.03960396039604,0.14558605296493035
4.0594059405940595,0.14692002262790577
4.079207920792079,0.1494306279606659
4.099009900990099,0.15305242339060843
4.118811881188119,0.15769729436544255
4.138613861386139,0.16326270864839743
4.158415841584159,0.16963957233443136
4.178217821782178,0.1767186528614171
4.198019801980198,0.18439516046269402
4.217821782178218,0.1925715635295344
4.237623762376238,0.20115897333129443
4.257425742574258,0.21007750625818572
4.2772277227722775,0.21925599335280382
4.297029702970297,0.2286313237351093
4.316831683168317,0.23814762144183266
4.336633663366336,0.24775538269659678
4.356435643564357,0.25741064737460817
4.376237623762377,0.2670742425327396
4.3960396039603955,0.2767111133182478
4.415841584158416,0.2862897433365807
4.435643564356436,0.2957816594301979
4.455445544554455,0.30516101247582667
4.475247524752476,0.31440422468934487
4.4950495049504955,0.32348969403749966
4.514851485148514,0.33239754708401575
4.534653465346535,0.3411094325834971
4.554455445544555,0.3496083491794798
4.574257425742574,0.3578785015570803
4.594059405940594,0.3659051802969489
4.613861386138614,0.373674661459266
4.633663366336633,0.3811741225943896
4.653465346534653,0.388391572438805
4.673267326732674,0.3953157920251036
4.693069306930693,0.401936285323724
4.712871287128713,0.40824323785646105
4.732673267326733,0.41422748198749604
4.752475247524752,0.41988046781678656
4.772277227722772,0.4251942387813786
4.792079207920793,0.4301614112194673
4.811881188118812,0.43477515727546423
4.8316831683168315,0.4390291906267585
4.851485148514852,0.44291775459778154
4.871287128712871,0.44643561229822454
4.891089108910891,0.4495780384815435
4.910891089108912,0.45234081287028416
4.930693069306931,0.45472021473701063
4.9504950495049505,0.45671301856591495
4.97029702970297,0.45831649065155666
4.99009900990099,0.4595283865183036
5.00990099009901,0.46034694906782103
5.02970297029703,0.46077090738385534
5.0495049504950495,0.460799476142652
5.069306930693069,0.4604323555960662
5.089108910891089,0.4596697321115351
5.108910891089109,0.45851227927019855
5.128712871287129,0.4569611595418074
5.148514851485149,0.45501802657247076
5.1683168316831685,0.45268502814011763
5.188118811881188,0.44996480985302
5.207920792079208,0.4468605196888148
5.227722772277227,0.44337581349699656
5.247524752475248,0.4395148616165211
5.267326732673268,0.43528235679345845
5.2871287128712865,0.4306835236226998
5.306930693069307,0.4257241297835246
5.326732673267327,0.4204104993933209
5.346534653465346,0.4147495288688197
5.366336633663367,0.40874870576237005
5.3861386138613865,0.40241613113478436
5.405940594059405,0.39576054614045486
5.425742574257426,0.3887913636385769
5.445544554455446,0.3815187058131062
5.465346534653465,0.3739534489894273
5.485148514851486,0.3661072770872324
5.504950495049505,0.35799274545670473
5.524752475247524,0.34962335722140275
5.544554455445545,0.34101365471180367
5.564356435643565,0.33217932913481174
5.584158415841584,0.323137352306934
5.603960396039604,0.31390613510175264
5.623762376237624,0.30450571824459477
5.643564356435643,0.294958002239867
5.663366336633663,0.2852870245339275
5.683168316831684,0.27551929345927156
5.702970297029703,0.26568418997052085
5.7227722772277225,0.25581444945278176
5.742574257425743,0.24594673654663576
5.762376237623762,0.23612232525949636
5.782178217821782,0.22638789337455598
5.801980198019803,0.21679643230746223
5.821782178217822,0.2074082579796369
5.841584158415841,0.19829208048102206
5.861386138613861,0.18952604444317042
5.881188118811881,0.18119858191496793
5.900990099009901,0.1734088215587596
5.920792079207921,0.1662661779403913
5.9405940594059405,0.15988862912434595
5.96039603960396,0.15439914077490693
5.98019801980198,0.1499198108453759
6.0,0.14656370244641878
6.01980198019802,0.14442504242864895
6.03960396039604,0.1435693330907847
6.0594059405940595,0.14402555008407694
6.079207920792079,0.1457824979030006
6.099009900990099,0.14879038231486755
6.118811881188119,0.15296712430122988
6.138613861386139,0.15820764641142845
6.158415841584159,0.16439389581977126
6.178217821782178,0.17140375700871255
6.198019801980198,0.17911783690952143
6.217821782178218,0.18742390781065404
6.237623762376237,0.1962193128373756
6.257425742574258,0.20541185178135188
6.2772277227722775,0.21491966740473584
6.297029702970296,0.2246705542586965
6.316831683168317,0.23460099015678565
6.336633663366337,0.24465508312171663
6.356435643564356,0.2547835462004016
6.376237623762377,0.26494275813371276
6.396039603960396,0.27509393385371816
6.415841584158415,0.28520240904146066
6.435643564356436,0.295237032500085
6.455445544554456,0.3051696552770308
6.475247524752475,0.31497470391008275
6.495049504950495,0.3246288253702471
6.514851485148515,0.33411059232543217
6.534653465346534,0.343400258735013
6.554455445544554,0.3524795572240708
6.574257425742575,0.3613315310365702
6.594059405940594,0.36994039456754
6.6138613861386135,0.3782914175078799
6.633663366336634,0.3863708285079307
6.653465346534653,0.3941657349920041
6.673267326732673,0.40166405635581004
6.693069306930694,0.40885446827127014
6.712871287128713,0.41572635622634707
6.732673267326732,0.42226977675731575
6.752475247524753,0.4284754251003743
6.772277227722772,0.4343346082096783
6.792079207920792,0.43983922226977024
6.811881188118813,0.44498173397817237
6.8316831683168315,0.44975516499583845
6.851485148514851,0.4541530790639377
6.871287128712871,0.45816957136841374
6.891089108910891,0.4617992598031837
6.910891089108911,0.4650372778406214
6.930693069306931,0.46787926876658803
6.9504950495049505,0.4703213810782041
6.97029702970297,0.47236026487778554
6.99009900990099,0.4739930691262909
7.00990099009901,0.4752174396458521
7.02970297029703,0.47603151778407987
7.0495049504950495,0.4764339396735777
7.069306930693069,0.4764238360389139
7.089108910891089,0.4760008325210712
7.108910891089109,0.47516505050627805
7.128712871287128,0.47391710846281676
7.148514851485149,0.4722581238060947
7.1683168316831685,0.4701897153299528
7.188118811881187,0.4677140062604787
7.207920792079208,0.46483362800910705
7.227722772277228,0.4615517247241597
7.247524752475247,0.4578719587654571
7.267326732673268,0.4537985172560983
7.287128712871287,0.4493361198993163
7.306930693069306,0.4444900282886042
7.326732673267327,0.4392660569866004
7.346534653465347,0.4336705867049909
7.366336633663366,0.42771057998570716
7.3861386138613865,0.4213935998661466
7.405940594059406,0.4147278321108224
7.425742574257425,0.4077221117137433
7.445544554455446,0.40038595452483533
7.465346534653466,0.39272959503669275
7.485148514851485,0.3847640315933566
7.504950495049505,0.3765010805611322
7.524752475247524,0.3679534413459852
7.544554455445544,0.35913477456895443
7.564356435643565,0.35005979624057215
7.584158415841584,0.3407443914318549
7.603960396039604,0.3312057517521547
7.623762376237624,0.32146254194661605
7.643564356435643,0.3115351021541427
7.663366336633663,0.30144569385697784
7.683168316831684,0.2912187993299872
7.702970297029703,0.28088148646323813
7.7227722772277225,0.2704638531282431
7.742574257425743,0.25999956761925075
7.762376237623762,0.2495265237510277
7.782178217821782,0.2390876301911417
7.801980198019803,0.2287317521771155
7.821782178217822,0.21851481752288848
7.841584158415841,0.20850108378160426
7.861386138613862,0.19876453340181569
7.881188118811881,0.18939030979916732
7.900990099009901,0.1804760184308636
7.92079207920792,0.1721325833395665
7.9405940594059405,0.16448417167506846
7.96039603960396,0.15766650551331568
7.980198019801979,0.15182275631352424
8.0,0.1470963212259037
8.01980198019802,0.14362031267157296
8.03960396039604,0.14150465534756637
8.05940594059406,0.14082304778580912
8.07920792079208,0.1416030216300719
8.099009900990099,0.1438220843098524
8.118811881188119,0.1474112021407251
8.138613861386139,0.15226445932389399
8.158415841584159,0.15825195589501603
8.178217821782178,0.16523270410863639
8.198019801980198,0.17306522279220227
8.217821782178218,0.18161488569747994
8.237623762376238,0.19075815517344905
8.257425742574258,0.20038438188700422
8.277227722772277,0.21039596854858733
8.297029702970297,0.2207075791884099
8.316831683168317,0.23124488543020108
8.336633663366337,0.2419431637901646
8.356435643564357,0.2527459238365065
8.376237623762377,0.2636036573289505
8.396039603960396,0.27447274371394353
8.415841584158416,0.2853145166586891
8.435643564356436,0.2960944807825458
8.455445544554456,0.30678166115545247
8.475247524752476,0.31734806647031194
8.495049504950495,0.32776824763389156
8.514851485148515,0.33801893546437844
8.534653465346535,0.34807874347310125
8.554455445544555,0.3579279239573232
8.574257425742575,0.3675481676637286
8.594059405940595,0.37692243903789757
8.613861386138613,0.3860348405502981
8.633663366336634,0.3948705008071344
8.653465346534654,0.4034154821502212
8.673267326732672,0.4116567042572974
8.693069306930694,0.41958188090799314
8.712871287128714,0.4271794676069408
8.732673267326732,0.43443861818150414
8.752475247524753,0.44134914881401105
8.772277227722773,0.44790150824625247
8.792079207920791,0.45408675311839347
8.811881188118813,0.45989652758699984
8.831683168316832,0.46532304651517525
8.85148514851485,0.47035908164968293
8.871287128712872,0.4749979502987026
8.891089108910892,0.4792335061066617
8.91089108910891,0.48306013158975114
8.930693069306932,0.4864727321524387
8.950495049504951,0.489466731352456
8.97029702970297,0.4920380672212737
8.990099009900991,0.494183189481088
9.00990099009901,0.4958990575281114
9.029702970297029,0.497183139077142
9.04950495049505,0.49803340938444973
9.06930693069307,0.4984483509859657
9.089108910891088,0.4984269539056329
9.10891089108911,0.4979687163058518
9.12871287128713,0.4970736455680541
9.148514851485148,0.49574225980753134
9.16831683168317,0.49397558984261103
9.188118811881187,0.49177518165532047
9.207920792079207,0.48914309939862816
9.227722772277229,0.48608192902501146
9.247524752475247,0.4825947826331196
9.267326732673267,0.47868530365468087
9.287128712871288,0.4743576730320525
9.306930693069306,0.46961661657162423
9.326732673267326,0.46446741369744327
9.346534653465348,0.4589159078775834
9.366336633663366,0.4529685190532103
9.386138613861386,0.4466322584691788
9.405940594059407,0.4399147463899808
9.425742574257425,0.4328242332873327
9.445544554455445,0.42536962521322774
9.465346534653467,0.4175605142280647
9.485148514851485,0.4094072149481087
9.504950495049505,0.40092080851750606
9.524752475247526,0.3921131956120635
9.544554455445544,0.38299716045986215
9.564356435643564,0.3735864483391586
9.584158415841586,0.36389585961297566
9.603960396039604,0.3539413641163619
9.623762376237623,0.3437402406681636
9.643564356435645,0.3333112476878446
9.663366336633663,0.32267483242193146
9.683168316831683,0.3118533881993096
9.702970297029704,0.3008715715208818
9.722772277227723,0.28975669372360124
9.742574257425742,0.2785392054909558
9.762376237623764,0.2672532965794008
9.782178217821782,0.25593763758415783
9.801980198019802,0.24463629480608187
9.821782178217823,0.23339985204309688
9.841584158415841,0.2222867718985259
9.861386138613861,0.21136501929575724
9.881188118811881,0.20071394312893312
9.900990099009901,0.1904263550216745
9.92079207920792,0.18061063735629515
9.94059405940594,0.1713925318668918
9.96039603960396,0.1629159866699807
9.98019801980198,0.15534208901231442
10.0,0.14884478661612197
10.01980198019802,0.1436020591489589
10.03960396039604,0.13978185166799215
10.05940594059406,0.1375237604873705
10.07920792079208,0.1369199143898918
10.099009900990099,0.13800044317414956
10.118811881188119,0.14072859355312087
10.138613861386139,0.1450073366638865
10.158415841584159,0.15069492756997202
10.178217821782178,0.1576241024512975
10.198019801980198,0.16561975652200886
10.217821782178218,0.1745120985555347
10.237623762376238,0.1841446446210317
10.257425742574258,0.19437790141051087
10.277227722772277,0.20509008989452235
10.297029702970297,0.21617614863182952
10.316831683168317,0.22754591926939075
10.336633663366337,0.2391220796714695
10.356435643564357,0.25083813564043406
10.376237623762377,0.2626366170961821
10.396039603960396,0.27446752849541084
10.415841584158416,0.28628705276486943
10.435643564356436,0.29805648478019126
10.455445544554454,0.30974136224320337
10.475247524752476,0.32131076129553987
10.495049504950495,0.33273672715768776
