Time (s),Filtered Signal
0.0,0.006261809460628277
0.033370165745856356,-0.17770604913737023
0.06674033149171271,-0.35291910989723607
0.10011049723756907,-0.5303184933817564
0.13348066298342542,-0.7430066323986292
0.16685082872928178,-1.02541340340256
0.20022099447513814,-1.3823637797298804
0.2335911602209945,-1.7698454454103818
0.26696132596685085,-2.1034256644654334
0.30033149171270723,-2.293140639305809
0.33370165745856356,-2.28651138152444
0.3670718232044199,-2.0952935919970046
0.4004419889502763,-1.7904229612310358
0.43381215469613266,-1.467670316100828
0.467182320441989,-1.2027215737847745
0.5005524861878453,-1.0194559670565355
0.5339226519337017,-0.8869222172734207
0.5672928176795581,-0.7444081266911671
0.6006629834254145,-0.5394092447225138
0.6340331491712707,-0.2578809794721441
0.6674033149171271,0.06809592843552222
0.7007734806629835,0.3772900352807801
0.7341436464088398,0.6104044892782723
0.7675138121546962,0.7387077652372026
0.8008839779005525,0.7763999565601777
0.8342541436464089,0.772073694953235
0.8676243093922653,0.7850124831093737
0.9009944751381216,0.8585375943132175
0.934364640883978,1.0025721880068195
0.9677348066298344,1.1919178464591442
1.0011049723756906,1.3789181217021609
1.0344751381215471,1.5132238625213632
1.0678453038674034,1.559703655991025
1.1012154696132597,1.5080293424350495
1.1345856353591162,1.372022663339723
1.1679558011049724,1.1810132291583018
1.201325966850829,0.9677542375863689
1.2346961325966852,0.7576837759927855
1.2680662983425415,0.5630474957354722
1.301436464088398,0.38326453495928214
1.3348066298342542,0.21052212599631231
1.3681767955801105,0.037601334997310804
1.401546961325967,-0.13589943159698983
1.4349171270718233,-0.30198956527118936
1.4682872928176796,-0.4481481290073242
1.501657458563536,-0.5645663642665903
1.5350276243093923,-0.6506356127282068
1.5683977900552488,-0.716473599933462
1.601767955801105,-0.7776459942261666
1.6351381215469614,-0.8451477695183935
1.6685082872928179,-0.9160886061014971
1.7018784530386741,-0.9711413585846096
1.7352486187845306,-0.9817325122724583
1.768618784530387,-0.924494259240617
1.8019889502762432,-0.7957517939974447
1.8353591160220997,-0.6178368836010869
1.868729281767956,-0.43277962758768973
1.9020994475138122,-0.2855471069704892
1.9354696132596687,-0.20476972491060758
1.968839779005525,-0.19052908106112
2.0022099447513813,-0.21532374336716092
2.0355801104972375,-0.23766679522396533
2.0689502762430942,-0.22149163537736613
2.1023204419889505,-0.15192883375732102
2.135690607734807,-0.040274270217855006
2.169060773480663,0.08333216564370331
2.2024309392265193,0.18501393910116357
2.235801104972376,0.24233006031874255
2.2691712707182323,0.25264077321838735
2.3025414364640886,0.23177624903916166
2.335911602209945,0.20488021635707848
2.369281767955801,0.19452057136187262
2.402651933701658,0.21164113487958222
2.436022099447514,0.2528844154420953
2.4693922651933704,0.3044722130893401
2.5027624309392267,0.34979993281779004
2.536132596685083,0.37656124621232484
2.5695027624309392,0.380163883679327
2.602872928176796,0.3628386493998519
2.636243093922652,0.330535687354385
2.6696132596685085,0.2906145537191457
2.7029834254143648,0.25175291497796304
2.736353591160221,0.22459816425739224
2.7697237569060777,0.21994091884453532
2.803093922651934,0.24254600835204695
2.8364640883977903,0.28286660998786867
2.8698342541436466,0.31278947582168587
2.903204419889503,0.29173399123318666
2.936574585635359,0.18438649312429514
2.969944751381216,-0.016607689467350185
3.003314917127072,-0.27543974718876535
3.0366850828729284,-0.5167812624516193
3.0700552486187846,-0.6509592039732215
3.103425414364641,-0.6113890278307561
3.1367955801104976,-0.3868026062325793
3.170165745856354,-0.03170878749837033
3.20353591160221,0.3514017649652413
3.2369060773480665,0.6506778252897982
3.2702762430939227,0.7866923641385943
3.3036464088397794,0.7385595333205838
3.3370165745856357,0.5438328364775089
3.370386740331492,0.27478002281472486
3.4037569060773483,0.004688004197001981
3.4371270718232045,-0.21878797631667296
3.4704972375690613,-0.38186366065042254
3.5038674033149175,-0.4941561482190564
3.537237569060774,-0.5693479921317212
3.57060773480663,-0.6105427113309483
3.6039779005524863,-0.6095019021559465
3.6373480662983426,-0.5593777170048032
3.6707182320441993,-0.47140661910046616
3.7040883977900556,-0.3826301919536555
3.737458563535912,-0.34624434502273493
3.770828729281768,-0.4064410581227253
3.8041988950276244,-0.5699332109710198
3.837569060773481,-0.7905581448166168
3.8709392265193374,-0.9783191014054046
3.9043093922651937,-1.0320397441181162
3.93767955801105,-0.8819455112181522
3.9710497237569062,-0.5222033261109272
4.0044198895027625,-0.01752423525300222
4.037790055248619,0.519655428789252
4.071160220994475,0.9708155393649486
4.104530386740332,1.2528573295397882
4.1379005524861885,1.341812697369535
4.171270718232044,1.2706631339505898
4.204640883977901,1.1055780191212845
4.238011049723757,0.9139255119471362
4.271381215469614,0.7392532132948509
4.30475138121547,0.593080546525213
4.338121546961326,0.46409291316380447
4.371491712707183,0.33687353520438873
4.404861878453039,0.20852086343461904
4.438232044198895,0.09382244463109854
4.471602209944752,0.01663939333437924
4.504972375690608,-0.006829308753373002
4.538342541436465,0.01763472542323839
4.5717127071823205,0.05988399044610136
4.605082872928177,0.0778062863171918
4.638453038674034,0.03853560091247777
4.67182320441989,-0.06339745827139219
4.7051933701657465,-0.20196498161081453
4.738563535911602,-0.33292002754548233
4.771933701657459,-0.41758695172267274
4.805303867403316,-0.4437160140334582
4.8386740331491715,-0.43123246941187005
4.872044198895028,-0.419354263552457
4.905414364640884,-0.44246050412474747
4.938784530386741,-0.508683564649862
4.972154696132597,-0.5935375666174523
5.005524861878453,-0.6521156871191973
5.03889502762431,-0.6428421534905704
5.072265193370166,-0.5495969708067587
5.105635359116023,-0.39047918220377925
5.1390055248618784,-0.209207138466215
5.172375690607735,-0.05445404913665058
5.205745856353592,0.04182226214653826
5.239116022099448,0.07642403605193399
5.272486187845304,0.07241585126708595
5.30585635359116,0.06470156327176264
5.339226519337017,0.08175749901633134
5.372596685082874,0.1326409385980078
5.4059668508287295,0.20501729625634732
5.439337016574586,0.2741580871136716
5.472707182320442,0.31750180966315517
5.506077348066299,0.326880982692126
5.5394475138121555,0.3119747864867184
5.572817679558011,0.2932230114350471
5.606187845303868,0.28807121296570704
5.639558011049724,0.29819676680471413
5.672928176795581,0.3052883087473927
5.706298342541437,0.27887287190849336
5.739668508287293,0.19346930542285498
5.77303867403315,0.047010625868932183
5.806408839779006,-0.12924567523178687
5.839779005524862,-0.2760942118150595
5.873149171270718,-0.3271592940808511
5.906519337016575,-0.23769854645709507
5.939889502762432,-0.009118797901170206
5.9732596685082875,0.30295456021071654
6.006629834254144,0.6033586366250334
6.04,0.7914346412329774
6.073370165745857,0.8014947460944645
6.1067403314917135,0.6320350295184223
6.140110497237569,0.34913750902363533
6.173480662983426,0.06005331747092627
6.206850828729282,-0.1333192691503277
6.240220994475139,-0.18083079937113983
6.273591160220995,-0.10833963502298177
6.306961325966851,-0.006599913276871979
6.340331491712708,0.012374546228698954
6.373701657458564,-0.127496242743907
6.40707182320442,-0.42271270146398265
6.440441988950277,-0.7825897847351546
6.473812154696133,-1.0640541950816451
6.50718232044199,-1.1347826047143834
6.5405524861878455,-0.9359441199641536
6.573922651933702,-0.5147024473603384
6.607292817679559,-0.010275089946631118
6.640662983425415,0.40079327766939826
6.674033149171271,0.5754132766267447
6.707403314917127,0.45931682849550004
6.740773480662984,0.10403044708013365
6.774143646408841,-0.3588500641211174
6.8075138121546965,-0.7714107149467422
6.840883977900553,-1.0063257468092908
6.874254143646409,-1.0043195676880272
6.907624309392266,-0.7814038197888094
6.9409944751381225,-0.40939646894684956
6.974364640883978,0.016999662685373444
7.007734806629835,0.41142714005081343
7.041104972375691,0.7152016005784044
7.074475138121548,0.9021805780931136
7.107845303867403,0.9728605380907295
7.14121546961326,0.9440404324301888
7.174585635359117,0.8395862755168159
7.207955801104973,0.6850696009174246
7.241325966850829,0.5060505927938619
7.274696132596685,0.3278396142871844
7.308066298342542,0.17435443575905932
7.341436464088399,0.0650432526380332
7.3748066298342545,0.010807133749735402
7.408176795580111,0.011116867340960117
7.441546961325967,0.054235050828746904
7.474917127071824,0.12084975850433584
7.5082872928176805,0.18962008225344554
7.541657458563536,0.24230084394479595
7.575027624309393,0.26666890700197954
7.608397790055249,0.2568919839664902
7.641767955801106,0.21228342048329563
7.675138121546962,0.13583014014440048
7.708508287292818,0.033371949093409854
7.741878453038675,-0.08663717342942474
7.775248618784531,-0.21351054562920668
7.808618784530387,-0.3354962186224179
7.841988950276244,-0.4417040409972019
7.8753591160221,-0.524111086805819
7.908729281767957,-0.5788519614882511
7.9420994475138125,-0.6064168642714531
7.975469613259669,-0.6108315176668296
8.008839779005525,-0.5979739275467828
8.042209944751383,-0.5730640558399757
8.075580110497238,-0.5376142632425097
8.108950276243094,-0.486975266872999
8.14232044198895,-0.4104127892393793
8.175690607734808,-0.2952992655626317
8.209060773480664,-0.13502289443796922
8.24243093922652,0.06252264669900215
8.275801104972377,0.2706860884658433
8.309171270718233,0.44800248964507033
8.342541436464089,0.5508307776805401
8.375911602209946,0.5506351109534944
8.409281767955802,0.4485464550876716
8.442651933701658,0.27972413645776895
8.476022099447514,0.10370041726954757
8.509392265193371,-0.016944788284971816
8.542762430939227,-0.04134175371158623
8.576132596685083,0.0322955241663695
8.60950276243094,0.16506897460561745
8.642872928176796,0.29325083198787305
8.676243093922652,0.35528529212080284
8.709613259668508,0.31820329123731717
8.742983425414366,0.19159703827968907
8.776353591160222,0.022729120728578706
8.809723756906077,-0.12508378812037926
8.843093922651935,-0.20090580181548465
8.87646408839779,-0.18821952447681992
8.909834254143647,-0.11020833149240837
8.943204419889504,-0.015837768378414135
8.97657458563536,0.046337028531804304
9.009944751381216,0.05343159101813307
9.043314917127072,0.01950048909510464
9.07668508287293,-0.013379794606180046
9.110055248618785,-2.3236099932349443e-06
9.143425414364641,0.07999275709925738
9.176795580110499,0.20619929263809902
9.210165745856354,0.3230271080982227
9.24353591160221,0.36522608390663786
9.276906077348068,0.2911335260941216
9.310276243093924,0.10678259892579589
9.34364640883978,-0.13198597802179912
9.377016574585635,-0.3415046491852074
9.410386740331493,-0.4463808793083533
9.443756906077349,-0.4125390146917367
9.477127071823205,-0.26135102461610715
9.510497237569062,-0.058229024541873155
9.543867403314918,0.11842548790913894
9.577237569060774,0.21243001024524957
9.610607734806631,0.21184601769429903
9.643977900552487,0.14738421742668
9.677348066298343,0.06907378207291143
9.710718232044199,0.014575818438342101
9.744088397790057,-0.012944132213114636
9.777458563535912,-0.04468126611137388
9.810828729281768,-0.12361157016792514
9.844198895027626,-0.2723215629413069
9.877569060773482,-0.47013638089041737
9.910939226519337,-0.6537309825916492
9.944309392265193,-0.7425084308387195
9.97767955801105,-0.6763347295508434
10.011049723756907,-0.44647568265094634
10.044419889502763,-0.10424152083776499
10.07779005524862,0.25667433791481914
10.111160220994476,0.5354787302971377
10.144530386740332,0.6610824001308291
10.17790055248619,0.6151229249149168
10.211270718232045,0.4334168448606211
10.244640883977901,0.18787749596129752
10.278011049723757,-0.04160305376928282
10.311381215469615,-0.1935099106473062
10.34475138121547,-0.24035898095573405
10.378121546961326,-0.19043080447816457
10.411491712707184,-0.07791902021391996
10.44486187845304,0.05291675272528174
10.478232044198895,0.16348687302440493
10.511602209944753,0.23178608069803847
10.544972375690609,0.2559969478801383
10.578342541436465,0.25065191573101064
10.61171270718232,0.23738885568174223
10.645082872928178,0.23395709812650417
10.678453038674034,0.24571122622491678
10.71182320441989,0.2629838881716986
10.745193370165747,0.2655459709477033
10.778563535911603,0.23253075769286474
10.811933701657459,0.15379746015474732
10.845303867403315,0.03777938863513935
10.878674033149172,-0.08806853450928506
10.912044198895028,-0.18532586702457302
10.945414364640884,-0.218808195934499
10.978784530386742,-0.1717535491009183
11.012154696132598,-0.05579032920604175
11.045524861878453,0.08925759234834275
11.078895027624311,0.20723671512238773
11.112265193370167,0.2459897814117053
11.145635359116023,0.17864480811112723
11.179005524861878,0.016652742917406052
11.212375690607736,-0.19228015600032933
11.245745856353592,-0.3820730509264079
11.279116022099448,-0.4952214416761058
11.312486187845305,-0.507035296253239
11.345856353591161,-0.43575177934843407
11.379226519337017,-0.3333048534678307
11.412596685082875,-0.2607853894586253
11.44596685082873,-0.2602214481305159
11.479337016574586,-0.33612976257105454
11.512707182320442,-0.45520987922353856
11.5460773480663,-0.5632315063079284
11.579447513812156,-0.6096603063522089
11.612817679558011,-0.567476328227169
11.646187845303869,-0.43942503670645233
11.679558011049725,-0.25007833220806863
11.71292817679558,-0.030634241961970086
11.746298342541436,0.1939439467024964
11.779668508287294,0.4091078413180782
11.81303867403315,0.6064134651505344
11.846408839779006,0.7762644742808612
11.879779005524863,0.9041874408451616
11.91314917127072,0.9736127675548849
11.946519337016575,0.9730997627117929
11.979889502762433,0.9029502385784617
12.013259668508288,0.7769335610129059
12.046629834254144,0.6183205227263507
12.08,0.4528142623772081
12.113370165745858,0.3020020540366391
12.146740331491714,0.1794674968464025
12.18011049723757,0.08945122515776983
12.213480662983427,0.02690480579886219
12.246850828729283,-0.021537136320682253
12.280220994475139,-0.07491937069634541
12.313591160220996,-0.1527578328453521
12.346961325966852,-0.26776881096837146
12.380331491712708,-0.4190127767453931
12.413701657458564,-0.5888294464142309
12.447071823204421,-0.7458711058398442
12.480441988950277,-0.8539669240483871
12.513812154696133,-0.8838635339765697
12.54718232044199,-0.8234391024679106
12.580552486187846,-0.6824033162107902
12.613922651933702,-0.4895694959741217
12.64729281767956,-0.28370181841578945
12.680662983425416,-0.10152512398322995
12.714033149171271,0.03243439310248884
12.747403314917127,0.11052764609884815
12.780773480662985,0.14020044224523873
12.81414364640884,0.13771680305515088
12.847513812154697,0.12102277128747374
12.880883977900554,0.10496329894000984
12.91425414364641,0.09996578885942138
12.947624309392266,0.11292055552232932
12.980994475138122,0.14783269047838368
13.01436464088398,0.20457458639043707
13.047734806629835,0.2761583031319675
13.081104972375691,0.3469056160443934
13.114475138121549,0.39428761953398417
13.147845303867404,0.3955472283317658
13.18121546961326,0.3373194483447819
13.214585635359118,0.22400918684384755
13.247955801104974,0.08025043869081243
13.28132596685083,-0.05511597056945748
13.314696132596685,-0.14229840245908826
13.348066298342543,-0.15609313801094538
13.381436464088399,-0.09701084739616317
13.414806629834255,0.007470091941957275
13.448176795580112,0.11306127206623211
13.481546961325968,0.17668809359575463
13.514917127071824,0.1748147864792804
13.548287292817681,0.11359157740764335
13.581657458563537,0.02544002701882221
13.615027624309393,-0.047133300993204084
13.648397790055249,-0.07317405699205001
13.681767955801106,-0.04959460086895256
13.715138121546962,-0.0033200561257102057
13.748508287292818,0.022697828208003527
13.781878453038676,-0.00694449062895507
13.815248618784532,-0.09903071074762268
13.848618784530387,-0.22459123760189714
13.881988950276245,-0.3303150825102822
13.9153591160221,-0.3635305407661966
13.948729281767957,-0.29845286584451847
13.982099447513813,-0.1502915129358292
14.01546961325967,0.030297832938731763
14.048839779005526,0.17996064168249007
14.082209944751382,0.2512850337959887
14.11558011049724,0.23304735868877124
14.148950276243095,0.15229696095411938
14.182320441988951,0.05808731862150588
14.215690607734807,-0.003948107758329742
14.249060773480664,-0.012791082131582355
14.28243093922652,0.021343962666636317
14.315801104972376,0.06704436942187239
14.349171270718234,0.0916330974956322
14.38254143646409,0.07956613209297922
14.415911602209945,0.03950486790816476
14.449281767955803,-0.003038895724903171
14.482651933701659,-0.02266599616815581
14.516022099447515,-0.010830533406995147
14.54939226519337,0.017162665739391673
14.582762430939228,0.02912228599179967
14.616132596685084,-0.0064246927736243435
14.64950276243094,-0.10122582277187889
14.682872928176797,-0.2372816929457291
14.716243093922653,-0.37179083270035373
14.749613259668509,-0.45525096475073107
14.782983425414367,-0.45388111647420715
14.816353591160222,-0.3651330049636013
14.849723756906078,-0.21861940176099454
14.883093922651934,-0.062285377860977244
14.916464088397792,0.05905927916896774
14.949834254143648,0.12244503200323409
14.983204419889503,0.13434492577516666
15.016574585635361,0.12463115758105926
15.049944751381217,0.13061178118536237
15.083314917127073,0.17870162146736968
15.116685082872928,0.2714848994114514
15.150055248618786,0.3851423211799201
15.183425414364642,0.4780264103365974
15.216795580110498,0.5071197851368516
15.250165745856355,0.446255372226677
15.283535911602211,0.2989894327224057
15.316906077348067,0.10038475774518407
15.350276243093925,-0.09422551335396766
15.38364640883978,-0.23003273428844587
15.417016574585636,-0.27478778891474637
15.450386740331492,-0.23208888243599138
15.48375690607735,-0.1390719278854856
15.517127071823205,-0.048741564178299446
15.550497237569061,-0.0048540958700551366
15.583867403314919,-0.0213604162719542
15.617237569060775,-0.07647096716850896
15.65060773480663,-0.12424615232211453
15.683977900552488,-0.11797515202129402
15.717348066298344,-0.03398372181343973
15.7507182320442,0.1153303424060533
15.784088397790056,0.28487871352873223
15.817458563535913,0.41448712155639844
15.85082872928177,0.452391065577954
15.884198895027625,0.3745362703291271
15.917569060773483,0.1924174880934809
15.950939226519338,-0.052376548732912226
15.984309392265194,-0.303409266099151
16.01767955801105,-0.5077631284466405
16.051049723756908,-0.6306382481492832
16.084419889502765,-0.6616326443729627
16.11779005524862,-0.6118962276387178
16.151160220994477,-0.5049783567909513
16.18453038674033,-0.36626147966694944
16.21790055248619,-0.21558552494465433
16.251270718232046,-0.06530158226095412
16.2846408839779,0.07712540562414608
16.318011049723758,0.20501898455895778
16.351381215469615,0.31007581604890266
16.38475138121547,0.3830338443727414
16.418121546961327,0.41646369164196506
16.451491712707185,0.4073882042165427
16.48486187845304,0.35793570593797247
16.518232044198896,0.2740209970680668
16.551602209944754,0.16366279115433344
16.584972375690608,0.03671528118469499
16.618342541436466,-0.09364936980462144
16.651712707182323,-0.2093785025481895
16.685082872928177,-0.2885914008847032
16.718453038674035,-0.3109410969835963
16.751823204419892,-0.2661942638405901
16.785193370165747,-0.16196798425032402
16.818563535911604,-0.02554970936481842
16.851933701657458,0.10307911150603621
16.885303867403316,0.18528210981239315
16.918674033149173,0.1987712173271057
16.952044198895027,0.1462598416502049
16.985414364640885,0.053452988324316233
17.018784530386743,-0.04238652893929783
17.052154696132597,-0.1073084901881181
17.085524861878454,-0.1218424434552613
17.118895027624312,-0.08418162827285018
17.152265193370166,-0.005895605478456894
17.185635359116024,0.0956412828859951
17.21900552486188,0.2033584015688602
17.252375690607735,0.3027407361174299
17.285745856353593,0.38108472580940034
