Frequency (Hz),Amplitude
0.0,0.23219612136985157
0.04,0.23367360132571754
0.08,0.23804547900705172
0.12,0.24514081467788573
0.16,0.2547063059738687
0.19999999999999998,0.26644164741709025
0.24,0.28003231325721173
0.27999999999999997,0.2951739072199396
0.32,0.3115868167245003
0.36,0.32902280230763464
0.39999999999999997,0.34726610729136154
0.44,0.36613143649396956
0.48,0.3854604918737574
0.52,0.4051181049466694
0.5599999999999999,0.42498852513098606
0.6,0.44497211689959276
0.64,0.4649825439698345
0.6799999999999999,0.48494442932568005
0.72,0.5047914403941265
0.76,0.5244647362177335
0.7999999999999999,0.5439117143223114
0.84,0.5630850015897154
0.88,0.5819416418603023
0.9199999999999999,0.6004424413061703
0.96,0.6185514400316315
1.0,0.6362354846259289
1.04,0.6534638815334208
1.0799999999999998,0.6702081152449708
1.1199999999999999,0.6864416186104532
1.1600000000000001,0.7021395851810658
1.2,0.7172788155485201
1.24,0.7318375912704104
1.28,0.7457955712505698
1.3199999999999998,0.7591337064534098
1.3599999999999999,0.7718341696312411
1.4,0.7838802973783571
1.44,0.7952565423315231
1.48,0.8059484337407419
1.52,0.8159425449585929
1.5599999999999998,0.8252264666578836
1.5999999999999999,0.8337887847989989
1.64,0.8416190625403329
1.68,0.8487078254258974
1.72,0.8550465492996439
1.76,0.8606276504917348
1.7999999999999998,0.8654444779013762
1.8399999999999999,0.8694913066676688
1.88,0.8727633331763326
1.92,0.8752566711987995
1.9599999999999997,0.8769683490018173
2.0,0.8778963073031596
2.0399999999999996,0.8780393979819825
2.08,0.877397383483226
2.12,0.8759709368840244
2.1599999999999997,0.8737616426182232
2.2,0.8707719978826612
2.2399999999999998,0.8670054147775066
2.28,0.8624662232628496
2.3200000000000003,0.8571596750463724
2.36,0.8510919485526455
2.4,0.8442701551654017
2.44,0.8367023469804966
2.48,0.8283975263615303
2.5199999999999996,0.8193656576539661
2.56,0.8096176814893615
2.6,0.7991655322023533
2.6399999999999997,0.7880221589930304
2.68,0.77620155160068
2.7199999999999998,0.7637187714183468
2.76,0.7505899891780038
2.8,0.7368325305838167
2.84,0.7224649315778296
2.88,0.7075070053047555
2.92,0.6919799233203957
2.96,0.6759063141880343
2.9999999999999996,0.6593103833624674
3.04,0.6422180592154302
3.08,0.6246571712645266
3.1199999999999997,0.606657668200978
3.16,0.5882518852586033
3.1999999999999997,0.5694748729384331
3.2399999999999998,0.5503648022343416
3.28,0.5309634654514641
3.32,0.5113168966379077
3.36,0.4914761417137601
3.4,0.47149821565213273
3.44,0.4514472924135804
3.4799999999999995,0.43139618217192405
3.52,0.4114281581954617
3.5599999999999996,0.3916391993201008
3.5999999999999996,0.3721407068746418
3.64,0.35306272540014044
3.6799999999999997,0.33455762418104473
3.7199999999999998,0.31680404907495047
3.76,0.3000106860248908
3.7999999999999994,0.28441893998668355
3.84,0.2703030089053818
3.88,0.2579651213584685
3.9199999999999995,0.2477232611191983
3.96,0.23988922905581694
4.0,0.23473725228341719
4.04,0.23246772475943997
4.079999999999999,0.23317537087413523
4.12,0.23683263221033263
4.16,0.2432947325729652
4.199999999999999,0.2523243861820673
4.24,0.2636269762801159
4.28,0.27688546222596744
4.319999999999999,0.29178771401773196
4.36,0.3080438805102328
4.4,0.3253949219175698
4.4399999999999995,0.34361486918602535
4.4799999999999995,0.36250934922414196
4.5200000000000005,0.38191228443608666
4.56,0.40168198017146955
4.6,0.4216972729431375
4.640000000000001,0.44185405776454845
4.68,0.46206230632816
4.72,0.48224357943689256
4.76,0.5023289874737896
4.8,0.5222575352653945
4.84,0.5419747864747692
4.88,0.5614317886697987
4.92,0.5805842087190256
4.96,0.5993916368561358
5.0,0.6178170256163185
5.039999999999999,0.6358262365441416
5.08,0.6533876730849693
5.12,0.6704719825189197
5.159999999999999,0.6870518133404706
5.2,0.7031016172918033
5.24,0.7185974874700164
5.279999999999999,0.7335170256699626
5.319999999999999,0.7478392334968754
5.36,0.7615444228649304
5.3999999999999995,0.7746141423537177
5.4399999999999995,0.7870311165727417
5.48,0.7987791962236517
5.52,0.8098433169803241
5.56,0.8202094656522388
5.6,0.8298646523739236
5.64,0.8387968877877723
5.68,0.8469951643695944
5.72,0.8544494411948677
5.76,0.861150631565476
5.8,0.8670905930174065
5.84,0.8722621193131717
5.879999999999999,0.8766589340928675
5.92,0.880275685916513
5.96,0.8831079444809291
5.999999999999999,0.8851521978376656
6.04,0.8864058504768423
6.08,0.8868672221757461
6.119999999999999,0.8865355475421585
6.16,0.8854109762113825
6.2,0.8834945736839273
6.239999999999999,0.8807883228182143
6.279999999999999,0.8772951260207437
6.32,0.8730188082053648
6.359999999999999,0.867964120624759
6.3999999999999995,0.8621367457117531
6.44,0.8555433031068884
6.4799999999999995,0.8481913570929771
6.52,0.8400894257088579
6.56,0.8312469918747971
6.6,0.8216745169337775
6.64,0.8113834570985772
6.68,0.8003862833979901
6.72,0.7886965058411446
6.76,0.7763287026721969
6.8,0.7632985557760396
6.84,0.7496228935279811
6.88,0.7353197426685126
6.92,0.7204083911430602
6.959999999999999,0.7049094642952833
7.0,0.6888450173660208
7.04,0.6722386479600543
7.08,0.6551156330410608
7.119999999999999,0.6375030961545504
7.16,0.6194302120275148
7.199999999999999,0.6009284575394626
7.239999999999999,0.5820319204123071
7.28,0.5627776799630272
7.32,0.5432062780672667
7.359999999999999,0.5233623032814958
7.3999999999999995,0.5032951170595988
7.4399999999999995,0.4830597583313998
7.4799999999999995,0.4627180714063622
7.52,0.44234011191497924
7.5600000000000005,0.42200589528378746
7.599999999999999,0.40180755962956927
7.64,0.3818520148759132
7.68,0.36226413253818485
7.719999999999999,0.3431904782803795
7.76,0.3248034722813116
7.800000000000001,0.30730563555910284
7.839999999999999,0.2909331865530481
7.88,0.275957646340361
7.92,0.2626833293721586
7.959999999999999,0.25143789439680814
8.0,0.2425531427040553
8.040000000000001,0.23633496046962962
8.08,0.23302539377677042
8.12,0.23276535076609167
8.159999999999998,0.23556990860537783
8.2,0.24132573719982806
8.24,0.24981167773556248
8.28,0.2607343394830128
8.32,0.2737666864600727
8.36,0.28858009847861893
8.399999999999999,0.30486581983446764
8.44,0.32234624276629587
8.48,0.3407786457448066
8.52,0.359954285425893
8.56,0.3796951238341459
8.6,0.39984967971210106
8.639999999999999,0.42028884569153124
8.68,0.44090207917505925
8.72,0.46159411891911795
8.76,0.4822822439321867
8.8,0.5028940284286367
8.84,0.5233655236190706
8.879999999999999,0.5436397943045009
8.92,0.5636657444678355
8.959999999999999,0.5833971754814268
9.0,0.6027920303226237
9.040000000000001,0.621811786067733
9.079999999999998,0.6404209644962539
9.12,0.6585867368498362
9.16,0.6762786037880434
9.2,0.6934681355533284
9.24,0.7101287604888791
9.280000000000001,0.7262355925136699
9.32,0.741765290089963
9.36,0.7566959407342777
9.399999999999999,0.7710069663145341
9.44,0.7846790453149466
9.48,0.7976940489923848
9.52,0.8100349889362087
9.559999999999999,0.8216859740119098
9.6,0.8326321750428861
9.639999999999999,0.8428597958850003
9.68,0.8523560497902924
9.72,0.8611091401521972
9.76,0.8691082448837072
9.8,0.8763435038104533
9.84,0.8828060085675212
9.879999999999999,0.8884877945777829
9.92,0.8933818347632271
9.959999999999999,0.8974820347030585
10.0,0.900783229005003
10.04,0.9032811787016627
10.079999999999998,0.9049725695231254
10.12,0.9058550109320883
10.16,0.9059270358393205
10.2,0.9051881009464569
10.24,0.9036385876908788
10.280000000000001,0.9012798037944807
10.319999999999999,0.8981139854451469
10.36,0.8941443001680717
10.4,0.8893748504736161
10.44,0.8838106784011474
10.48,0.8774577711143583
10.52,0.8703230677449161
10.559999999999999,0.8624144677285481
10.6,0.8537408409335674
10.639999999999999,0.8443120399473858
10.68,0.8341389149652879
10.72,0.8232333318204126
10.76,0.8116081938086959
10.799999999999999,0.7992774681027749
10.84,0.7862562177209883
10.879999999999999,0.7725606402301122
10.92,0.7582081146241406
10.96,0.7432172581500345
11.0,0.7276079952630592
11.04,0.7114016414120562
11.08,0.6946210050092952
11.12,0.6772905117694039
11.16,0.6594363566585031
11.2,0.641086690045022
11.24,0.6222718463735012
11.28,0.6030246259042675
11.319999999999999,0.5833806429175277
11.36,0.5633787574496696
11.4,0.5430616123317109
11.44,0.5224763032913408
11.48,0.5016752174312598
11.52,0.48071708474054753
11.559999999999999,0.4596682984930834
11.6,0.4386045730620057
11.64,0.41761302047874765
11.68,0.3967947366474015
11.72,0.37626798732177386
11.759999999999998,0.3561720586497237
11.799999999999999,0.33667176141714544
11.84,0.31796240833351147
11.879999999999999,0.3002747539719027
11.92,0.28387881784103663
11.96,0.2690846555394302
11.999999999999998,0.2562371109133155
12.04,0.24570086325617713
12.08,0.23783274215701375
12.12,0.2329416689826876
12.16,0.23124295951155002
12.200000000000001,0.23282028314993958
12.239999999999998,0.2376097324827607
12.28,0.24541280033255486
12.32,0.25593262114826426
12.36,0.2688194104023186
12.4,0.28371138815523217
12.44,0.30026375009413236
12.479999999999999,0.3181648043640824
12.52,0.3371420832485135
12.559999999999999,0.35696210889553615
12.6,0.377426859747879
12.64,0.39836896139181893
12.68,0.4196467497030889
12.719999999999999,0.4411397611258095
12.76,0.4627448566876198
12.799999999999999,0.4843730045018576
12.84,0.5059466627202144
12.88,0.5273976756933247
12.92,0.5486655932894049
12.959999999999999,0.5696963319556965
12.999999999999998,0.5904411085161742
13.04,0.6108555902610503
13.08,0.6308992160968381
13.12,0.6505346529367947
13.16,0.6697273591444327
13.2,0.6884452329122807
13.239999999999998,0.7066583282285992
13.28,0.7243386248111722
13.32,0.7414598412889155
13.36,0.7579972831703546
13.4,0.7739277188969365
13.44,0.7892292786520745
13.479999999999999,0.8038813716711181
13.52,0.8178646186412332
13.559999999999999,0.8311607964450934
13.6,0.8437527930284623
13.64,0.8556245705899931
13.68,0.8667611356251577
13.719999999999999,0.8771485146240131
13.76,0.8867737344379121
13.799999999999999,0.8956248065049229
13.84,0.9036907142656418
13.88,0.9109614032173518
13.919999999999998,0.9174277731501379
13.959999999999999,0.9230816721878139
14.0,0.9279158923228277
14.04,0.9319241661900481
14.08,0.9351011648718514
14.120000000000001,0.9374424965679503
14.16,0.9389447059992593
14.2,0.939605274447033
14.239999999999998,0.9394226203576973
14.28,0.9383961004708429
14.32,0.9365260114539852
14.36,0.9338135920532056
14.399999999999999,0.9302610257949971
14.44,0.9258714443017538
14.479999999999999,0.9206489313127083
14.52,0.914598527534321
14.56,0.9077262364803694
14.6,0.9000390315035529
14.64,0.8915448642687673
14.68,0.882252674975162
14.719999999999999,0.8721724047019421
14.76,0.8613150103345787
14.799999999999999,0.8496924826269601
14.84,0.8373178680758595
14.879999999999999,0.8242052954325108
14.919999999999998,0.8103700078595327
14.959999999999999,0.7958284019695206
15.0,0.7805980752665477
15.04,0.7646978838699838
15.079999999999998,0.7481480128521424
15.120000000000001,0.7309700620952366
15.159999999999998,0.7131871513053569
15.199999999999998,0.6948240487596894
15.24,0.6759073295722532
15.28,0.6564655708276637
15.319999999999999,0.6365295929649534
15.36,0.6161327594441831
15.399999999999999,0.5953113501957094
15.439999999999998,0.5741050288953128
15.48,0.5525574300639586
15.52,0.5307168997806799
15.559999999999999,0.5086374339284245
15.600000000000001,0.48637987092071583
15.639999999999999,0.46401341226977566
15.679999999999998,0.44161756428676613
15.72,0.4192846167897478
15.76,0.3971227967414482
15.799999999999999,0.3752602480858272
15.84,0.3538499756471766
15.879999999999999,0.3330758143884122
15.919999999999998,0.31315927818967687
15.96,0.29436669285744094
16.0,0.2770151730513662
16.04,0.2614746347836462
16.080000000000002,0.24816126803876984
16.12,0.2375165647547504
16.16,0.22996711868987657
16.200000000000003,0.2258665864354788
16.24,0.22543252877680545
16.279999999999998,0.22870087705040337
16.319999999999997,0.23551869048823945
16.36,0.24557868580392953
16.4,0.2584790654439518
16.439999999999998,0.27378488460245104
16.48,0.2910744404292548
16.52,0.30996607769163603
16.56,0.33012881571098573
16.6,0.35128267499614013
16.64,0.3731937755472143
16.68,0.3956675324906888
16.72,0.4185417593498503
16.759999999999998,0.4416804944999919
16.799999999999997,0.46496881193560424
16.84,0.4883086081614629
16.88,0.5116152474155133
16.919999999999998,0.5348149180619453
16.96,0.5578425594906471
17.0,0.5806402385734348
17.04,0.6031558770423108
17.080000000000002,0.6253422516434572
17.12,0.6471562061369583
17.16,0.6685580280345306
17.2,0.6895109537892015
17.24,0.7099807745046235
17.279999999999998,0.7299355206328992
17.32,0.7493452090186219
17.36,0.7681816393791092
17.4,0.7864182301635817
17.44,0.8040298859204675
17.48,0.8209928899832859
17.52,0.8372848175837586
17.56,0.8528844655074286
17.6,0.8677717951913805
17.64,0.8819278867775987
17.68,0.8953349021185845
17.72,0.907976055113612
17.759999999999998,0.9198355880575677
17.799999999999997,0.9308987529266346
17.84,0.9411517967196005
17.88,0.9505819501307814
17.919999999999998,0.9591774189578565
17.96,0.9669273777521091
18.0,0.9738219653040675
18.04,0.9798522816282805
18.080000000000002,0.9850103861699946
18.12,0.9892892970062789
18.159999999999997,0.9926829908563167
18.2,0.995186403752144
18.24,0.9967954322530619
18.279999999999998,0.9975069351153857
18.32,0.9973187353552652
18.36,0.9962296226665259
18.4,0.9942393561788836
18.44,0.9913486675649591
18.48,0.9875592645281748
18.52,0.9828738347281537
18.560000000000002,0.9772960502273473
18.6,0.9708305725716777
18.64,0.9634830586519492
18.679999999999996,0.9552601675307869
18.72,0.9461695684651877
18.759999999999998,0.936219950407889
18.799999999999997,0.9254210333346157
18.84,0.9137835818214135
18.88,0.9013194213903496
18.919999999999998,0.8880414582571654
18.96,0.8739637032573834
19.0,0.8591013009046411
19.04,0.8434705647575657
19.080000000000002,0.8270890205510805
19.119999999999997,0.8099754589026442
19.159999999999997,0.7921499998555874
19.2,0.7736341721006609
19.24,0.7544510104635527
19.279999999999998,0.7346251762146846
19.32,0.7141831060221382
19.36,0.6931531970288228
19.4,0.6715660377291947
19.44,0.6494546972368187
19.48,0.6268550894320304
19.52,0.6038064337161689
19.560000000000002,0.5803518411672748
19.6,0.5565390644627618
19.639999999999997,0.5324214629124898
19.68,0.5080592515192701
19.72,0.4835211266411949
19.759999999999998,0.45888639226013284
19.8,0.4342477515470608
19.84,0.4097149785096542
19.88,0.38541974007318947
19.919999999999998,0.36152188576154
19.96,0.3382175227030661
20.0,0.31574906214757786
20.04,0.29441698405130623
20.08,0.27459200265454237
20.119999999999997,0.25672417966974087
20.159999999999997,0.24134201703158673
20.2,0.22903046197008584
20.24,0.22037573504047356
20.279999999999998,0.21587401379849702
20.32,0.2158243901891154
20.36,0.2202514440959258
20.4,0.2289001564915311
20.44,0.24130597516009414
20.48,0.2569003329565323
20.52,0.2751048486992196
20.560000000000002,0.29539067581987705
20.599999999999998,0.31730391980736616
20.639999999999997,0.34046868040956174
20.68,0.364579034177448
20.72,0.3893873275293084
20.759999999999998,0.4146925412353807
20.8,0.4403302262244784
20.84,0.4661643582689257
20.88,0.4920809685566914
20.92,0.5179832496891066
20.96,0.5437878251317323
21.0,0.5694219118691743
21.04,0.5948211597571905
21.08,0.6199280007608343
21.119999999999997,0.6446903821116536
21.159999999999997,0.6690607891755624
21.2,0.692995487821118
21.24,0.7164539339477537
21.279999999999998,0.7393983110500112
21.32,0.76179316644967
21.36,0.7836051240362668
21.4,0.8048026566996249
21.44,0.8253559056146628
21.48,0.8452365365138463
21.52,0.8644176253206465
21.56,0.8828735672109844
21.599999999999998,0.900580004458736
21.639999999999997,0.9175137694090597
21.68,0.9336528396840701
21.72,0.9489763033155691
21.759999999999998,0.9634643319598221
21.8,0.9770981607105675
21.84,0.9898600733117173
21.88,1.0017333917980522
21.92,1.012702469773314
21.96,1.0227526886812015
22.0,1.0318704565431753
22.04,1.0400432087337261
22.08,1.0472594104437838
22.119999999999997,1.0535085605493646
22.16,1.0587811966591447
22.2,1.0630689011625791
22.24,1.0663643081426575
22.28,1.0686611110547175
22.32,1.0699540711074458
22.36,1.070239026314358
22.4,1.0695129012157196
22.44,1.0677737173023292
22.48,1.06502060420536
22.519999999999996,1.0612538117511752
22.56,1.056474723018461
22.599999999999998,1.0506858685775784
22.639999999999997,1.043890942141431
22.68,1.0360948179139102
22.72,1.0273035699895847
22.759999999999998,1.0175244942385753
22.8,1.0067661332074032
22.84,0.9950383046844574
22.88,0.9823521347227483
22.92,0.9687200960902204
22.96,0.9541560533381808
23.0,0.9386753159530381
23.04,0.9222947014011279
23.08,0.9050326103109988
23.119999999999997,0.8869091165887862
23.16,0.867946075965344
23.2,0.8481672573752882
23.24,0.8275985027304966
23.28,0.8062679221574099
23.32,0.7842061337311479
23.36,0.761446559311851
23.400000000000002,0.7380257914740077
23.44,0.7139840509951638
23.479999999999997,0.6893657603069571
23.519999999999996,0.6642202662061352
23.56,0.6386027556280783
23.599999999999998,0.6125754222368011
23.639999999999997,0.5862089600041551
23.68,0.5595844839673
23.72,0.5327960089502017
23.759999999999998,0.5059536543738007
23.8,0.47918778514919547
23.84,0.45265433712471226
23.88,0.4265415902397769
23.92,0.40107859777809685
23.96,0.37654526331774474
23.999999999999996,0.3532835087694392
24.04,0.3317078314175388
24.08,0.31231150297793586
24.119999999999997,0.2956616912874434
24.16,0.282373923713592
24.2,0.2730567639860074
24.24,0.268226363087474
24.28,0.26820936192375233
24.32,0.2730711461120507
24.36,0.28260443207475877
24.400000000000002,0.29638373338438095
24.439999999999998,0.31385721315086634
24.479999999999997,0.3344369975751576
24.52,0.35756346764946123
24.56,0.3827391317107656
24.599999999999998,0.40953936290200443
24.64,0.4376096515799087
24.68,0.4666568090553381
24.72,0.49643856116691343
24.759999999999998,0.5267537099981161
24.8,0.5574336995501734
24.84,0.5883357414204747
24.88,0.6193373637100674
24.92,0.6503321513756265
24.959999999999997,0.6812264410164844
24.999999999999996,0.7119367623915335
25.04,0.7423878570233713
25.08,0.7725111403238533
25.119999999999997,0.802243504136856
25.16,0.8315263809188497
25.2,0.8603050096325466
25.24,0.8885278578097392
25.28,0.9161461651176345
25.32,0.9431135819630181
25.36,0.9693858828482325
25.4,0.9949207388576302
25.439999999999998,1.0196775371852809
25.479999999999997,1.043617238300213
25.52,1.0667022633964618
25.56,1.0888964063500997
25.599999999999998,1.1101647656209233
25.64,1.130473692480509
25.68,1.1497907526855395
25.72,1.168084699295142
25.76,1.185325454789837
25.8,1.2014841010159993
25.84,1.2165328757743357
25.880000000000003,1.2304451751103773
25.919999999999998,1.2431955605621077
25.959999999999997,1.2547597707842173
25.999999999999996,1.2651147371081293
26.04,1.274238602718284
26.08,1.2821107452329343
26.119999999999997,1.2887118025770186
26.16,1.2940237021285228
26.2,1.298029693212378
26.24,1.3007143831102963
26.28,1.3020637768545664
26.32,1.302065321182339
26.36,1.300707953148345
26.4,1.2979821540328353
26.439999999999998,1.2938800093435194
26.479999999999997,1.288395275901534
26.52,1.281523457230824
26.56,1.2732618887472633
26.599999999999998,1.2636098345815048
26.64,1.2525685982840917
26.68,1.2401416501733054
26.72,1.2263347747220883
26.76,1.211156242174453
26.8,1.194617009577938
26.84,1.1767309576744065
26.88,1.1575151716809404
26.919999999999998,1.1369902760133292
26.959999999999997,1.1151808355823454
27.0,1.092115839592964
27.04,1.067829288012016
27.08,1.0423609063160741
27.119999999999997,1.015757021139174
27.16,0.9880716384488123
27.2,0.9593677774187981
27.24,0.9297191278475876
27.28,0.8992121174090852
27.32,0.867948497687948
27.36,0.8360485847919997
27.4,0.8036553200352313
27.439999999999998,0.7709393447044235
27.479999999999997,0.7381053007883376
27.52,0.7053995570898882
27.56,0.6731194797102735
27.599999999999998,0.6416241506844538
27.64,0.6113459806026057
27.68,0.5828018099043549
27.72,0.5566006970551156
27.76,0.5334436423474862
27.8,0.5141084569266817
