Time (s),Filtered Signal
0.0,0.0470583649003096
0.033370165745856356,0.5317556312928611
0.06674033149171271,0.8509889437450724
0.10011049723756907,0.8928149931741579
0.13348066298342542,0.6309457331775526
0.16685082872928178,0.12840341718906942
0.20022099447513814,-0.4882852480631998
0.2335911602209945,-1.0729604441411877
0.26696132596685085,-1.5045320870246388
0.30033149171270723,-1.7168281840451718
0.33370165745856356,-1.7056555416841217
0.3670718232044199,-1.5151377799153585
0.4004419889502763,-1.2129533850614005
0.43381215469613266,-0.8662011709957241
0.467182320441989,-0.5262911761992535
0.5005524861878453,-0.22512308738294123
0.5339226519337017,0.0206733851244714
0.5672928176795581,0.20312199401442046
0.6006629834254145,0.3186501758834259
0.6340331491712707,0.36792242058128005
0.6674033149171271,0.3583412726200644
0.7007734806629835,0.30614041621343024
0.7341436464088398,0.23536651746125808
0.7675138121546962,0.17295320385203128
0.8008839779005525,0.1413900160525986
0.8342541436464089,0.15199737943089525
0.8676243093922653,0.20182188364357792
0.9009944751381216,0.2756798244996993
0.934364640883978,0.35260481828691137
0.9677348066298344,0.41397055880568134
1.0011049723756906,0.4498133897164103
1.0344751381215471,0.46074967636978476
1.0678453038674034,0.45499066062729066
1.1012154696132597,0.4423282371920738
1.1345856353591162,0.4284530978064742
1.1679558011049724,0.4127679400260423
1.201325966850829,0.39092636017397664
1.2346961325966852,0.36051132564282284
1.2680662983425415,0.3260395463038196
1.301436464088398,0.29926533385967186
1.3348066298342542,0.2930903241032461
1.3681767955801105,0.31134059231550765
1.401546961325967,0.3400925629626569
1.4349171270718233,0.34682885956326753
1.4682872928176796,0.29052427082925664
1.501657458563536,0.14001565924833856
1.5350276243093923,-0.10732540664423233
1.5683977900552488,-0.4163430488859602
1.601767955801105,-0.7206289751235213
1.6351381215469614,-0.9439470102830754
1.6685082872928179,-1.028119725430455
1.7018784530386741,-0.9551968626993366
1.7352486187845306,-0.7539945539432001
1.768618784530387,-0.48832930059464147
1.8019889502762432,-0.23266273537930757
1.8353591160220997,-0.04608505388905386
1.868729281767956,0.044773354563800806
1.9020994475138122,0.04844117123248433
1.9354696132596687,-0.0017291656093325098
1.968839779005525,-0.06451511591417475
2.0022099447513813,-0.10662445665613732
2.0355801104972375,-0.11174778782804026
2.0689502762430942,-0.0812618155565132
2.1023204419889505,-0.028679926595652355
2.135690607734807,0.02816058132572273
2.169060773480663,0.07350447915481319
2.2024309392265193,0.0968823226696197
2.235801104972376,0.0934930141886005
2.2691712707182323,0.06344815056996116
2.3025414364640886,0.011455576356397377
2.335911602209945,-0.05268533013450826
2.369281767955801,-0.11379817467631359
2.402651933701658,-0.15287462133036
2.436022099447514,-0.15137723815143017
2.4693922651933704,-0.09754507317971066
2.5027624309392267,0.007741407258014414
2.536132596685083,0.14856282120603814
2.5695027624309392,0.2969849986036489
2.602872928176796,0.42112562530936615
2.636243093922652,0.4954404416838552
2.6696132596685085,0.5091114619756701
2.7029834254143648,0.46897512471243125
2.736353591160221,0.39565621924413524
2.7697237569060777,0.31452637023062324
2.803093922651934,0.24546720765977095
2.8364640883977903,0.19604250648114083
2.8698342541436466,0.16113389774340123
2.903204419889503,0.12896351257007216
2.936574585635359,0.0901871364136935
2.969944751381216,0.0450693857748207
3.003314917127072,0.004623458276853448
3.0366850828729284,-0.015304754321241999
3.0700552486187846,-0.004205075058965789
3.103425414364641,0.03409010058595306
3.1367955801104976,0.07894249801109046
3.170165745856354,0.0994662928947535
3.20353591160221,0.06798316607114634
3.2369060773480665,-0.02585080388280369
3.2702762430939227,-0.16776288164048653
3.3036464088397794,-0.3232480268195045
3.3370165745856357,-0.452638805414379
3.370386740331492,-0.5298134859820253
3.4037569060773483,-0.5546395030476713
3.4371270718232045,-0.5517147150669935
3.4704972375690613,-0.5550146378831973
3.5038674033149175,-0.5861220246248601
3.537237569060774,-0.6381776911679022
3.57060773480663,-0.675492275778797
3.6039779005524863,-0.6504703656505424
3.6373480662983426,-0.5294477878598552
3.6707182320441993,-0.3131323327499628
3.7040883977900556,-0.039567739433724665
3.737458563535912,0.23276048805035335
3.770828729281768,0.4523594022607627
3.8041988950276244,0.59690813450313
3.837569060773481,0.6775024505110859
3.8709392265193374,0.7233602826460579
3.9043093922651937,0.7575098374956439
3.93767955801105,0.7793642285976025
3.9710497237569062,0.7652518765257424
4.0044198895027625,0.6861485273593858
4.037790055248619,0.5308045683083381
4.071160220994475,0.31923331048941134
4.104530386740332,0.09785431113608078
4.1379005524861885,-0.08095756495189106
4.171270718232044,-0.182931851825417
4.204640883977901,-0.20602602386147698
4.238011049723757,-0.17756180000698502
4.271381215469614,-0.13739542416003928
4.30475138121547,-0.11757720126737015
4.338121546961326,-0.1296460014093685
4.371491712707183,-0.1649123642034439
4.404861878453039,-0.2049135975864474
4.438232044198895,-0.23384183084946628
4.471602209944752,-0.2451322904493384
4.504972375690608,-0.23964494342599083
4.538342541436465,-0.21904325976313763
4.5717127071823205,-0.18089182172132487
4.605082872928177,-0.12000188804438378
4.638453038674034,-0.03540072333950508
4.67182320441989,0.062288549979030404
4.7051933701657465,0.14919074320575731
4.738563535911602,0.19510151648703303
4.771933701657459,0.17653067723963142
4.805303867403316,0.08934931082292757
4.8386740331491715,-0.045915754572003115
4.872044198895028,-0.18971820100283934
4.905414364640884,-0.2982598280495513
4.938784530386741,-0.34093621170604727
4.972154696132597,-0.31237886314207075
5.005524861878453,-0.23330164016380242
5.03889502762431,-0.13962141901895134
5.072265193370166,-0.0650734293595923
5.105635359116023,-0.02584301690964945
5.1390055248618784,-0.014737547464655228
5.172375690607735,-0.007515031414296121
5.205745856353592,0.022265199151753283
5.239116022099448,0.08776142429153716
5.272486187845304,0.18069003182481883
5.30585635359116,0.27444156144741816
5.339226519337017,0.33663681255372324
5.372596685082874,0.344721281176724
5.4059668508287295,0.29699457684950353
5.439337016574586,0.2139469393812162
5.472707182320442,0.1294869038287083
5.506077348066299,0.07627000571909158
5.5394475138121555,0.07179357023425675
5.572817679558011,0.1112366026937234
5.606187845303868,0.16970290754666614
5.639558011049724,0.21229143883221702
5.672928176795581,0.20734804972201215
5.706298342541437,0.13765993371162086
5.739668508287293,0.006079069050549784
5.77303867403315,-0.16526989530047198
5.806408839779006,-0.34095765483014095
5.839779005524862,-0.48131741952575097
5.873149171270718,-0.5525422595416197
5.906519337016575,-0.5358033687603106
5.939889502762432,-0.4331788323220317
5.9732596685082875,-0.2681887823772688
6.006629834254144,-0.07970770968142186
6.04,0.08979955081950715
6.073370165745857,0.20813872272998055
6.1067403314917135,0.2640852394382778
6.140110497237569,0.2701578018370336
6.173480662983426,0.2555830098805809
6.206850828729282,0.2517813957426874
6.240220994475139,0.2763721163459254
6.273591160220995,0.3229765328064157
6.306961325966851,0.36209325302417855
6.340331491712708,0.3535832886421526
6.373701657458564,0.26581552004623604
6.40707182320442,0.09289561905519
6.440441988950277,-0.1383542858803402
6.473812154696133,-0.37563662492473876
6.50718232044199,-0.5600152037092274
6.5405524861878455,-0.6481092522427484
6.573922651933702,-0.6276801298119972
6.607292817679559,-0.519787781901704
6.640662983425415,-0.3671512476175771
6.674033149171271,-0.21483683425627695
6.707403314917127,-0.09265933633549389
6.740773480662984,-0.007189339253512809
6.774143646408841,0.05403412760921534
6.8075138121546965,0.10972187407245838
6.840883977900553,0.1710828510760997
6.874254143646409,0.2345108591476625
6.907624309392266,0.2841402526272362
6.9409944751381225,0.30222314014280993
6.974364640883978,0.2811970500241034
7.007734806629835,0.23061059485230287
7.041104972375691,0.17491965761506117
7.074475138121548,0.1429629326855634
7.107845303867403,0.154211845913791
7.14121546961326,0.2085651479060714
7.174585635359117,0.2847710599997846
7.207955801104973,0.3484201852239616
7.241325966850829,0.36593373844947735
7.274696132596685,0.3182545425074792
7.308066298342542,0.20825758881317732
7.341436464088399,0.058961808481129814
7.3748066298342545,-0.09611861380197077
7.408176795580111,-0.22575342647487454
7.441546961325967,-0.31119639601694027
7.474917127071824,-0.3498323582758834
7.5082872928176805,-0.35170968536921116
7.541657458563536,-0.3316998041131119
7.575027624309393,-0.30164726422979404
7.608397790055249,-0.26623575177764863
7.641767955801106,-0.22398165331623301
7.675138121546962,-0.17206239296626896
7.708508287292818,-0.11186010291031763
7.741878453038675,-0.05187471782021144
7.775248618784531,-0.006045702778089741
7.808618784530387,0.012095237941618677
7.841988950276244,-0.0033169232890599217
7.8753591160221,-0.045691182576746654
7.908729281767957,-0.09668571659448538
7.9420994475138125,-0.1327773221288179
7.975469613259669,-0.13490070862179626
8.008839779005525,-0.09650552389979461
8.042209944751383,-0.02604489948155017
8.075580110497238,0.05717586859887502
8.108950276243094,0.13139709861297685
8.14232044198895,0.18068687096646988
8.175690607734808,0.19932826316562086
8.209060773480664,0.1910978837318304
8.24243093922652,0.16506003261820384
8.275801104972377,0.13093727082981607
8.309171270718233,0.09653064255761101
8.342541436464089,0.06771593321128369
8.375911602209946,0.049628259950433476
8.409281767955802,0.04699144963116491
8.442651933701658,0.06251201073295384
8.476022099447514,0.09414973409272383
8.509392265193371,0.13354774344551745
8.542762430939227,0.1677631257756031
8.576132596685083,0.18449714747993912
8.60950276243094,0.17839611458417864
8.642872928176796,0.1545050850152578
8.676243093922652,0.12592806323860528
8.709613259668508,0.10597109471458928
8.742983425414366,0.09871346282360273
8.776353591160222,0.09370233041923601
8.809723756906077,0.06888945456126927
8.843093922651935,0.0015788296449979352
8.87646408839779,-0.11763981825402407
8.909834254143647,-0.2754295230367458
8.943204419889504,-0.4366059754608309
8.97657458563536,-0.5562679567521774
9.009944751381216,-0.5980995736375297
9.043314917127072,-0.5501556252325934
9.07668508287293,-0.4302169339585762
9.110055248618785,-0.2777737312462058
9.143425414364641,-0.1363553495325989
9.176795580110499,-0.03477657696515183
9.210165745856354,0.023657837605979934
9.24353591160221,0.05907686508273977
9.276906077348068,0.10167887711723636
9.310276243093924,0.17413672952470682
9.34364640883978,0.2785740479286234
9.377016574585635,0.3942632846686148
9.410386740331493,0.4867086860376061
9.443756906077349,0.5232978113587443
9.477127071823205,0.4878749576857742
9.510497237569062,0.3875802592258497
9.543867403314918,0.24935122662712747
9.577237569060774,0.10841961849629397
9.610607734806631,-0.005473287095621661
9.643977900552487,-0.07802766874483846
9.677348066298343,-0.11281837785048854
9.710718232044199,-0.12624859595226984
9.744088397790057,-0.13817104658142526
9.777458563535912,-0.16258508784474188
9.810828729281768,-0.20210662521110978
9.844198895027626,-0.247922262739719
9.877569060773482,-0.2846212160515593
9.910939226519337,-0.29744990422921014
9.944309392265193,-0.2787246537011599
9.97767955801105,-0.23066360322565438
10.011049723756907,-0.16362063215654676
10.044419889502763,-0.0909158503324096
10.07779005524862,-0.023076843216180844
10.111160220994476,0.035554021477523706
10.144530386740332,0.08632476895152323
10.17790055248619,0.13256749152371083
10.211270718232045,0.17509533340768443
10.244640883977901,0.20968843228188094
10.278011049723757,0.22820545020838248
10.311381215469615,0.22289327439102558
10.34475138121547,0.19154915177002713
10.378121546961326,0.14047347113383984
10.411491712707184,0.08315235532194125
10.44486187845304,0.0349078200397661
10.478232044198895,0.006094337861268181
10.511602209944753,-0.002591674493393363
10.544972375690609,-0.00012952902520312363
10.578342541436465,-0.00040406166256711456
10.61171270718232,-0.015020069456032353
10.645082872928178,-0.04725248177415462
10.678453038674034,-0.09001995509615655
10.71182320441989,-0.12874701249199033
10.745193370165747,-0.1477051922880798
10.778563535911603,-0.1369796682319509
10.811933701657459,-0.09713210911950382
10.845303867403315,-0.03975718173664003
10.878674033149172,0.016191927434450477
10.912044198895028,0.05092609454555074
10.945414364640884,0.0509242052367662
10.978784530386742,0.014200643859758708
11.012154696132598,-0.04817389002903536
11.045524861878453,-0.11512830387085037
11.078895027624311,-0.16253187933819027
11.112265193370167,-0.1717361850813427
11.145635359116023,-0.1364536359732991
11.179005524861878,-0.06503084295381703
11.212375690607736,0.023027663422871516
11.245745856353592,0.10483888564141096
11.279116022099448,0.16270078272150426
11.312486187845305,0.18954610545156406
11.345856353591161,0.1890647403717431
11.379226519337017,0.17108027738499762
11.412596685082875,0.14515305946759577
11.44596685082873,0.11601953237120749
11.479337016574586,0.08310289858296148
11.512707182320442,0.043844627364940755
11.5460773480663,-0.0015472122323821826
11.579447513812156,-0.04703682974302357
11.612817679558011,-0.08147429610413034
11.646187845303869,-0.09304380055355078
11.679558011049725,-0.07527509480585534
11.71292817679558,-0.03140559770969641
11.746298342541436,0.02548671615527905
11.779668508287294,0.0770987421304225
11.81303867403315,0.10731578651847164
11.846408839779006,0.10889814887690588
11.879779005524863,0.08611573084523645
11.91314917127072,0.051935005977099394
11.946519337016575,0.021060032739077687
11.979889502762433,0.0022262526857546364
12.013259668508288,-0.006424362968137236
12.046629834254144,-0.016522952272687887
12.08,-0.043480228729797434
12.113370165745858,-0.09809254256819765
12.146740331491714,-0.17966506876127197
12.18011049723757,-0.2738501094058141
12.213480662983427,-0.35625644738097073
12.246850828729283,-0.4004189475766019
12.280220994475139,-0.38704013516765867
12.313591160220996,-0.3110934143070853
12.346961325966852,-0.18429249056153083
12.380331491712708,-0.03206360006747943
12.413701657458564,0.11404725293144892
12.447071823204421,0.2260823072524631
12.480441988950277,0.2881964517351215
12.513812154696133,0.3008806896115361
12.54718232044199,0.279143114080777
12.580552486187846,0.24517959573591108
12.613922651933702,0.21839760593152352
12.64729281767956,0.2069560616620428
12.680662983425416,0.20450729096955747
12.714033149171271,0.19367782713265885
12.747403314917127,0.15495802918492022
12.780773480662985,0.07735759001039264
12.81414364640884,-0.03365707718520878
12.847513812154697,-0.15456173323503353
12.880883977900554,-0.24990088606572006
12.91425414364641,-0.2846295856144711
12.947624309392266,-0.23847118556237903
12.980994475138122,-0.1166364671552945
13.01436464088398,0.04812638349078538
13.047734806629835,0.20428366090309344
13.081104972375691,0.29886222911977434
13.114475138121549,0.29714766512958335
13.147845303867404,0.1967387812874133
13.18121546961326,0.029679565001122878
13.214585635359118,-0.14882508034036973
13.247955801104974,-0.2807932091215502
13.28132596685083,-0.32657674134415055
13.314696132596685,-0.27807180128460696
13.348066298342543,-0.1590900971139728
13.381436464088399,-0.013710018273065255
13.414806629834255,0.11160039762731458
13.448176795580112,0.18436730112493066
13.481546961325968,0.19492857640468111
13.514917127071824,0.155568147819793
13.548287292817681,0.0919611441461626
13.581657458563537,0.031403690416706466
13.615027624309393,-0.007462845631077283
13.648397790055249,-0.02018833558866735
13.681767955801106,-0.016181619658818654
13.715138121546962,-0.013295758224817576
13.748508287292818,-0.029476816655998998
13.781878453038676,-0.07438207696988332
13.815248618784532,-0.14397361850721604
13.848618784530387,-0.22034983922473697
13.881988950276245,-0.27739835959230397
13.9153591160221,-0.2905677248544892
13.948729281767957,-0.24703081071105637
13.982099447513813,-0.15185069769072299
14.01546961325967,-0.027133531809286574
14.048839779005526,0.09579918903197637
14.082209944751382,0.18789676064371338
14.11558011049724,0.23244049603681968
14.148950276243095,0.22938055146502143
14.182320441988951,0.1925594692891723
14.215690607734807,0.14185811643523463
14.249060773480664,0.09442464672454315
14.28243093922652,0.059008630009204636
14.315801104972376,0.035352185157707265
14.349171270718234,0.017876012723743426
14.38254143646409,0.0009777362047093119
14.415911602209945,-0.017043594458831957
14.449281767955803,-0.03322010417703478
14.482651933701659,-0.042208136298371286
14.516022099447515,-0.040001211529025645
14.54939226519337,-0.02689645093624582
14.582762430939228,-0.00813544784512431
14.616132596685084,0.00809064862666775
14.64950276243094,0.014303774962135845
14.682872928176797,0.007374748136459687
14.716243093922653,-0.009516200352975809
14.749613259668509,-0.02755182493168013
14.782983425414367,-0.03552317287285552
14.816353591160222,-0.024581533167441508
14.849723756906078,0.007271248038344484
14.883093922651934,0.052873685906640086
14.916464088397792,0.09714180769716337
14.949834254143648,0.12200441512281654
14.983204419889503,0.11364596591657707
15.016574585635361,0.06936052660508174
15.049944751381217,0.000883386649671555
15.083314917127073,-0.06804869197569431
15.116685082872928,-0.10996585218720006
15.150055248618786,-0.10501597390602177
15.183425414364642,-0.05054335452273362
15.216795580110498,0.03599629210660454
15.250165745856355,0.1230746285237992
15.283535911602211,0.17804378156619385
15.316906077348067,0.18111160623190023
15.350276243093925,0.13340550184873803
15.38364640883978,0.05492011100355151
15.417016574585636,-0.026581235779832055
15.450386740331492,-0.08970118251460539
15.48375690607735,-0.12886193115460776
15.517127071823205,-0.1540293648841246
15.550497237569061,-0.181280177348606
15.583867403314919,-0.2200988649814499
15.617237569060775,-0.2651296055021846
15.65060773480663,-0.29735649838218225
15.683977900552488,-0.2940264232588233
15.717348066298344,-0.24150812105451336
15.7507182320442,-0.1437388984841655
15.784088397790056,-0.02170061618144159
15.817458563535913,0.09540292098623317
15.85082872928177,0.18214421351125054
15.884198895027625,0.2257544143520531
15.917569060773483,0.22805593525963272
15.950939226519338,0.20086874411330286
15.984309392265194,0.15867651456846316
16.01767955801105,0.11296868821824568
16.051049723756908,0.0706303280205654
16.084419889502765,0.035728060690641626
16.11779005524862,0.012077352037180758
16.151160220994477,0.004104614746507435
16.18453038674033,0.015263372221572181
16.21790055248619,0.0452152009889934
16.251270718232046,0.08786303663594516
16.2846408839779,0.13175813694544994
16.318011049723758,0.1629826665614233
16.351381215469615,0.16931652827887708
16.38475138121547,0.1440103889229098
16.418121546961327,0.0878623628467351
16.451491712707185,0.009117697312131969
16.48486187845304,-0.07852114603272742
16.518232044198896,-0.1590617795429305
16.551602209944754,-0.21778378726530814
16.584972375690608,-0.24452663430466146
16.618342541436466,-0.23613748963150877
16.651712707182323,-0.19752411066868258
16.685082872928177,-0.14078669340267344
16.718453038674035,-0.08217401847418095
16.751823204419892,-0.037259236141479635
16.785193370165747,-0.015615232311447616
16.818563535911604,-0.01695769408451931
16.851933701657458,-0.03070061464802885
16.885303867403316,-0.03983861264031298
16.918674033149173,-0.028226579844548995
16.952044198895027,0.011562173048617747
16.985414364640885,0.07347684890783125
17.018784530386743,0.13907370824875398
17.052154696132597,0.18463717716263553
17.085524861878454,0.19155276523593412
17.118895027624312,0.1553202504508357
17.152265193370166,0.08894043773619606
17.185635359116024,0.018807162828744978
