Frequency (Hz),Amplitude
0.0,8.749166276190856
0.01978021978021978,8.74606750868924
0.03956043956043956,8.736776879194672
0.05934065934065934,8.721311418626316
0.07912087912087912,8.699699551646692
0.0989010989010989,8.671981156951182
0.11868131868131868,8.63820765286582
0.13846153846153844,8.598442109456865
0.15824175824175823,8.552759388715147
0.17802197802197803,8.501246314748
0.1978021978021978,8.44400187629273
0.21758241758241756,8.38113746425815
0.23736263736263735,8.312777147402914
0.2571428571428572,8.239057989667455
0.2769230769230769,8.160130413083975
0.2967032967032967,8.076158610585548
0.31648351648351647,7.987321013405658
0.3362637362637363,7.893810818080689
0.35604395604395606,7.795836578308701
0.3758241758241758,7.6936228670347
0.3956043956043956,7.587411014065761
0.4153846153846154,7.477459924190745
0.4351648351648351,7.364046980082714
0.45494505494505494,7.247469033061861
0.4747252747252747,7.128043482916078
0.4945054945054945,7.006109445191022
0.5142857142857143,6.8820290003937
0.5340659340659341,6.756188514059921
0.5538461538461538,6.629000009211767
0.5736263736263736,6.500902562906526
0.5934065934065934,6.372363685842137
0.6131868131868132,6.243880627814373
0.6329670329670329,6.115981531756427
0.6527472527472528,5.989226334841881
0.6725274725274726,5.864207286745803
0.6923076923076923,5.741548923266762
0.7120879120879121,5.621907299641484
0.7318681318681318,5.50596825483947
0.7516483516483516,5.394444450382479
0.7714285714285715,5.288070911252699
0.7912087912087912,5.187598800727864
0.810989010989011,5.093787195599124
0.8307692307692308,5.007392703646424
0.8505494505494506,4.929156890056294
0.8703296703296702,4.859791657124039
0.8901098901098901,4.799962946509363
0.9098901098901099,4.750273387399536
0.9296703296703297,4.711244765006
0.9494505494505494,4.683301387932318
0.9692307692307692,4.666755541624236
0.989010989010989,4.661796187074263
1.0087912087912088,4.668481878554045
1.0285714285714287,4.6867385417187295
1.0483516483516484,4.716362317723688
1.0681318681318681,4.757027209199386
1.087912087912088,4.808296837925674
1.1076923076923075,4.869639308557274
1.1274725274725275,4.940444007486689
1.1472527472527472,5.020039156926294
1.1670329670329669,5.107709067581676
1.1868131868131868,5.202710245944087
1.2065934065934065,5.30428576579246
1.2263736263736265,5.411677565240413
1.2461538461538462,5.524136550194458
1.2659340659340659,5.640930556041076
1.2857142857142858,5.761350337541865
1.3054945054945055,5.884713826602587
1.3252747252747252,6.01036892777499
1.3450549450549452,6.1376951225532395
1.3648351648351649,6.266104135665947
1.3846153846153846,6.395039887881231
1.4043956043956045,6.523977926527062
1.4241758241758242,6.652424491224374
1.443956043956044,6.7799153408537425
1.4637362637362636,6.9060144399223695
1.4835164835164834,7.030312578806599
1.5032967032967033,7.152425982811154
1.523076923076923,7.271994949291047
1.542857142857143,7.388682539751329
1.5626373626373626,7.502173344352456
1.5824175824175823,7.61217232909657
1.6021978021978023,7.718403770692356
1.621978021978022,7.82061028029568
1.6417582417582417,7.918551914666281
1.6615384615384616,8.012005371496475
1.6813186813186813,8.100763264538843
1.7010989010989013,8.18463347351556
1.720879120879121,8.263438563499717
1.7406593406593405,8.337015268418593
1.7604395604395604,8.405214033462597
1.7802197802197801,8.467898611435531
1.7999999999999998,8.52494570840995
1.8197802197802198,8.576244674424922
1.8395604395604395,8.621697235361507
1.8593406593406594,8.66121726253885
1.879120879120879,8.694730576980728
1.8989010989010988,8.722174785703347
1.9186813186813187,8.743499147765661
1.9384615384615385,8.758664468203335
1.9582417582417584,8.767643018335516
1.978021978021978,8.770418481291715
1.9978021978021978,8.766985921955662
2.0175824175824175,8.757351780866149
2.0373626373626372,8.741533891954607
2.0571428571428574,8.719561524337683
2.076923076923077,8.691475448723056
2.096703296703297,8.657328029331662
2.1164835164835165,8.617183342590664
2.1362637362637362,8.571117324211642
2.1560439560439564,8.519217946639424
2.175824175824176,8.46158542923849
2.195604395604396,8.398332483976786
2.215384615384615,8.329584599767825
2.2351648351648348,8.255480369038294
2.254945054945055,8.176171860491605
2.2747252747252746,8.091825042427883
2.2945054945054943,8.002620261340294
2.314285714285714,7.908752780813001
2.3340659340659338,7.810433385964425
2.353846153846154,7.707889058763912
2.3736263736263736,7.601363729440109
2.3934065934065933,7.4911191088108025
2.413186813186813,7.377435605589124
2.4329670329670328,7.260613331417215
2.452747252747253,7.140973194363172
2.4725274725274726,7.018858078661005
2.4923076923076923,6.89463410428861
2.512087912087912,6.7686919542175685
2.5318681318681318,6.641448249418418
2.5516483516483515,6.5133469414938965
2.5714285714285716,6.384860679631426
2.5912087912087913,6.256492091905539
2.610989010989011,6.128774900386342
2.6307692307692307,6.002274764781239
2.6505494505494505,5.877589720581179
2.6703296703296706,5.755350045649121
2.6901098901098903,5.636217355567826
2.70989010989011,5.520882695868063
2.7296703296703297,5.410063373204031
2.7494505494505495,5.304498254325072
2.769230769230769,5.204941269978367
2.7890109890109893,5.11215290076648
2.808791208791209,5.0268895036615815
2.8285714285714287,4.949890469260253
2.8483516483516484,4.881863383250685
2.8681318681318677,4.8234675938080125
2.887912087912088,4.7752968398695925
2.9076923076923076,4.737861839852112
2.9274725274725273,4.711573931876753
2.947252747252747,4.696730947450108
2.9670329670329667,4.693506452209129
2.986813186813187,4.701943283146003
3.0065934065934066,4.721951966361391
3.0263736263736263,4.75331415992379
3.046153846153846,4.795690803132072
3.0659340659340657,4.848634242730768
3.085714285714286,4.911603311459075
3.1054945054945056,4.983980189861323
3.1252747252747253,5.065087890533294
3.145054945054945,5.154207338454584
3.1648351648351647,5.250593238205695
3.184615384615385,5.353488171160657
3.2043956043956046,5.462134612273687
3.2241758241758243,5.575784768445511
3.243956043956044,5.6937083039770195
3.2637362637362637,5.8151981302169045
3.2835164835164834,5.9395745010663425
3.3032967032967036,6.066187682625415
3.3230769230769233,6.1944194643005375
3.342857142857143,6.323683759776403
3.3626373626373627,6.453426517311956
3.3824175824175824,6.583125125754764
3.4021978021978025,6.712287469494865
3.4219780219780223,6.840450754756791
3.441758241758242,6.967180202441759
3.4615384615384617,7.092067679661775
3.481318681318681,7.214730323115751
3.501098901098901,7.334809192216329
3.520879120879121,7.451967977912267
3.5406593406593405,7.56589178395298
3.5604395604395602,7.676285990410855
3.58021978021978,7.782875204166751
3.5999999999999996,7.88540229738579
3.61978021978022,7.983627532442316
3.6395604395604395,8.0773277700303
3.659340659340659,8.166295756108818
3.679120879120879,8.250339482714894
3.6989010989010986,8.329281617401303
3.718681318681319,8.402958996024985
3.7384615384615385,8.471222173750279
3.758241758241758,8.533935029383386
3.7780219780219784,8.59097441848093
3.7978021978021976,8.642229871046228
3.8175824175824173,8.687603330021073
3.8373626373626375,8.727008927184531
3.8571428571428568,8.76037279347349
3.876923076923077,8.787632901136877
3.896703296703296,8.808738935523076
3.916483516483517,8.823652194676963
3.936263736263736,8.832345515289061
3.956043956043956,8.834803223895717
3.9758241758241755,8.83102111257753
3.9956043956043956,8.821006438746055
4.015384615384615,8.804777948947914
4.035164835164835,8.782365926954077
4.054945054945055,8.75381226674297
4.0747252747252745,8.71917057133072
4.094505494505494,8.678506278754098
4.114285714285715,8.631896816872272
4.134065934065934,8.579431789024113
4.153846153846154,8.521213192958864
4.173626373626373,8.457355675849
4.193406593406594,8.387986828591936
4.213186813186813,8.313247523007604
4.232967032967033,8.23329229593378
4.252747252747253,8.148289784597756
4.2725274725274724,8.058423217984087
4.292307692307692,7.963890969197469
4.312087912087913,7.864907174002657
4.331868131868132,7.761702420760141
4.351648351648352,7.654524516802652
4.371428571428571,7.54363933582617
4.391208791208792,7.429331749985988
4.410989010989011,7.31190664894639
4.43076923076923,7.1916900459427975
4.450549450549451,7.069030267740852
4.4703296703296695,6.944299220924574
4.49010989010989,6.817893720861911
4.50989010989011,6.69023686156481
4.52967032967033,6.561779394014199
4.549450549450549,6.4330010668584885
4.569230769230769,6.304411866233236
4.589010989010989,6.176553070399534
4.608791208791209,6.049998009788773
4.628571428571428,5.92535239410719
4.648351648351649,5.803254036290733
4.6681318681318675,5.684371770190937
4.687912087912088,5.569403328153734
4.707692307692308,5.459071921076983
4.7274725274725276,5.35412125398879
4.747252747252747,5.255308723418416
4.767032967032967,5.163396588775964
4.786813186813187,5.0791409982893825
4.806593406593407,5.003278887718913
4.826373626373626,4.936512957955908
4.846153846153847,4.879495166832465
4.8659340659340655,4.8328094194878535
4.885714285714286,4.796954375803646
4.905494505494506,4.772327468486776
4.9252747252747255,4.759211295776354
4.945054945054945,4.757763483485367
4.964835164835165,4.768010890071809
4.984615384615385,4.789848674539523
5.004395604395604,4.823044309694116
5.024175824175824,4.86724617264574
5.043956043956045,4.921995953830649
5.0637362637362635,4.98674385358104
5.083516483516483,5.060865411663396
5.103296703296703,5.143678838563683
5.123076923076923,5.234461859498678
5.142857142857143,5.332467299960052
5.162637362637362,5.4369368892464065
5.182417582417583,5.547112997283245
5.2021978021978015,5.662248223811434
5.221978021978022,5.781612914629816
5.241758241758242,5.9045007848164826
5.2615384615384615,6.030232888905377
5.281318681318681,6.158160201857013
5.301098901098901,6.287665072356155
5.320879120879121,6.418161790737562
5.340659340659341,6.549096485238713
5.36043956043956,6.6799465279144155
5.380219780219781,6.810219599223648
5.3999999999999995,6.939452530330509
5.41978021978022,7.067210015756574
5.43956043956044,7.193083266621373
5.4593406593406595,7.316688656264718
5.479120879120879,7.437666395235314
5.498901098901099,7.555679260996439
5.518681318681319,7.670411398745332
5.538461538461538,7.7815672029884135
5.558241758241758,7.888870284526306
5.578021978021979,7.992062523906591
5.5978021978021975,8.090903209886319
5.617582417582418,8.185168259754281
5.637362637362637,8.274649517292058
5.6571428571428575,8.359154123541037
5.676923076923077,8.43850395526603
5.696703296703297,8.512535125969341
5.716483516483517,8.58109754443922
5.736263736263735,8.644054526060001
5.756043956043956,8.701282452428883
5.775824175824176,8.752670475185536
5.795604395604395,8.798120260347378
5.815384615384615,8.837545769839243
5.835164835164835,8.8708730773031
5.854945054945055,8.898040215665556
5.874725274725275,8.918997054323578
5.894505494505494,8.933705204182552
5.914285714285715,8.942137949143968
5.934065934065933,8.94428020299463
5.953846153846154,8.94012849099629
5.973626373626374,8.929690955816625
5.993406593406593,8.912987387781492
6.013186813186813,8.890049279767306
6.032967032967033,8.860919907393043
6.052747252747253,8.825654435517292
6.072527472527473,8.784320052397327
6.092307692307692,8.736996133228198
6.112087912087913,8.683774435148926
6.131868131868131,8.624759326182295
6.151648351648352,8.560068050961183
6.171428571428572,8.489831036486546
6.191208791208791,8.414192241552284
6.210989010989011,8.333309553853619
6.230769230769231,8.247355239151972
6.2505494505494505,8.156516447183488
6.270329670329671,8.060995779240484
6.29010989010989,7.961011922488112
6.309890109890111,7.8568003560503525
6.329670329670329,7.748614133640591
6.349450549450549,7.636724746931013
6.36923076923077,7.521423072832603
6.3890109890109885,7.403020406240248
6.408791208791209,7.281849577389656
6.428571428571428,7.158266149531832
6.4483516483516485,7.032649687857591
6.468131868131868,6.905405084141904
6.487912087912088,6.776963913012434
6.507692307692308,6.64778578461724
6.527472527472527,6.518359644296259
6.547252747252747,6.389204952202413
6.567032967032967,6.2608726543437765
6.5868131868131865,6.13394583115219
6.606593406593407,6.009039880794129
6.626373626373626,5.886802063097801
6.6461538461538465,5.7679101982741035
6.665934065934065,5.653070286030479
6.685714285714286,5.5430127903895094
6.705494505494506,5.438487330553645
6.725274725274725,5.3402555372027765
6.745054945054945,5.249081886269995
6.764835164835165,5.16572241742975
6.7846153846153845,5.090911387962866
6.804395604395605,5.025346103559046
6.824175824175824,4.969670395278421
6.8439560439560445,4.9244574532928524
6.863736263736263,4.8901929479732
6.883516483516484,4.867259524165919
6.903296703296704,4.855923802411231
6.923076923076923,4.85632693078061
6.942857142857143,4.868479495710655
6.962637362637362,4.892261242387686
6.9824175824175825,4.927425625826193
7.002197802197802,4.973608781209508
7.021978021978022,5.030342135500825
7.041758241758242,5.097067634728161
7.061538461538461,5.173154458007358
7.081318681318681,5.257916125480455
7.101098901098901,5.350627053973783
7.1208791208791204,5.450537829288374
7.140659340659341,5.556888704183335
7.16043956043956,5.668921060291015
7.1802197802197805,5.785886766341496
7.199999999999999,5.907055512492145
7.21978021978022,6.03172029972778
7.23956043956044,6.159201319457242
7.259340659340659,6.288848480274568
7.279120879120879,6.420042835934948
7.298901098901099,6.552197149686507
7.318681318681318,6.684755802349677
7.338461538461539,6.817194220255005
7.358241758241758,6.949017967936233
7.3780219780219785,7.0797616215280765
7.397802197802197,7.208987513286367
7.417582417582418,7.336284415955236
7.437362637362638,7.461266217813474
7.457142857142857,7.583570624833109
7.476923076923077,7.702857915045762
7.496703296703297,7.818809761462608
7.516483516483516,7.931128133273521
7.536263736263736,8.039534280145968
7.556043956043957,8.14376780089394
7.575824175824176,8.243585795291082
7.595604395604395,8.338762096113085
7.615384615384615,8.429086577415266
7.635164835164835,8.514364534424653
7.654945054945055,8.594416130132108
7.674725274725275,8.66907590361326
7.694505494505494,8.738192335219386
7.7142857142857135,8.801627464004582
7.734065934065935,8.859256553057026
7.753846153846154,8.910967798749661
7.7736263736263735,8.956662080299429
7.793406593406592,8.99625274640979
7.813186813186814,9.029665436159604
7.832967032967034,9.056837931686106
7.852747252747252,9.077720040587051
7.872527472527472,9.092273506336207
7.892307692307693,9.100471945366655
7.912087912087912,9.102300809828423
7.931868131868132,9.097757375372835
7.951648351648351,9.08685075365734
7.971428571428572,9.069601929603113
7.991208791208791,9.046043823777007
8.010989010989011,9.01622138061044
8.03076923076923,8.980191683513382
8.05054945054945,8.938024098293507
8.07032967032967,8.889800446650028
8.09010989010989,8.835615211878956
8.10989010989011,8.775575779301667
8.129670329670331,8.70980271430904
8.149450549450549,8.638430081295384
8.169230769230769,8.561605807132892
8.189010989010988,8.479492093198292
8.20879120879121,8.392265880292502
8.22857142857143,8.30011937107117
8.248351648351647,8.20326061479611
8.268131868131867,8.101914159286345
8.287912087912087,7.9963217748341275
8.307692307692308,7.886743254484463
8.327472527472528,7.773457294357584
8.347252747252746,7.656762456498738
8.367032967032966,7.536978214907165
8.386813186813187,7.414446082726168
8.406593406593407,7.289530814817887
8.426373626373627,7.1626216747987534
8.446153846153845,7.03413374871576
8.465934065934066,6.90450927849296
8.485714285714286,6.774218976626869
8.505494505494505,6.643763268912658
8.525274725274725,6.513673393845312
8.545054945054945,6.384512265516248
8.564835164835165,6.256874981356064
8.584615384615384,6.131388827486392
8.604395604395604,6.008712604009669
8.624175824175826,5.889535062614104
8.643956043956043,5.774572223113148
8.663736263736263,5.664563319336481
8.683516483516483,5.5602651252326165
8.703296703296704,5.462444437654528
8.723076923076924,5.371868552143777
8.742857142857142,5.289293670025191
8.762637362637362,5.215451323512191
8.782417582417583,5.151033097708563
8.802197802197803,5.09667415187168
8.821978021978023,5.052936272819906
8.84175824175824,5.020291395755563
8.86153846153846,4.999106660625743
8.881318681318682,4.989632096424542
8.901098901098901,4.991991915861771
8.920879120879121,5.006180156234117
8.940659340659339,5.03206104511779
8.96043956043956,5.069374053002636
8.98021978021978,5.117743184857774
9.0,5.1766897229011954
9.01978021978022,5.245647410629903
9.03956043956044,5.323978983962025
9.05934065934066,5.4109930017751
9.079120879120879,5.505960076194651
9.098901098901099,5.608127812535932
9.11868131868132,5.716733999208224
9.138461538461538,5.831017805958897
9.158241758241758,5.9502289326592415
9.178021978021977,6.073634790013186
9.197802197802199,6.2005258870311275
9.217582417582419,6.330219652961273
9.237362637362637,6.46206294184215
9.257142857142856,6.595433464926261
9.276923076923078,6.729740378164738
9.296703296703297,6.864424225462338
9.316483516483517,6.998956408519093
9.336263736263735,7.132838324180166
9.356043956043957,7.26560028241718
9.375824175824176,7.396800293474454
9.395604395604396,7.52602279175434
9.415384615384616,7.652877346668931
9.435164835164835,7.776997396676343
9.454945054945055,7.898039031645785
9.474725274725275,8.01567984011409
9.494505494505495,8.129617831474167
9.514285714285714,8.239570438277925
9.534065934065934,8.345273600299674
9.553846153846154,8.446480929501108
9.573626373626373,8.542962953327683
9.593406593406593,8.634506432657657
9.613186813186815,8.720913750066279
9.632967032967032,8.802002363740627
9.652747252747252,8.877604322293772
9.672527472527472,8.94756583580952
9.692307692307693,9.011746898649685
9.712087912087913,9.070020959834512
9.731868131868131,9.12227463713538
9.75164835164835,9.168407471376577
9.771428571428572,9.208331717815291
9.791208791208792,9.241972171846376
9.810989010989012,9.269266026654371
9.83076923076923,9.290162760806075
9.850549450549451,9.304624054140836
9.87032967032967,9.312623730672568
9.89010989010989,9.314147727566963
9.90989010989011,9.309194089601984
9.92967032967033,9.297772988860059
9.94945054945055,9.279906769739119
9.96923076923077,9.255630019708711
9.989010989010989,9.224989666578516
10.008791208791209,9.18804510339201
10.028571428571428,9.144868342409135
10.048351648351648,9.095544199998832
10.068131868131868,9.040170514626345
10.08791208791209,8.978858400488768
10.107692307692307,8.911732539723673
10.127472527472527,8.838931516483804
10.147252747252747,8.760608196527981
10.167032967032966,8.676930156312746
10.186813186813188,8.588080165862246
10.206593406593406,8.494256729922725
10.226373626373626,8.39567469203722
10.246153846153845,8.292565906162524
10.265934065934067,8.185179980232077
10.285714285714286,8.073785095568052
10.305494505494504,7.958668905159076
10.325274725274724,7.8401395124164726
10.345054945054946,7.7185265299347146
10.364835164835165,7.594182214802523
10.384615384615385,7.467482672886866
10.404395604395603,7.338829118937204
10.424175824175824,7.208649171978881
10.443956043956044,7.077398155884413
10.463736263736264,6.9455603628121
10.483516483516484,6.8136502219763315
10.503296703296703,6.682213297639389
10.523076923076923,6.55182701814279
10.542857142857143,6.423101012409019
10.562637362637362,6.296676902349687
10.582417582417584,6.173227370505167
10.602197802197802,6.0534542945835055
10.621978021978022,5.93808571829679
10.641758241758241,5.827871416518938
10.661538461538463,5.723576819370515
10.681318681318682,5.62597509257901
10.7010989010989,5.535837238706685
10.72087912087912,5.453920192295534
10.740659340659342,5.380953034235766
10.760439560439561,5.317621642237182
10.780219780219781,5.264552310980453
10.799999999999999,5.2222950922286
10.819780219780219,5.19130778733486
10.83956043956044,5.171941633294883
10.85934065934066,5.164429724004659
10.87912087912088,5.16887908021187
