Time (s),Filtered Signal
0.0,-0.055340719249872515
0.033370165745856356,-0.178667768597926
0.06674033149171271,-0.26319923772581577
0.10011049723756907,-0.28192508859473675
0.13348066298342542,-0.22663974648500781
0.16685082872928178,-0.10983808248644127
0.20022099447513814,0.040146330178196354
0.2335911602209945,0.1892762096903141
0.26696132596685085,0.309442683374831
0.30033149171270723,0.38687445317065045
0.33370165745856356,0.42386542544635986
0.3670718232044199,0.43349308435616873
0.4004419889502763,0.4304227690319643
0.43381215469613266,0.42268586359411614
0.467182320441989,0.40846502047085775
0.5005524861878453,0.37897890156369296
0.5339226519337017,0.32528290327242126
0.5672928176795581,0.24499412771642992
0.6006629834254145,0.14540545729405535
0.6340331491712707,0.04164358669044065
0.6674033149171271,-0.04891497694817826
0.7007734806629835,-0.11314720152626537
0.7341436464088398,-0.14671882175793766
0.7675138121546962,-0.15497097630857068
0.8008839779005525,-0.15016509184370253
0.8342541436464089,-0.14646846168860647
0.8676243093922653,-0.15468079235577487
0.9009944751381216,-0.1785251819309864
0.934364640883978,-0.21359028923886622
0.9677348066298344,-0.24904558064787136
1.0011049723756906,-0.27137136934548894
1.0344751381215471,-0.2687884380685037
1.0678453038674034,-0.23497012685309615
1.1012154696132597,-0.17097148975641815
1.1345856353591162,-0.08497505290479612
1.1679558011049724,0.009814082083056504
1.201325966850829,0.0982612180756343
1.2346961325966852,0.1663898069822968
1.2680662983425415,0.20376407115824713
1.301436464088398,0.20499527476389978
1.3348066298342542,0.1706190643717439
1.3681767955801105,0.10758653216394665
1.401546961325967,0.029155719782975514
1.4349171270718233,-0.04655486665545583
1.4682872928176796,-0.10008970497501965
1.501657458563536,-0.1161341969949313
1.5350276243093923,-0.08940966817428876
1.5683977900552488,-0.028372257955074764
1.601767955801105,0.04571254334459612
1.6351381215469614,0.10503776821814931
1.6685082872928179,0.12504930141122908
1.7018784530386741,0.09392956071048703
1.7352486187845306,0.01761680772244733
1.768618784530387,-0.08207898467249056
1.8019889502762432,-0.17570561938867213
1.8353591160220997,-0.2373391592270516
1.868729281767956,-0.25397700291768927
1.9020994475138122,-0.22929096643830324
1.9354696132596687,-0.1804810220269578
1.968839779005525,-0.13004929634870618
2.0022099447513813,-0.09639194982595889
2.0355801104972375,-0.08725521085901054
2.0689502762430942,-0.09839750704332487
2.1023204419889505,-0.11723107164340434
2.135690607734807,-0.12910636967286265
2.169060773480663,-0.12318985899840224
2.2024309392265193,-0.09567945704468549
2.235801104972376,-0.049737464011217675
2.2691712707182323,0.00696895948895844
2.3025414364640886,0.0655372159239104
2.335911602209945,0.11854395493542083
2.369281767955801,0.16155074938028774
2.402651933701658,0.1934089412958591
2.436022099447514,0.21569475763376186
2.4693922651933704,0.2316410916347419
2.5027624309392267,0.2448894492264327
2.536132596685083,0.25838426687277977
2.5695027624309392,0.27371568657754153
2.602872928176796,0.291067127472457
2.636243093922652,0.309634980005246
2.6696132596685085,0.3281288096358719
2.7029834254143648,0.3449560317622494
2.736353591160221,0.3580151954629191
2.7697237569060777,0.3644681901678141
2.803093922651934,0.36107226878488646
2.8364640883977903,0.34537353611418564
2.8698342541436466,0.3173777576998844
2.903204419889503,0.2806454359157893
2.936574585635359,0.24162610943395257
2.969944751381216,0.20673219044818944
3.003314917127072,0.17797078216187476
3.0366850828729284,0.1492662121212055
3.0700552486187846,0.1060874696994259
3.103425414364641,0.030040090776949364
3.1367955801104976,-0.09226662187800967
3.170165745856354,-0.2596125587684689
3.20353591160221,-0.45116197055338453
3.2369060773480665,-0.6306868526176023
3.2702762430939227,-0.7609168717203215
3.3036464088397794,-0.8233383877097222
3.3370165745856357,-0.8340116535221946
3.370386740331492,-0.8451009588850169
3.4037569060773483,-0.926552363923953
3.4371270718232045,-1.1316790947551825
3.4704972375690613,-1.4603164918386689
3.5038674033149175,-1.8382222288457832
3.537237569060774,-2.1274561461966237
3.57060773480663,-2.16968734691518
3.6039779005524863,-1.8479736163405378
3.6373480662983426,-1.140925549963409
3.6707182320441993,-0.1434914387406978
3.7040883977900556,0.9576847502040797
3.737458563535912,1.945403927255995
3.770828729281768,2.6433388317935216
3.8041988950276244,2.9674057927988264
3.837569060773481,2.937795919024297
3.8709392265193374,2.6519329023001013
3.9043093922651937,2.235702799295296
3.93767955801105,1.796565748843713
3.9710497237569062,1.3963858361515935
4.0044198895027625,1.0493259414576677
4.037790055248619,0.7384673111986461
4.071160220994475,0.43904275159025186
4.104530386740332,0.1370716199778544
4.1379005524861885,-0.16276143675407814
4.171270718232044,-0.4402874982558974
4.204640883977901,-0.670119311747732
4.238011049723757,-0.8332517095156233
4.271381215469614,-0.9248384273746522
4.30475138121547,-0.9552669975396698
4.338121546961326,-0.9446890474803409
4.371491712707183,-0.9139034805918975
4.404861878453039,-0.8759379720270452
4.438232044198895,-0.8322200893394079
4.471602209944752,-0.775008350540972
4.504972375690608,-0.6947324217144649
4.538342541436465,-0.5884952440796142
4.5717127071823205,-0.4653968856216388
4.605082872928177,-0.34584284180113933
4.638453038674034,-0.2548355294760862
4.67182320441989,-0.21203067438820936
4.7051933701657465,-0.22281628925252492
4.738563535911602,-0.274301256466343
4.771933701657459,-0.3381557740637297
4.805303867403316,-0.37953409896448004
4.8386740331491715,-0.36883854519620024
4.872044198895028,-0.2918119374834969
4.905414364640884,-0.15400320152100871
4.938784530386741,0.022033769588568092
4.972154696132597,0.20533840658919875
5.005524861878453,0.367074888988633
5.03889502762431,0.488662857156299
5.072265193370166,0.5647681777018092
5.105635359116023,0.6010616414870606
5.1390055248618784,0.6088721465876943
5.172375690607735,0.5996234779032085
5.205745856353592,0.5811936889564324
5.239116022099448,0.5568365178914646
5.272486187845304,0.5260318516893214
5.30585635359116,0.48616531939645385
5.339226519337017,0.43420969460827796
5.372596685082874,0.36809299417091884
5.4059668508287295,0.2877109972601576
5.439337016574586,0.19546660064571075
5.472707182320442,0.09606246583227532
5.506077348066299,-0.004618992481219586
5.5394475138121555,-0.10126138066088755
5.572817679558011,-0.19068249767505713
5.606187845303868,-0.27227450802142317
5.639558011049724,-0.3468243979528477
5.672928176795581,-0.41411717717227686
5.706298342541437,-0.47055968989142655
5.739668508287293,-0.508323016159021
5.77303867403315,-0.5169557710832134
5.806408839779006,-0.48726070638985847
5.839779005524862,-0.4159835399665874
5.873149171270718,-0.3091616687961677
5.906519337016575,-0.18224296288805442
5.939889502762432,-0.056303665448089665
5.9732596685082875,0.048599995908028784
6.006629834254144,0.12046217027423134
6.04,0.15975659887627716
6.073370165745857,0.17907023267732866
6.1067403314917135,0.19761570803555478
6.140110497237569,0.2325189730296291
6.173480662983426,0.2903766119967241
6.206850828729282,0.3627648530320299
6.240220994475139,0.4279548816079075
6.273591160220995,0.45856136366051764
6.306961325966851,0.43226479978449417
6.340331491712708,0.34124836719156953
6.373701657458564,0.1963320560592261
6.40707182320442,0.023953722888791284
6.440441988950277,-0.1427525967868915
6.473812154696133,-0.2749432291552783
6.50718232044199,-0.35651017727779244
6.5405524861878455,-0.386836930058446
6.573922651933702,-0.37758742642933213
6.607292817679559,-0.3459369550349871
6.640662983425415,-0.30774918787405553
6.674033149171271,-0.2733528119717252
6.707403314917127,-0.2466033088504138
6.740773480662984,-0.22618764316815732
6.774143646408841,-0.20758793016971241
6.8075138121546965,-0.18474641116868798
6.840883977900553,-0.15146192487275728
6.874254143646409,-0.10300494734661998
6.907624309392266,-0.03805570316332131
6.9409944751381225,0.03971696041436164
6.974364640883978,0.12153978651256239
7.007734806629835,0.1955597459021287
7.041104972375691,0.2505833831551914
7.074475138121548,0.28002673373161485
7.107845303867403,0.2842492307143326
7.14121546961326,0.2701314197523744
7.174585635359117,0.24806537263358555
7.207955801104973,0.22771524851553662
7.241325966850829,0.21436454666176388
7.274696132596685,0.2072603402787945
7.308066298342542,0.2004181312855359
7.341436464088399,0.18537073046583663
7.3748066298342545,0.1547177769971171
7.408176795580111,0.10519244826528315
7.441546961325967,0.03923813186003665
7.474917127071824,-0.03537543048692946
7.5082872928176805,-0.10773545626168768
7.541657458563536,-0.16704156655681926
7.575027624309393,-0.20585547241577526
7.608397790055249,-0.22224540780454505
7.641767955801106,-0.22006680522006536
7.675138121546962,-0.20724573760133494
7.708508287292818,-0.19264784172380128
7.741878453038675,-0.18265995113630792
7.775248618784531,-0.1787475705765237
7.808618784530387,-0.1768875464909498
7.841988950276244,-0.16904422014188464
7.8753591160221,-0.14608136978535985
7.908729281767957,-0.10103769801071427
7.9420994475138125,-0.03172802773504725
7.975469613259669,0.05793476807179195
8.008839779005525,0.15799420142576556
8.042209944751383,0.25370887391913904
8.075580110497238,0.32787384790419616
8.108950276243094,0.3641502227985458
8.14232044198895,0.35115754877818356
8.175690607734808,0.2865137214371545
8.209060773480664,0.1793634832905725
8.24243093922652,0.04978973038369808
8.275801104972377,-0.07570748113760518
8.309171270718233,-0.17183863556523415
8.342541436464089,-0.22267572238269512
8.375911602209946,-0.22691954666582695
8.409281767955802,-0.19770872432856018
8.442651933701658,-0.15670984068387606
8.476022099447514,-0.12491659131429797
8.509392265193371,-0.11420502857590467
8.542762430939227,-0.12333128816439066
8.576132596685083,-0.13989356917843063
8.60950276243094,-0.1469625573581712
8.642872928176796,-0.131060601979891
8.676243093922652,-0.08787633196286589
8.709613259668508,-0.0235069876567933
8.742983425414366,0.04875049863697666
8.776353591160222,0.11413964024740135
8.809723756906077,0.1620290320295655
8.843093922651935,0.18914579613775404
8.87646408839779,0.19954544496710594
8.909834254143647,0.20178305569095029
8.943204419889504,0.20467066498399236
8.97657458563536,0.21326431936523735
9.009944751381216,0.2264275188497582
9.043314917127072,0.23670564637053343
9.07668508287293,0.2325334935421837
9.110055248618785,0.20212985862366498
9.143425414364641,0.1379236482763528
9.176795580110499,0.0401262788545614
9.210165745856354,-0.0817783073439472
9.24353591160221,-0.21029209127781462
9.276906077348068,-0.323736911790329
9.310276243093924,-0.4016459572506427
9.34364640883978,-0.43015154214832013
9.377016574585635,-0.4057644116413862
9.410386740331493,-0.3363988801681627
9.443756906077349,-0.2392953245279005
9.477127071823205,-0.13638905924018446
9.510497237569062,-0.048430858672914696
9.543867403314918,0.010439625789880577
9.577237569060774,0.036086899320442366
9.610607734806631,0.03480150060824172
9.643977900552487,0.02076292000074294
9.677348066298343,0.011432896824918205
9.710718232044199,0.022238870490991134
9.744088397790057,0.06189723447834821
9.777458563535912,0.1294357222754743
9.810828729281768,0.21364865084427187
9.844198895027626,0.2953859691814724
9.877569060773482,0.3525355079362337
9.910939226519337,0.3666664505632515
9.944309392265193,0.32931114067392797
9.97767955801105,0.24542035714378238
10.011049723756907,0.13224120339715723
10.044419889502763,0.013713240321823418
10.07779005524862,-0.08740795713452894
10.111160220994476,-0.15635523838731372
10.144530386740332,-0.18934282203198693
10.17790055248619,-0.19204019575806142
10.211270718232045,-0.17505854086967668
10.244640883977901,-0.1491211294110569
10.278011049723757,-0.12209503876958917
10.311381215469615,-0.09846251445588555
10.34475138121547,-0.08026175295793812
10.378121546961326,-0.06799541652515025
10.411491712707184,-0.060656556359841796
10.44486187845304,-0.05520203338038295
10.478232044198895,-0.046567345663206895
10.511602209944753,-0.029095206419897497
10.544972375690609,0.0007903844968280615
10.578342541436465,0.041945105311612135
10.61171270718232,0.08755969820731486
10.645082872928178,0.12688282489391975
10.678453038674034,0.14918017004974746
10.71182320441989,0.14818321799863227
10.745193370165747,0.12484097145581574
10.778563535911603,0.08693578874579545
10.811933701657459,0.04571006234373027
10.845303867403315,0.011222907083180819
10.878674033149172,-0.011187794191040802
10.912044198895028,-0.02165225414081813
10.945414364640884,-0.023716949787078008
10.978784530386742,-0.02114924670670794
11.012154696132598,-0.015842601376982183
11.045524861878453,-0.00817688270479362
11.078895027624311,0.0006079537062901124
11.112265193370167,0.00597113755097133
11.145635359116023,-0.0002881072605952656
11.179005524861878,-0.02739277563174957
11.212375690607736,-0.08090437676368646
11.245745856353592,-0.15828942434204157
11.279116022099448,-0.24710527437526425
11.312486187845305,-0.32702691168831044
11.345856353591161,-0.3752610844887484
11.379226519337017,-0.37351997151685407
11.412596685082875,-0.3141609472394801
11.44596685082873,-0.2033934940663581
11.479337016574586,-0.06037424177229393
11.512707182320442,0.08773390598087281
11.5460773480663,0.2133526128932574
11.579447513812156,0.29632703239931574
11.612817679558011,0.32931410464796473
11.646187845303869,0.3187433741611936
11.679558011049725,0.281005963646544
11.71292817679558,0.23545861689653902
11.746298342541436,0.19717561586411725
11.779668508287294,0.17244132046773097
11.81303867403315,0.1586465595901578
11.846408839779006,0.148141048270991
11.879779005524863,0.1337445470181783
11.91314917127072,0.11297331111174708
11.946519337016575,0.08892226116378596
11.979889502762433,0.0676669217625441
12.013259668508288,0.05395237174823884
12.046629834254144,0.0477766316214793
12.08,0.0438266791622765
12.113370165745858,0.03401885625528725
12.146740331491714,0.011647965996001612
12.18011049723757,-0.025158179112193924
12.213480662983427,-0.0724704526821107
12.246850828729283,-0.12242722436782867
12.280220994475139,-0.1667822387525731
12.313591160220996,-0.20020144933252007
12.346961325966852,-0.22167380117846686
12.380331491712708,-0.2335157416616136
12.413701657458564,-0.2387531115732894
12.447071823204421,-0.23848181522584888
12.480441988950277,-0.23073921887949014
12.513812154696133,-0.21151790064011303
12.54718232044199,-0.1773143822336373
12.580552486187846,-0.12771680830531548
12.613922651933702,-0.06651027644900004
12.64729281767956,-0.0006410964718249816
12.680662983425416,0.06237262206164644
12.714033149171271,0.11710465669296846
12.747403314917127,0.1614600939784232
12.780773480662985,0.19584079285638803
12.81414364640884,0.2208084696273783
12.847513812154697,0.2347344844993716
12.880883977900554,0.23304550399920795
12.91425414364641,0.2099065133044827
12.947624309392266,0.16185817879481293
12.980994475138122,0.09165700502418557
13.01436464088398,0.010016946495802457
13.047734806629835,-0.06644171241609424
13.081104972375691,-0.12101353978529135
13.114475138121549,-0.14431442133637223
13.147845303867404,-0.1396061294357602
13.18121546961326,-0.12263423230642434
13.214585635359118,-0.1148856901165953
13.247955801104974,-0.13264230359371987
13.28132596685083,-0.17701583230384782
13.314696132596685,-0.23051836552012275
13.348066298342543,-0.2630271275327267
13.381436464088399,-0.24533102073622762
13.414806629834255,-0.16415097649321392
13.448176795580112,-0.03102109694438699
13.481546961325968,0.12016503980156719
13.514917127071824,0.2467034608065758
13.548287292817681,0.3156892333435974
13.581657458563537,0.3186099808897433
13.615027624309393,0.2744244231987527
13.648397790055249,0.21926342160700385
13.681767955801106,0.18774036698646243
13.715138121546962,0.195274907755345
13.748508287292818,0.23040458665764466
13.781878453038676,0.2609690592402258
13.815248618784532,0.2509846538461011
13.848618784530387,0.17967396570099448
13.881988950276245,0.053185031998152464
13.9153591160221,-0.09662952670277605
13.948729281767957,-0.22550905280976472
13.982099447513813,-0.2955114314002075
14.01546961325967,-0.2902984340472241
14.048839779005526,-0.2203169733757731
14.082209944751382,-0.1164354341676338
14.11558011049724,-0.016008133417910873
14.148950276243095,0.05170801459336118
14.182320441988951,0.0745164383269429
14.215690607734807,0.05782998127150008
14.249060773480664,0.01822160358664553
14.28243093922652,-0.025802777261670993
14.315801104972376,-0.06127227364289301
14.349171270718234,-0.08374822075475256
14.38254143646409,-0.0957846093027259
14.415911602209945,-0.10283556618317176
14.449281767955803,-0.10924954726692906
14.482651933701659,-0.11627215418389748
14.516022099447515,-0.1224957090341092
14.54939226519337,-0.1257672311606183
14.582762430939228,-0.12490214418855344
14.616132596685084,-0.11995284251037691
14.64950276243094,-0.11097165846675612
14.682872928176797,-0.09641527350665058
14.716243093922653,-0.07273198658024763
14.749613259668509,-0.03593254347488082
14.782983425414367,0.015464734298565696
14.816353591160222,0.07782846543253683
14.849723756906078,0.14186441244733441
14.883093922651934,0.19470836228627744
14.916464088397792,0.22375879156669257
14.949834254143648,0.22049037613507702
14.983204419889503,0.18275095522478832
15.016574585635361,0.11508277084731665
15.049944751381217,0.027594693892339178
15.083314917127073,-0.06579718702201076
15.116685082872928,-0.14935171538691672
15.150055248618786,-0.20785874413305264
15.183425414364642,-0.22962293279922552
15.216795580110498,-0.2097852715137462
15.250165745856355,-0.1528709097103928
15.283535911602211,-0.07302044776306453
15.316906077348067,0.009165353283198577
15.350276243093925,0.07286416536566963
15.38364640883978,0.10437619254311975
15.417016574585636,0.10255266640051297
15.450386740331492,0.07963428425761163
15.48375690607735,0.05664160405617293
15.517127071823205,0.05496865067477996
15.550497237569061,0.08774453952570083
15.583867403314919,0.154767581701346
15.617237569060775,0.24316416429984283
15.65060773480663,0.3331794075174557
15.683977900552488,0.4060619052684903
15.717348066298344,0.4501189595892802
15.7507182320442,0.46216842757192744
15.784088397790056,0.4442317741339566
15.817458563535913,0.39803084050746146
15.85082872928177,0.32116148347944984
15.884198895027625,0.20788359776470172
15.917569060773483,0.054662512881285846
15.950939226519338,-0.13256910393948365
15.984309392265194,-0.33410041467273727
16.01767955801105,-0.5187123322153125
16.051049723756908,-0.65280444068267
16.084419889502765,-0.7127933937958043
16.11779005524862,-0.6950256917882933
16.151160220994477,-0.6182304001895389
16.18453038674033,-0.5168784839952106
16.21790055248619,-0.4279779342742141
16.251270718232046,-0.3767810720592201
16.2846408839779,-0.36731736146522626
16.318011049723758,-0.3815396313337116
16.351381215469615,-0.38723925147025584
16.38475138121547,-0.3513493199021209
16.418121546961327,-0.2532664289054811
16.451491712707185,-0.09310137308684292
16.48486187845304,0.10795353161275154
16.518232044198896,0.31476549624999334
16.551602209944754,0.48980541346602247
16.584972375690608,0.6047338648512964
16.618342541436466,0.6481556713731732
16.651712707182323,0.6274312289064189
16.685082872928177,0.5646022664112882
16.718453038674035,0.4882586716717196
16.751823204419892,0.424105951425182
16.785193370165747,0.3870651477161979
16.818563535911604,0.37714488217252445
16.851933701657458,0.38026836804051845
16.885303867403316,0.3738640333061032
16.918674033149173,0.3355465069923003
16.952044198895027,0.2520174637776738
16.985414364640885,0.12492648955963705
17.018784530386743,-0.028753216347392405
17.052154696132597,-0.18231396271245706
17.085524861878454,-0.3088876062166207
17.118895027624312,-0.39114872880850726
17.152265193370166,-0.42699720467164143
17.185635359116024,-0.42869888284193797
17.21900552486188,-0.4158917316472309
