Time (s),Filtered Signal
0.0,-0.001694234696227514
0.0334075723830735,0.06886198897775032
0.066815144766147,0.11870632896827397
0.1002227171492205,0.13420188473312605
0.133630289532294,0.11406204077564043
0.1670378619153675,0.06960921360056466
0.200445434298441,0.020000127437583184
0.23385300668151449,-0.01588342864198631
0.267260579064588,-0.027351218327997324
0.3006681514476615,-0.015825066765811364
0.334075723830735,0.007198262680982348
0.3674832962138085,0.02695987826637577
0.400890868596882,0.03324992364648572
0.4342984409799555,0.025036529506569608
0.46770601336302897,0.009786144052888288
0.5011135857461025,-0.0014671375681601412
0.534521158129176,3.8700388876650986e-05
0.5679287305122495,0.01739823933023939
0.601336302895323,0.048360988416599526
0.6347438752783965,0.08804148155474857
0.66815144766147,0.13139498166199814
0.7015590200445435,0.173658453722359
0.734966592427617,0.20911340737947676
0.7683741648106905,0.23025995438005278
0.801781737193764,0.22937768697597516
0.8351893095768375,0.20247719245032625
0.868596881959911,0.15326303387945814
0.9020044543429845,0.09382080879900356
0.9354120267260579,0.04026038643042412
0.9688195991091315,0.004747899395177321
1.002227171492205,-0.011814120194435049
1.0356347438752784,-0.021776251403581047
1.069042316258352,-0.045299981294372
1.1024498886414256,-0.09961935835293863
1.135857461024499,-0.18851000723393485
1.1692650334075725,-0.2978426510054741
1.202672605790646,-0.40010280925556263
1.2360801781737194,-0.46602309602027764
1.269487750556793,-0.47765413166845216
1.3028953229398665,-0.4364047676299651
1.33630289532294,-0.36218542098724493
1.3697104677060135,-0.284290503200497
1.403118040089087,-0.22861452984549763
1.4365256124721606,-0.20721423008794912
1.469933184855234,-0.21459274703232456
1.5033407572383075,-0.23151022014787973
1.536748329621381,-0.23362000497832094
1.5701559020044544,-0.20052704150162248
1.603563474387528,-0.12155195136631455
1.6369710467706016,0.0031580051770196617
1.670378619153675,0.16497472962181745
1.7037861915367485,0.350008656071923
1.737193763919822,0.5409860482582937
1.7706013363028954,0.7172924953056431
1.804008908685969,0.8546549966211823
1.8374164810690425,0.9268751248313037
1.8708240534521159,0.9111898298522829
1.9042316258351895,0.7964762308102932
1.937639198218263,0.5909175288524389
1.9710467706013366,0.3246271779873213
2.00445434298441,0.04419884756783849
2.0378619153674835,-0.2001633427114505
2.071269487750557,-0.3702641258832901
2.1046770601336307,-0.4516403679439441
2.138084632516704,-0.4561507745688788
2.1714922048997773,-0.41437439154779765
2.204899777282851,-0.3614877224162206
2.2383073496659245,-0.32308852974028857
2.271714922048998,-0.30699482882647017
2.3051224944320716,-0.30383054809975696
2.338530066815145,-0.2950073186926227
2.3719376391982183,-0.2635936959012695
2.405345211581292,-0.20284241075158088
2.4387527839643655,-0.11886293326342515
2.472160356347439,-0.02700200119087601
2.5055679287305126,0.05561587691387132
2.538975501113586,0.11748325217211812
2.5723830734966593,0.15658370324051832
2.605790645879733,0.17924663407669378
2.6391982182628064,0.1949705699894951
2.67260579064588,0.21007932779494823
2.7060133630289536,0.22351208467018388
2.739420935412027,0.22687979204147027
2.7728285077951007,0.20873914876119806
2.806236080178174,0.1609207830007387
2.8396436525612474,0.08373416895963633
2.873051224944321,-0.012570729853158578
2.9064587973273945,-0.11089170088659112
2.939866369710468,-0.19356852702747598
2.9732739420935417,-0.24908557013551383
3.006681514476615,-0.2762539440673439
3.0400890868596884,-0.28408985346488114
3.073496659242762,-0.287428734689734
3.1069042316258355,-0.3000362580973832
3.140311804008909,-0.3279862129445622
3.1737193763919826,-0.36607339124826294
3.207126948775056,-0.39900278094933644
3.2405345211581293,-0.40727582502588355
3.273942093541203,-0.37559565477814943
3.3073496659242765,-0.3000553143653724
3.34075723830735,-0.19027779742333664
3.3741648106904236,-0.06457405983609685
3.407572383073497,0.06034366965934005
3.4409799554565703,0.1800461549626527
3.474387527839644,0.3069641563461197
3.5077951002227175,0.4644174143187179
3.541202672605791,0.6709295483195069
3.5746102449888646,0.9217420167412674
3.608017817371938,1.1778204151375786
3.6414253897550113,1.370697518571361
3.674832962138085,1.4243089326474296
3.7082405345211584,1.2858290621448625
3.7416481069042318,0.9514152129382105
3.7750556792873056,0.4736628345070795
3.808463251670379,-0.054214494672753105
3.8418708240534527,-0.5309250443829484
3.875278396436526,-0.8812634437138811
3.9086859688195994,-1.0762388641198342
3.942093541202673,-1.1313467848750944
3.9755011135857465,-1.086876071085663
4.00890868596882,-0.9829858111376893
4.042316258351893,-0.8434340110960473
4.075723830734967,-0.6751581579987211
4.109131403118041,-0.4807657238361811
4.142538975501114,-0.27346598703365
4.1759465478841875,-0.08325116771445333
4.209354120267261,0.050779668523571665
4.242761692650334,0.09811539487571473
4.276169265033408,0.05430384654639124
4.309576837416482,-0.052275424617760365
4.342984409799555,-0.16901073666884642
4.3763919821826285,-0.23943559740809373
4.409799554565702,-0.2257314852400843
4.443207126948775,-0.12292724639743746
4.476614699331849,0.04117283355370952
4.510022271714923,0.21934618827164631
4.543429844097996,0.3647975776833331
4.5768374164810695,0.44858507873118536
4.610244988864143,0.467736301481013
4.643652561247216,0.44183507443985487
4.67706013363029,0.40084872103298896
4.710467706013364,0.37022908790273534
4.743875278396437,0.35981301100392143
4.77728285077951,0.36089986833277055
4.810690423162584,0.35216250720118036
4.844097995545657,0.3112959122278794
4.877505567928731,0.2269958825903817
4.910913140311805,0.10587322378968883
4.944320712694878,-0.02878784906642056
4.977728285077951,-0.14589980758688034
5.011135857461025,-0.21916162675819673
5.044543429844098,-0.23780307751717034
5.077951002227172,-0.21074489822034853
5.111358574610246,-0.16239742588935452
5.144766146993319,-0.12207744401467709
5.178173719376392,-0.11184025664903571
5.211581291759466,-0.13808423847609438
5.244988864142539,-0.19034520324375548
5.278396436525613,-0.24723932522227637
5.311804008908687,-0.28626608010852306
5.34521158129176,-0.29273054222428896
5.378619153674833,-0.2639897478915815
5.412026726057907,-0.20790062326094746
5.445434298440981,-0.13722884806230362
5.478841870824054,-0.06338083367068571
5.512249443207128,0.007501193050693574
5.545657015590201,0.07481112674078823
5.579064587973274,0.14086315651724557
5.612472160356348,0.20727305399485876
5.645879732739422,0.2721248826003811
5.679287305122495,0.32885845496694105
5.712694877505569,0.3669912109508171
5.746102449888642,0.3744217112304284
5.779510022271715,0.34096810685061174
5.812917594654789,0.2625281354719602
5.846325167037863,0.14465896349078006
5.879732739420936,0.003865285251185607
5.91314031180401,-0.13488426752417382
5.946547884187083,-0.2445856234518137
5.979955456570156,-0.304781646189142
6.01336302895323,-0.3089378591377449
6.046770601336304,-0.26713914607042905
6.080178173719377,-0.2023377938887629
6.1135857461024505,-0.14123450401418275
6.146993318485524,-0.10348646790455036
6.180400890868597,-0.09394512583671016
6.213808463251671,-0.10143831762463727
6.247216035634745,-0.10473856804454466
6.280623608017818,-0.08315099940878834
6.3140311804008915,-0.027101379094808208
6.347438752783965,0.05589620649708816
6.380846325167038,0.1425446955626027
6.414253897550112,0.20199384791446776
6.447661469933186,0.20788415766737894
6.481069042316259,0.1495991712544829
6.5144766146993325,0.038329703158328156
6.547884187082406,-0.09468897633812871
6.581291759465479,-0.20766719157159264
6.614699331848553,-0.2624753599053176
6.648106904231627,-0.23847985498391472
6.6815144766147,-0.1405282186082351
6.7149220489977735,0.0025268158340633383
6.748329621380847,0.14866519038351333
6.78173719376392,0.2586554837532053
6.815144766146994,0.3102962036979743
6.848552338530068,0.30463707212326313
6.881959910913141,0.2616112472084047
6.915367483296214,0.2077371598295074
6.948775055679288,0.16251031352188658
6.982182628062361,0.13055888970429286
7.015590200445435,0.10324654134589852
7.048997772828509,0.06803681046788364
7.082405345211582,0.01961150014694261
7.115812917594655,-0.03410666212373192
7.149220489977729,-0.07479669209839099
7.182628062360802,-0.08399654874863721
7.216035634743876,-0.05493587376538006
7.24944320712695,0.0009690895006435649
7.282850779510023,0.057029501297717916
7.316258351893096,0.08252397098905585
7.34966592427617,0.056611446154301304
7.383073496659243,-0.022186637605017746
7.416481069042317,-0.13562100414256295
7.449888641425391,-0.2542843697559518
7.4832962138084635,-0.35033460488792334
7.516703786191537,-0.4077184005395821
7.550111358574611,-0.4249864438325458
7.583518930957685,-0.410081840405252
7.616926503340758,-0.37096489401364385
7.650334075723832,-0.3082121822530743
7.683741648106905,-0.2145483217939799
7.717149220489978,-0.08217387861281879
7.750556792873052,0.08611574476777942
7.783964365256126,0.26893927273063606
7.817371937639199,0.4274951116792286
7.850779510022273,0.5173946096760237
7.884187082405346,0.5067939085069941
7.917594654788419,0.39239496104476623
7.951002227171493,0.20499308250083723
7.984409799554567,0.000722442290901607
8.01781737193764,-0.15911043811225428
8.051224944320714,-0.2310709232490876
8.084632516703786,-0.20534067429335848
8.118040089086861,-0.10726442902975748
8.151447661469934,0.015599876869247964
8.184855233853007,0.11461865777546741
8.218262806236082,0.15971672294805947
8.251670378619155,0.14911977697300274
8.285077951002227,0.10586019757384375
8.318485523385302,0.06383580529967608
8.351893095768375,0.050561524356983946
8.385300668151448,0.07456828965069819
8.418708240534523,0.12267194765054391
8.452115812917596,0.16755874194138334
8.485523385300668,0.18153070627726176
8.518930957683743,0.14978990916180351
8.552338530066816,0.07724812367561404
8.585746102449889,-0.013904119452499102
8.619153674832964,-0.09431503355411452
8.652561247216036,-0.14032408426610254
8.68596881959911,-0.14364319891071314
8.719376391982184,-0.11378297021015338
8.752783964365257,-0.0727313836035798
8.78619153674833,-0.044924093118823956
8.819599109131405,-0.04732767953224071
8.853006681514477,-0.08380148979342299
8.88641425389755,-0.14539965077327643
8.919821826280625,-0.21537121000416734
8.953229398663698,-0.27579052465392456
8.98663697104677,-0.31274533698268
9.020044543429846,-0.3185230124110088
9.053452115812918,-0.2911815377078797
9.086859688195991,-0.2330862370419119
9.120267260579066,-0.14986230067680975
9.153674832962139,-0.05010778990093724
9.187082405345212,0.05489403758145437
9.220489977728286,0.15245629836662758
9.25389755011136,0.23097396053660735
9.287305122494432,0.28268840390285116
9.320712694877507,0.30525454399479934
9.35412026726058,0.30115241304004625
9.387527839643653,0.2752565897238857
9.420935412026727,0.2320302941373175
9.4543429844098,0.17405579513239525
9.487750556792873,0.10277998969930685
9.521158129175948,0.020977064756096953
9.55456570155902,-0.06464447996057365
9.587973273942094,-0.14242820593943378
9.621380846325168,-0.1973126986233517
9.654788418708241,-0.21466585407137317
9.688195991091314,-0.1851049479665108
9.721603563474389,-0.10856548862153348
9.755011135857462,0.0038946002700041005
9.788418708240535,0.13140200006562447
9.82182628062361,0.2476649447167444
9.855233853006682,0.3275238655992694
9.888641425389755,0.3538948011599586
9.92204899777283,0.3228676380247447
9.955456570155903,0.2449512760616985
9.988864142538976,0.14160493724260204
10.02227171492205,0.03801101055884254
10.055679287305123,-0.04524229528844932
10.089086859688196,-0.09824481581052963
10.12249443207127,-0.12322458882479066
10.155902004454344,-0.13116839788274087
10.189309576837417,-0.13565988569050547
10.222717149220491,-0.14709197209273897
10.256124721603564,-0.16975310441388816
10.289532293986637,-0.20236391708598983
10.322939866369712,-0.2406826602187039
10.356347438752785,-0.27996413593690683
10.389755011135858,-0.31571833406000405
10.423162583518932,-0.34278586887715135
10.456570155902005,-0.35412952418253746
10.489977728285078,-0.3410433196242617
10.523385300668153,-0.29554522288748747
10.556792873051226,-0.21416743266675892
10.590200445434299,-0.10117777164883908
10.623608017817373,0.03077742290957232
10.657015590200446,0.16342999054127644
10.69042316258352,0.2780947620403691
10.723830734966594,0.3610441371323877
10.757238307349667,0.4066852388636473
10.790645879732741,0.41736715559895704
10.824053452115814,0.4003865751579674
10.857461024498887,0.3640240339381666
10.890868596881962,0.3145936542028092
10.924276169265035,0.2556223202173246
10.957683741648108,0.18902732158804417
10.991091314031182,0.11722120674535913
11.024498886414255,0.044789815503047566
11.057906458797328,-0.021276471919144873
11.091314031180403,-0.07311517027963045
11.124721603563476,-0.1047984085379823
11.158129175946549,-0.11524895193689154
11.191536748329623,-0.10979890409329915
11.224944320712696,-0.09922828830919357
11.25835189309577,-0.09609255759032778
11.291759465478844,-0.10949661413268526
11.325167037861917,-0.14055305276540217
11.35857461024499,-0.1808731450737609
11.391982182628064,-0.21528536639881163
11.425389755011137,-0.22797406072179416
11.45879732739421,-0.2093870284348375
11.492204899777285,-0.16063195138456998
11.525612472160358,-0.09312651260402569
11.55902004454343,-0.023523166712720697
11.592427616926505,0.033751124856335295
11.625835189309578,0.07280094908197317
11.659242761692651,0.0983780286736477
11.692650334075726,0.12270249214181672
11.726057906458799,0.15832991311042507
11.759465478841872,0.21026708944425734
11.792873051224946,0.2710227086129298
11.82628062360802,0.32116963287934075
11.859688195991092,0.3357206821298623
11.893095768374167,0.2940813033237803
11.92650334075724,0.18959418127305483
11.959910913140313,0.034541344005231726
11.993318485523387,-0.1418816476230592
12.02672605790646,-0.30224553352237826
12.060133630289533,-0.41299386172061353
12.093541202672608,-0.45522188502600125
12.12694877505568,-0.42992783762090736
12.160356347438753,-0.3559263058967744
12.193763919821828,-0.2616904952731727
12.227171492204901,-0.1747097132949483
12.260579064587974,-0.11252997490948406
12.293986636971049,-0.0784446773876574
12.327394209354122,-0.0626317529202954
12.360801781737194,-0.047515517691019214
12.39420935412027,-0.015044743482921528
12.427616926503342,0.04647375442508893
12.461024498886415,0.13777578799820472
12.49443207126949,0.24734040015992667
12.527839643652563,0.35375979143105113
12.561247216035635,0.4313854933793232
12.59465478841871,0.4579492552371599
12.628062360801783,0.42199512648295123
12.661469933184856,0.3275931843658545
12.69487750556793,0.19435465934251883
12.728285077951004,0.05227167091798632
12.761692650334076,-0.06713889285938313
12.795100222717151,-0.14036274324442582
12.828507795100224,-0.15870116252358732
12.861915367483297,-0.13002609465660034
12.895322939866372,-0.07509576757786504
12.928730512249444,-0.0200280163210998
12.962138084632517,0.012287579490952445
12.995545657015592,0.009006932442297081
13.028953229398665,-0.02955442674752439
13.062360801781738,-0.0910809260154663
13.095768374164813,-0.1559485033844973
13.129175946547885,-0.20379318561215004
13.162583518930958,-0.21992730080063927
13.195991091314033,-0.19972939754314853
13.229398663697106,-0.14974682377782245
13.262806236080179,-0.08520586305351964
13.296213808463254,-0.02472322975205746
13.329621380846326,0.016050891495582673
13.3630289532294,0.029689617271762298
13.396436525612474,0.01926301071129342
13.429844097995547,-0.0032495132237207905
13.46325167037862,-0.021852654399876017
13.496659242761694,-0.022847997810793476
13.530066815144767,-4.520343184359997e-05
13.56347438752784,0.0432145852544226
13.596881959910915,0.09591283405622279
13.630289532293988,0.1440370252454232
13.66369710467706,0.17582296269016157
13.697104677060135,0.18521059622119015
13.730512249443208,0.17227169577211582
13.763919821826281,0.1410352545448537
13.797327394209356,0.09643974129702218
13.830734966592429,0.0423702157140598
13.864142538975502,-0.018184561028346476
13.897550111358576,-0.08130086324380577
13.93095768374165,-0.14019970568370296
13.964365256124722,-0.1849536309902766
13.997772828507797,-0.20460727138653192
14.03118040089087,-0.19107344236304777
14.064587973273943,-0.14306915570459422
14.097995545657017,-0.06817757153884567
14.13140311804009,0.018096153286987198
14.164810690423163,0.09613379771847294
14.198218262806238,0.14761202574128296
14.23162583518931,0.1607081175808239
14.265033407572384,0.13344157099527582
14.298440979955458,0.07413168620975817
14.331848552338531,-0.0011532911605821605
14.365256124721604,-0.07336048350688129
14.398663697104679,-0.1259138115394601
14.432071269487752,-0.1490715061532272
14.465478841870825,-0.14172054438893683
14.4988864142539,-0.11010725156650031
14.532293986636972,-0.06425537727127398
14.565701559020045,-0.013804112588050031
14.59910913140312,0.03482070829320365
14.632516703786193,0.07877350397439468
14.665924276169266,0.11695645902292798
14.69933184855234,0.14750566571427667
14.732739420935413,0.16649560336492425
14.766146993318486,0.16897666022694588
14.79955456570156,0.15190081105968015
14.832962138084634,0.11708368063975452
14.866369710467707,0.07203541441114225
14.899777282850781,0.027599231586972223
14.933184855233854,-0.006710553278101832
14.966592427616927,-0.02718238835239091
15.0,-0.0375478441674862
