Time (s),Filtered Signal
0.0,0.08553460070690885
0.03337004405286344,0.17985880159403264
0.06674008810572687,0.2792308566915553
0.10011013215859031,0.384833233031931
0.13348017621145375,0.48988881888629526
0.16685022026431717,0.5798945049907278
0.20022026431718062,0.6364691402564532
0.23359030837004408,0.6438656573782318
0.2669603524229075,0.595900295173244
0.3003303964757709,0.5003492791125098
0.33370044052863435,0.3783220605667524
0.3670704845814978,0.25793644966228657
0.40044052863436125,0.16427504686256575
0.43381057268722467,0.1098324496636917
0.46718061674008815,0.09001700086168582
0.5005506607929515,0.08610387986453359
0.533920704845815,0.07425356924622233
0.5672907488986785,0.035976335542891445
0.6006607929515418,-0.0352003715377535
0.6340308370044053,-0.1336440005736533
0.6674008810572687,-0.24687912005530163
0.7007709251101322,-0.3619651797938709
0.7341409691629956,-0.4686673036366288
0.767511013215859,-0.557962243670763
0.8008810572687225,-0.6183452815135393
0.834251101321586,-0.6346839313360092
0.8676211453744493,-0.593156977641488
0.9009911894273128,-0.49143981251143487
0.9343612334801763,-0.3483522098463552
0.9677312775330397,-0.20520368744659356
1.001101321585903,-0.11422026567239364
1.0344713656387665,-0.11667997135708134
1.06784140969163,-0.2206043049241948
1.1012114537444935,-0.3902514716539801
1.134581497797357,-0.5549958556645274
1.1679515418502202,-0.6355255691287744
1.2013215859030837,-0.5759472928813375
1.2346916299559472,-0.36671485449785013
1.2680616740088106,-0.04754240110813919
1.3014317180616741,0.3105285632881704
1.3348017621145374,0.6343374082001125
1.3681718061674009,0.8743750941067897
1.4015418502202643,1.0152886369804575
1.4349118942731278,1.068409954622638
1.4682819383259913,1.0535681633408713
1.5016519823788548,0.9825083131954132
1.535022026431718,0.8537977148701819
1.5683920704845815,0.6611696780421699
1.601762114537445,0.40892999292944027
1.6351321585903085,0.1241442414491032
1.668502202643172,-0.14248836909091298
1.7018722466960352,-0.328887423485849
1.7352422907488987,-0.3822790013305222
1.7686123348017622,-0.2800317660777636
1.8019823788546256,-0.042541023589863856
1.8353524229074891,0.2669876545020287
1.8687224669603526,0.5568026163787206
1.9020925110132159,0.7315036704948163
1.9354625550660793,0.7204585086295475
1.9688325991189428,0.5006823764565729
2.002202643171806,0.10614650038145947
2.0355726872246698,-0.38024942755093566
2.068942731277533,-0.8497402324806739
2.1023127753303967,-1.1983088183135926
2.13568281938326,-1.3552687915184878
2.1690528634361232,-1.3015838206364982
2.202422907488987,-1.0731841127008708
2.23579295154185,-0.7486176290755945
2.269162995594714,-0.42430292354810034
2.302533039647577,-0.18426510399912685
2.3359030837004404,-0.07386389835449729
2.369273127753304,-0.08706687873736663
2.4026431718061674,-0.17282981420361446
2.436013215859031,-0.2586060452863373
2.4693832599118943,-0.28109892254949037
2.5027533039647576,-0.21056499314560498
2.5361233480176213,-0.05810737117266968
2.5694933920704845,0.13569276394938184
2.6028634361233483,0.3227685265387066
2.6362334801762115,0.46749461390460684
2.6696035242290748,0.5549345813950769
2.7029735682819385,0.5861898987783604
2.7363436123348017,0.5675798809677893
2.7697136563876654,0.5028739054108033
2.8030837004405287,0.39392818174516264
2.8364537444933924,0.248176587848403
2.8698237885462556,0.08631400514354476
2.903193832599119,-0.056752742007555874
2.9365638766519826,-0.1403345781189053
2.969933920704846,-0.1325826631914852
3.0033039647577096,-0.02427342559476684
3.036674008810573,0.16508323463536562
3.070044052863436,0.3918571394342767
3.1034140969162998,0.6016312909708267
3.136784140969163,0.7456605523071355
3.1701541850220267,0.7942197105055661
3.20352422907489,0.742649281348553
3.2368942731277532,0.6091820046646096
3.270264317180617,0.4265574045029539
3.30363436123348,0.23103177294140134
3.337004405286344,0.05245247320154342
3.370374449339207,-0.09203847003898254
3.4037444933920704,-0.19968420031466394
3.437114537444934,-0.2795722521742438
3.4704845814977974,-0.34715370119817857
3.503854625550661,-0.41761849324342953
3.5372246696035243,-0.5002795684240207
3.5705947136563876,-0.5961238416628385
3.6039647577092513,-0.6997416744770732
3.6373348017621145,-0.804658847926546
3.6707048458149782,-0.9085442777834981
3.7040748898678415,-1.0137981879877944
3.737444933920705,-1.1211949138230064
3.7708149779735685,-1.2190067655654702
3.8041850220264317,-1.2744924536280986
3.8375550660792954,-1.2354607832802882
3.8709251101321587,-1.0455242853024627
3.9042951541850224,-0.6694343248488331
3.9376651982378856,-0.1183195354394686
3.971035242290749,0.5376948673426993
4.004405286343612,1.1785340000937101
4.037775330396476,1.6656462078437604
4.0711453744493395,1.886744206009027
4.104515418502203,1.7973159942313233
4.137885462555066,1.441307797400261
4.171255506607929,0.9400232842896874
4.2046255506607935,0.450855396500732
4.237995594713657,0.11090734713213012
4.27136563876652,-0.01158446323502277
4.304735682819383,0.06260091616111493
4.3381057268722465,0.24041104565354274
4.371475770925111,0.4020926914766233
4.404845814977974,0.4547028866270354
4.438215859030837,0.36976521940100504
4.4715859030837,0.18944169749705078
4.504955947136564,0.00047558657228488415
4.538325991189428,-0.11050014127050332
4.571696035242291,-0.09930028423989781
4.605066079295154,0.0146014680891697
4.638436123348018,0.15666058433454283
4.671806167400881,0.23108935345646936
4.705176211453745,0.16453649633889278
4.738546255506608,-0.05988928905852257
4.7719162995594715,-0.39347282075396967
4.805286343612335,-0.7417277867348525
4.838656387665198,-1.004004957483662
4.872026431718062,-1.114320581439007
4.905396475770925,-1.0644056524381855
4.938766519823789,-0.8991712567938843
4.972136563876652,-0.6890438447387478
5.005506607929515,-0.4951516785678112
5.038876651982379,-0.34570185194430975
5.072246696035243,-0.2340552024938397
5.105616740088106,-0.1359878636076893
5.138986784140969,-0.033199071139883324
5.172356828193832,0.07194787935896033
5.2057268722466965,0.1586383612236653
5.23909691629956,0.20382965376051004
5.272466960352423,0.2008573602414851
5.305837004405286,0.16752995139883528
5.3392070484581495,0.1374828951838866
5.372577092511014,0.13912378170721673
5.405947136563877,0.1747124906674166
5.43931718061674,0.2130641791845585
5.4726872246696034,0.20225961426521608
5.506057268722468,0.09751247729807702
5.539427312775331,-0.10960893258851691
5.572797356828194,-0.3759641005038142
5.606167400881057,-0.6143972875231847
5.639537444933921,-0.7219965210935054
5.672907488986785,-0.6177343817300085
5.706277533039648,-0.2747193839903515
5.739647577092511,0.2648082468490444
5.7730176211453745,0.8967785705355292
5.806387665198238,1.482440063094374
5.839757709251102,1.887010096092469
5.873127753303965,2.0181654690534305
5.9064977973568284,1.8523803400275562
5.939867841409692,1.4402117397537837
5.973237885462555,0.8881745006940368
6.006607929515419,0.32337180838105184
6.039977973568282,-0.14581442200009676
6.073348017621146,-0.45784956654949316
6.106718061674009,-0.6051967772266357
6.140088105726872,-0.6209486204768877
6.173458149779736,-0.55498810965346
6.2068281938325995,-0.45314897252288566
6.240198237885463,-0.3483563847554806
6.273568281938326,-0.2636049646843555
6.306938325991189,-0.21898593958313842
6.3403083700440535,-0.2336799790898077
6.373678414096917,-0.3192975852794851
6.40704845814978,-0.4689743455654869
6.440418502202643,-0.6514001883322936
6.4737885462555065,-0.8170679957625601
6.507158590308371,-0.9166616528620941
6.540528634361234,-0.9234622901972059
6.573898678414097,-0.8480433572919839
6.60726872246696,-0.736556990850985
6.640638766519824,-0.651788567522717
6.674008810572688,-0.644525369905242
6.707378854625551,-0.7274901732350952
6.740748898678414,-0.863288428684054
6.774118942731278,-0.972373173218696
6.807488986784141,-0.9594395746883935
6.840859030837005,-0.7496334951468399
6.874229074889868,-0.321633969688474
6.9075991189427315,0.27550092435159124
6.940969162995595,0.9301985826507176
6.974339207048458,1.5007065229965992
7.007709251101322,1.861576432471008
7.041079295154185,1.9468019555482405
7.074449339207049,1.771820468845117
7.107819383259912,1.4244399179090808
7.141189427312775,1.0279519391134218
7.174559471365639,0.6922385346063663
7.207929515418503,0.47424632220565277
7.241299559471366,0.3646189452603693
7.274669603524229,0.3045790438678258
7.308039647577092,0.2227723537810311
7.3414096916299565,0.07312158233986965
7.37477973568282,-0.1439977122848067
7.408149779735683,-0.3850335903168209
7.441519823788546,-0.5860618648231981
7.47488986784141,-0.6916174493896102
7.508259911894274,-0.6755963389225627
7.541629955947137,-0.5469934864303275
7.575,-0.34224602090911016
7.608370044052863,-0.11165063523467895
7.641740088105728,0.09304842829856148
7.675110132158591,0.2276101824167664
7.708480176211454,0.26308415074964125
7.741850220264317,0.1949663028142281
7.775220264317181,0.05178067407356058
7.808590308370045,-0.10406472685549265
7.841960352422908,-0.1907866989251224
7.875330396475771,-0.13797530478545866
7.9087004405286345,0.07654112123161201
7.942070484581498,0.4019218913282782
7.975440528634362,0.7184610976739692
8.008810572687224,0.8754578847778061
8.042180616740088,0.7505184752187678
8.075550660792953,0.3052087863731767
8.108920704845815,-0.3889125660909457
8.142290748898679,-1.1676163964135469
8.175660792951541,-1.8289862537772386
8.209030837004406,-2.203440320561499
8.24240088105727,-2.209925414067581
8.275770925110132,-1.8764452947270929
8.309140969162996,-1.319441857812579
8.342511013215859,-0.6940961314350599
8.375881057268723,-0.13827748265936007
8.409251101321587,0.2674512208691213
8.44262114537445,0.5112009970240687
8.475991189427313,0.6336292389157685
8.509361233480176,0.6964157054876522
8.54273127753304,0.7512897336059373
8.576101321585904,0.8218296467318981
8.609471365638766,0.9020585418280581
8.64284140969163,0.967830481793223
8.676211453744493,0.9927473655743976
8.709581497797357,0.9608318193241974
8.742951541850221,0.8718514537776801
8.776321585903084,0.7394298259704801
8.809691629955948,0.5848085027880111
8.84306167400881,0.429637810871587
8.876431718061674,0.2900923016676108
8.909801762114538,0.17321699109865984
8.9431718061674,0.07575288736151958
8.976541850220265,-0.014138173801527662
9.009911894273127,-0.1116844805559383
9.043281938325991,-0.22719268941931248
9.076651982378856,-0.3570464849287056
9.110022026431718,-0.47848611130191565
9.143392070484582,-0.5526710078321594
9.176762114537445,-0.5374262765873944
9.210132158590309,-0.4058345576945929
9.243502202643173,-0.16244614503761606
9.276872246696035,0.15149031541413777
9.3102422907489,0.46775010552791124
9.343612334801762,0.7124702994288826
9.376982378854626,0.8300523917261403
9.41035242290749,0.7997633403087786
9.443722466960352,0.6392575107925487
9.477092511013216,0.395236596502409
9.510462555066079,0.12593196954839084
9.543832599118943,-0.11837505860699879
9.577202643171807,-0.31113070639464596
9.61057268722467,-0.45716001037399534
9.643942731277534,-0.5893518608467131
9.677312775330396,-0.7540581378454758
9.71068281938326,-0.9885650240283547
9.744052863436124,-1.2978001807073307
9.777422907488987,-1.6395240932324522
9.81079295154185,-1.926103447264576
9.844162995594713,-2.046220423178192
9.877533039647577,-1.9024966154646432
9.910903083700441,-1.4532068780360472
9.944273127753304,-0.7412923891854568
9.977643171806168,0.10478936752811163
10.01101321585903,0.9045713091682821
10.044383259911895,1.4847780155891492
10.077753303964759,1.741743387525731
10.111123348017621,1.6797265199682876
10.144493392070485,1.4062475165921748
10.177863436123348,1.0844660423751715
10.211233480176212,0.8628840159847302
10.244603524229076,0.8138154698592394
10.277973568281938,0.9081812841052708
10.311343612334802,1.037024961712248
10.344713656387665,1.0681832490435343
10.378083700440529,0.9105661819039245
10.411453744493393,0.5561777380618316
10.444823788546255,0.0820859250709061
10.47819383259912,-0.38548894984981497
10.511563876651982,-0.7252895866111594
10.544933920704846,-0.8671968946969909
10.57830396475771,-0.8111906107118231
10.611674008810573,-0.6151475994864214
10.645044052863437,-0.36253357881820847
10.678414096916299,-0.12822655796068486
10.711784140969163,0.042278030776811096
10.745154185022027,0.1349159122633811
10.77852422907489,0.15552599214998905
10.811894273127754,0.11561921728280394
10.845264317180618,0.025101773410687454
10.87863436123348,-0.10479552120423305
10.912004405286345,-0.2526338913534624
10.945374449339207,-0.38060403381865143
10.978744493392071,-0.4388083738991931
11.012114537444935,-0.38191200939996056
11.045484581497798,-0.19239904090908835
11.078854625550662,0.10090251612136085
11.112224669603524,0.4206002181457565
11.145594713656388,0.6604094118702093
11.178964757709252,0.7222659035500707
11.212334801762115,0.5569086907789823
11.245704845814979,0.1899475946800124
11.279074889867841,-0.28027327804006297
11.312444933920705,-0.7152062528253501
11.34581497797357,-0.9873824991002303
11.379185022026432,-1.0291898762498768
11.412555066079296,-0.857641497596446
11.445925110132158,-0.5637422125633336
11.479295154185023,-0.2713118394412434
11.512665198237887,-0.08458956141124478
11.546035242290749,-0.048895768861436324
11.579405286343613,-0.14107611298644746
11.612775330396476,-0.2904795245064841
11.64614537444934,-0.4160126593990882
11.679515418502204,-0.45904931447105546
11.712885462555066,-0.3981801857687822
11.74625550660793,-0.2447555127227029
11.779625550660793,-0.028802641252696472
11.812995594713657,0.21327291106608567
11.846365638766521,0.4442716584863308
11.879735682819383,0.6284580674245285
11.913105726872248,0.7369624911209114
11.94647577092511,0.7584169897051463
11.979845814977974,0.709192788103106
12.013215859030838,0.6335621510546263
12.0465859030837,0.5880633019388835
12.079955947136565,0.6144616136150105
12.113325991189427,0.7151055085073927
12.146696035242291,0.8460705149451603
12.180066079295155,0.9349825298079008
12.213436123348018,0.9162544942635361
12.246806167400882,0.7653140368509543
12.280176211453744,0.5126286095815473
12.313546255506608,0.2290910287854881
12.346916299559473,-0.00955327208229052
12.380286343612335,-0.15975791103074916
12.413656387665199,-0.22876228667884685
12.447026431718061,-0.265616809612869
12.480396475770926,-0.33096853343093896
12.51376651982379,-0.46295030766640677
12.547136563876652,-0.657377157490508
12.580506607929516,-0.8715355734331037
12.613876651982379,-1.0477651259364988
12.647246696035243,-1.1429927289105175
12.680616740088107,-1.148293560493488
12.71398678414097,-1.0888361263675013
12.747356828193833,-1.0054399495344475
12.780726872246696,-0.9286707339013387
12.81409691629956,-0.8600697394873542
12.847466960352424,-0.7710690191843843
12.880837004405286,-0.6205557746841978
12.91420704845815,-0.38188318238278207
12.947577092511013,-0.06470486428412583
12.980947136563877,0.28072811469450604
13.014317180616741,0.5803247357524667
13.047687224669604,0.7666918138122779
13.081057268722468,0.8090834736021865
13.11442731277533,0.7285409820333781
13.147797356828194,0.5910285002844125
13.181167400881058,0.4814916907132888
13.21453744493392,0.47002968908050846
13.247907488986785,0.584200887450285
13.281277533039647,0.7981655986632354
13.314647577092511,1.0419749745103795
13.348017621145376,1.2263838034876684
13.381387665198238,1.2733356106232736
13.414757709251102,1.1413464259714887
13.448127753303964,0.8380133750871404
13.481497797356829,0.417006470232579
13.514867841409693,-0.038020362356561956
13.548237885462555,-0.4368285255095964
13.58160792951542,-0.7066025599288374
13.614977973568282,-0.8108856497170527
13.648348017621146,-0.7595913902547614
13.68171806167401,-0.6078618317439387
13.715088105726872,-0.4428282816470801
13.748458149779736,-0.35911679680682396
13.781828193832599,-0.4271522107227365
13.815198237885463,-0.6626918806795512
13.848568281938327,-1.0094482304237025
13.88193832599119,-1.3459366248330973
13.915308370044054,-1.5206573127967917
13.948678414096916,-1.4075901158522373
13.98204845814978,-0.9619814028115251
14.015418502202644,-0.25161678350813727
14.048788546255507,0.5541888679564597
14.08215859030837,1.2383517875818095
14.115528634361233,1.613284140325496
14.148898678414097,1.590341360634495
14.182268722466961,1.2122070264846472
14.215638766519824,0.6345275654674636
14.249008810572688,0.06479959056006257
14.28237885462555,-0.31570295214151417
14.315748898678414,-0.41506386275216456
14.349118942731279,-0.254694711060709
14.382488986784141,0.052646697722779474
14.415859030837005,0.35826600843787326
14.449229074889868,0.5408778720267132
14.482599118942732,0.5509176663881133
14.515969162995596,0.4189840151296842
14.549339207048458,0.22847825376057426
14.582709251101322,0.06846641783452682
14.616079295154185,-0.009391457394548703
14.649449339207049,-0.009737563162825312
14.682819383259913,0.0186288030130711
14.716189427312775,0.016765808666182814
14.74955947136564,-0.04838874515161054
14.782929515418502,-0.16579136268519865
14.816299559471366,-0.2891435612678079
14.84966960352423,-0.3669491920959268
14.883039647577093,-0.37628484837960186
14.916409691629957,-0.34072997797908333
14.94977973568282,-0.32127249504387795
14.983149779735683,-0.38336092242112557
15.016519823788547,-0.5563219689820985
15.04988986784141,-0.8065101845054513
15.083259911894274,-1.0399855242738092
15.116629955947138,-1.1366034860237648
15.15,-1.0017839822171988
15.183370044052865,-0.612652600717086
15.216740088105727,-0.036686981506496116
15.250110132158591,0.5869864149993745
15.283480176211455,1.0966306330969087
15.316850220264318,1.3666609757554413
15.350220264317182,1.3515839254849182
15.383590308370044,1.0977185661549937
15.416960352422908,0.7195977451911664
15.450330396475772,0.3525005533383767
15.483700440528635,0.10125908630381887
15.517070484581499,0.005522602598813863
15.550440528634361,0.03400042003465029
15.583810572687225,0.10829064449827941
15.61718061674009,0.14511411859047763
15.650550660792952,0.09827133267252358
15.683920704845816,-0.018556079895479402
15.717290748898678,-0.13915434237896046
15.750660792951543,-0.17977921405593142
15.784030837004407,-0.08578255661450067
15.817400881057269,0.13309734662938083
15.850770925110133,0.3977624842827798
15.884140969162996,0.5900406463952876
15.91751101321586,0.6054585693701884
15.950881057268724,0.4034127337169184
15.984251101321586,0.029656770938853633
16.01762114537445,-0.4009636945825882
16.050991189427315,-0.7539870277638602
16.084361233480177,-0.93346047065528
16.11773127753304,-0.9210566553664451
16.151101321585905,-0.7782414189726401
16.184471365638768,-0.6117424374662008
16.21784140969163,-0.5199098910425966
16.251211453744492,-0.5457716514397926
16.284581497797358,-0.6583320544776957
16.31795154185022,-0.769639001920708
16.351321585903083,-0.7783134830575659
16.38469162995595,-0.6184273307084702
16.41806167400881,-0.29103671605481585
16.451431718061674,0.1353037105898194
16.48480176211454,0.55370079763658
16.518171806167402,0.8627882487052252
16.551541850220264,1.004665367780713
16.584911894273127,0.9809070295534308
16.618281938325993,0.8424796203031264
16.651651982378855,0.6618158066123462
16.685022026431717,0.5020181460545018
16.718392070484583,0.39668750088133764
16.751762114537446,0.34638911874563627
16.785132158590308,0.32915305516238375
16.818502202643174,0.3170348702647894
16.851872246696036,0.2902994940975947
16.8852422907489,0.24404315878653232
16.91861233480176,0.1864637348585138
16.951982378854627,0.1313539441417308
16.98535242290749,0.08889582351141087
17.01872246696035,0.05878427647464911
17.052092511013218,0.028678006899113217
17.08546255506608,-0.020808272894706083
17.118832599118942,-0.10586359733859821
17.152202643171808,-0.22803795670161486
17.18557268722467,-0.3674080546108017
17.218942731277533,-0.4854707312553346
17.2523127753304,-0.5391067243574994
17.28568281938326,-0.5012068482097063
17.319052863436124,-0.37863105562892624
17.352422907488986,-0.2172890522329529
17.385792951541852,-0.08886272609366132
