Time (s),Filtered Signal
0.0,-0.013119589540148347
0.03337004405286344,0.006923972835367065
0.06674008810572687,-0.016161561868123064
0.10011013215859031,-0.10793952389001542
0.13348017621145375,-0.2657151192106217
0.16685022026431717,-0.4598070269596183
0.20022026431718062,-0.6456642618383138
0.23359030837004408,-0.7813834260086531
0.2669603524229075,-0.8430584571268823
0.3003303964757709,-0.8316645790833795
0.33370044052863435,-0.7691644893874783
0.3670704845814978,-0.686315335831059
0.40044052863436125,-0.608073114819925
0.43381057268722467,-0.5431397156886877
0.46718061674008815,-0.4820014205338716
0.5005506607929515,-0.4038809235980327
0.533920704845815,-0.28910007154682815
0.5672907488986785,-0.13107367380635318
0.6006607929515418,0.057545057449211685
0.6340308370044053,0.24734173786708227
0.6674008810572687,0.40213309377140327
0.7007709251101322,0.49207167236297644
0.7341409691629956,0.504254666858024
0.767511013215859,0.44663379571223744
0.8008810572687225,0.3442801079198592
0.834251101321586,0.2304547682600438
0.8676211453744493,0.1367123886894101
0.9009911894273128,0.08564629856340249
0.9343612334801763,0.08760083413375241
0.9677312775330397,0.14045786336697408
1.001101321585903,0.2309356405758914
1.0344713656387665,0.33682114409721375
1.06784140969163,0.4308650021805159
1.1012114537444935,0.487104031961757
1.134581497797357,0.48872040887700025
1.1679515418502202,0.43443111795221173
1.2013215859030837,0.33976107989934684
1.2346916299559472,0.23142056678789566
1.2680616740088106,0.1365677174996917
1.3014317180616741,0.07179477890533519
1.3348017621145374,0.037176011922379015
1.3681718061674009,0.018186289355440904
1.4015418502202643,-0.005804426963734303
1.4349118942731278,-0.051034365609988766
1.4682819383259913,-0.12207810818835227
1.5016519823788548,-0.21088951777885648
1.535022026431718,-0.3017188722568726
1.5683920704845815,-0.3785465256274209
1.601762114537445,-0.43085255594092203
1.6351321585903085,-0.45506528835284477
1.668502202643172,-0.45189840209910287
1.7018722466960352,-0.42231433686058306
1.7352422907488987,-0.36557476073920087
1.7686123348017622,-0.2813094028887662
1.8019823788546256,-0.17461471373651746
1.8353524229074891,-0.06062764399274152
1.8687224669603526,0.035533424279505
1.9020925110132159,0.08551765500909231
1.9354625550660793,0.06948258510955932
1.9688325991189428,-0.012343051766343406
2.002202643171806,-0.1345774167130242
2.0355726872246698,-0.25217307575079073
2.068942731277533,-0.3157163908276272
2.1023127753303967,-0.2906078723642417
2.13568281938326,-0.17152842934971843
2.1690528634361232,0.014780698562134792
2.202422907488987,0.21999282715974222
2.23579295154185,0.39305454950833507
2.269162995594714,0.49858579684927656
2.302533039647577,0.5266613974470243
2.3359030837004404,0.49067905799117156
2.369273127753304,0.41622401122098035
2.4026431718061674,0.3279095627024738
2.436013215859031,0.24105123370526657
2.4693832599118943,0.16119925783232222
2.5027533039647576,0.08957393619087395
2.5361233480176213,0.029318558337552286
2.5694933920704845,-0.012167768534506098
2.6028634361233483,-0.02633126666415065
2.6362334801762115,-0.009678489844708012
2.6696035242290748,0.03126212077591003
2.7029735682819385,0.07978704025776107
2.7363436123348017,0.11428880353577656
2.7697136563876654,0.1163914190521623
2.8030837004405287,0.0778098336141564
2.8364537444933924,0.002588071444100797
2.8698237885462556,-0.09603739332295655
2.903193832599119,-0.2020297533162152
2.9365638766519826,-0.3025274877979067
2.969933920704846,-0.3903168132398595
3.0033039647577096,-0.46202459659791867
3.036674008810573,-0.513891648761238
3.070044052863436,-0.5384011042636466
3.1034140969162998,-0.5244546505252963
3.136784140969163,-0.46161910753327456
3.1701541850220267,-0.3464745343032147
3.20352422907489,-0.18763482288111025
3.2368942731277532,-0.006325410947631622
3.270264317180617,0.1686436233723178
3.30363436123348,0.3099516017447439
3.337004405286344,0.40111349522443446
3.370374449339207,0.4417826103036011
3.4037444933920704,0.44631408753905183
3.437114537444934,0.4360364927754363
3.4704845814977974,0.4287634973312131
3.503854625550661,0.43044927518639736
3.5372246696035243,0.43281979487967165
3.5705947136563876,0.41789267452606577
3.6039647577092513,0.36703054588966405
3.6373348017621145,0.2701241668166188
3.6707048458149782,0.13059920167251227
3.7040748898678415,-0.03586355270634843
3.737444933920705,-0.2077316387378278
3.7708149779735685,-0.3652965075877189
3.8041850220264317,-0.49524120734593496
3.8375550660792954,-0.589883942203116
3.8709251101321587,-0.6426135721200542
3.9042951541850224,-0.6439511468088556
3.9376651982378856,-0.5825921162581844
3.971035242290749,-0.45237191564903584
4.004405286343612,-0.26141647217447395
4.037775330396476,-0.03705284927620048
4.0711453744493395,0.17844286219814792
4.104515418502203,0.3410767677821311
4.137885462555066,0.4215853706327522
4.171255506607929,0.4168731413959281
4.2046255506607935,0.350471263029159
4.237995594713657,0.26168192022862724
4.27136563876652,0.18877809969065004
4.304735682819383,0.15428127203143308
4.3381057268722465,0.15875318214592266
4.371475770925111,0.18490751453629417
4.404845814977974,0.20881400959512048
4.438215859030837,0.2120429356185435
4.4715859030837,0.18891754168463729
4.504955947136564,0.1460643785554793
4.538325991189428,0.09551139031828654
4.571696035242291,0.0457674339222062
4.605066079295154,-0.0037997485913742047
4.638436123348018,-0.0618312481680133
4.671806167400881,-0.13745393824222274
4.705176211453745,-0.23063589175137816
4.738546255506608,-0.3264823865949194
4.7719162995594715,-0.3979091384422971
4.805286343612335,-0.4166504047865715
4.838656387665198,-0.36759258573276293
4.872026431718062,-0.2588605223537255
4.905396475770925,-0.12160822462518811
4.938766519823789,0.0015106479994303216
4.972136563876652,0.07428173412850216
5.005506607929515,0.0826951470904447
5.038876651982379,0.04060364330712586
5.072246696035243,-0.01784168211721553
5.105616740088106,-0.05545471877772308
5.138986784140969,-0.05040308775222428
5.172356828193832,-0.006421811100111818
5.2057268722466965,0.05030679086904332
5.23909691629956,0.08583900709586186
5.272466960352423,0.0769395165245167
5.305837004405286,0.02372579830818798
5.3392070484581495,-0.04982303936709401
5.372577092511014,-0.10733245414803254
5.405947136563877,-0.11729953949154236
5.43931718061674,-0.06753803431099496
5.4726872246696034,0.029801655408431153
5.506057268722468,0.14423636819915642
5.539427312775331,0.24033904889695812
5.572797356828194,0.2918994220307757
5.606167400881057,0.29066693458571435
5.639537444933921,0.24672340235218582
5.672907488986785,0.18170942487074282
5.706277533039648,0.11908740362873847
5.739647577092511,0.07605193173874523
5.7730176211453745,0.059791323584632655
5.806387665198238,0.0680474036969129
5.839757709251102,0.09206209808829094
5.873127753303965,0.11987744064999702
5.9064977973568284,0.1390488395209482
5.939867841409692,0.13888261634743587
5.973237885462555,0.11246672094461653
6.006607929515419,0.05821987139651474
6.039977973568282,-0.019711808897091867
6.073348017621146,-0.11255628307735172
6.106718061674009,-0.20905244998590555
6.140088105726872,-0.2976101221917389
6.173458149779736,-0.36768730876030875
6.2068281938325995,-0.4103550554123607
6.240198237885463,-0.418713128680345
6.273568281938326,-0.38888561638941793
6.306938325991189,-0.32172099772775914
6.3403083700440535,-0.22445807405843946
6.373678414096917,-0.11105281718484437
6.40704845814978,-1.563487732544485e-05
6.440418502202643,0.09038710392436565
6.4737885462555065,0.14816997995359182
6.507158590308371,0.1722272042796312
6.540528634361234,0.17278353862159726
6.573898678414097,0.1666595789500475
6.60726872246696,0.1690454356338689
6.640638766519824,0.18570760744204243
6.674008810572688,0.20978488299744866
6.707378854625551,0.22518148665431384
6.740748898678414,0.2151011444210206
6.774118942731278,0.17137928651569445
6.807488986784141,0.09961635591704913
6.840859030837005,0.01718865528979718
6.874229074889868,-0.05498030023250463
6.9075991189427315,-0.10250984691972034
6.940969162995595,-0.12396677451933537
6.974339207048458,-0.1299992298357953
7.007709251101322,-0.13572617657203656
7.041079295154185,-0.15084934839620642
7.074449339207049,-0.17335996293163683
7.107819383259912,-0.19062676572014048
7.141189427312775,-0.1872352776932092
7.174559471365639,-0.15487172148057368
7.207929515418503,-0.09833606775785954
7.241299559471366,-0.034154189923532745
7.274669603524229,0.01732684423880989
7.308039647577092,0.041827164792406134
7.3414096916299565,0.03772531820824533
7.37477973568282,0.016362133546037053
7.408149779735683,-0.0033476078480241278
7.441519823788546,-0.0027775210242319192
7.47488986784141,0.029700670352208323
7.508259911894274,0.09533297929645665
7.541629955947137,0.18515059239856643
7.575,0.2826991229966538
7.608370044052863,0.36814364428546675
7.641740088105728,0.4228480616499257
7.675110132158591,0.43366368501567504
7.708480176211454,0.39603437558217974
7.741850220264317,0.3149989156292964
7.775220264317181,0.2036044350037639
7.808590308370045,0.0791158987731371
7.841960352422908,-0.041665715293844954
7.875330396475771,-0.14617751462218778
7.9087004405286345,-0.22749505947434023
7.942070484581498,-0.28307429590133204
7.975440528634362,-0.3120659776268598
8.008810572687224,-0.31335353757521056
8.042180616740088,-0.2860396825506767
8.075550660792953,-0.23242029670768458
8.108920704845815,-0.1615340004325049
8.142290748898679,-0.09043606728939413
8.175660792951541,-0.04112872076197709
8.209030837004406,-0.0332970894726284
8.24240088105727,-0.0755189537850028
8.275770925110132,-0.15905333324279203
8.309140969162996,-0.25776768615494683
8.342511013215859,-0.335344195692816
8.375881057268723,-0.3577130258642443
8.409251101321587,-0.30618779338913876
8.44262114537445,-0.18611739314588244
8.475991189427313,-0.027250868897423373
8.509361233480176,0.12511176130105311
8.54273127753304,0.22571156988378432
8.576101321585904,0.24636892035860103
8.609471365638766,0.1879569412810123
8.64284140969163,0.081936643858068
8.676211453744493,-0.020381261832365976
8.709581497797357,-0.06772096246718706
8.742951541850221,-0.030307191054716454
8.776321585903084,0.08633229422126633
8.809691629955948,0.24201442821176744
8.84306167400881,0.3777153288736625
8.876431718061674,0.4401795380524293
8.909801762114538,0.40442225708803264
8.9431718061674,0.28386137757891694
8.976541850220265,0.1235910322406004
9.009911894273127,-0.01966724363282237
9.043281938325991,-0.10129608864801969
9.076651982378856,-0.10541376442655655
9.110022026431718,-0.0476914374842748
9.143392070484582,0.03550099581496785
9.176762114537445,0.1053543260448582
9.210132158590309,0.13737125974633274
9.243502202643173,0.12934046316474168
9.276872246696035,0.09799697908907447
9.3102422907489,0.06720532134605214
9.343612334801762,0.05404586253620829
9.376982378854626,0.05953596987841241
9.41035242290749,0.06809429327927988
9.443722466960352,0.05570809766630391
9.477092511013216,0.0029129524977253526
9.510462555066079,-0.09343020896486937
9.543832599118943,-0.21528136246988347
9.577202643171807,-0.3285454831542865
9.61057268722467,-0.39694656257209826
9.643942731277534,-0.3990241070558944
9.677312775330396,-0.34014041883393237
9.71068281938326,-0.25256844842570253
9.744052863436124,-0.1818249834010332
9.777422907488987,-0.164428994493403
9.81079295154185,-0.20758740734341918
9.844162995594713,-0.2816542447947895
9.877533039647577,-0.33073223760405235
9.910903083700441,-0.2979012294682652
9.944273127753304,-0.15377698207391996
9.977643171806168,0.08540244933720074
10.01101321585903,0.35963637726267506
10.044383259911895,0.5871938667740553
10.077753303964759,0.6973669588523926
10.111123348017621,0.6592082718135558
10.144493392070485,0.4933208275132594
10.177863436123348,0.26178508559770325
10.211233480176212,0.04150534702650451
10.244603524229076,-0.10644779111964178
10.277973568281938,-0.15798650493618005
10.311343612334802,-0.12961471037315223
10.344713656387665,-0.06514876323981435
10.378083700440529,-0.013531317590424705
10.411453744493393,-0.00834681343925173
10.444823788546255,-0.057065033749002965
10.47819383259912,-0.1424195442849875
10.511563876651982,-0.23288684669299514
10.544933920704846,-0.29634527817773887
10.57830396475771,-0.3112247228665655
10.611674008810573,-0.2718300915266006
10.645044052863437,-0.18746579142271705
10.678414096916299,-0.07721998103726928
10.711784140969163,0.036815282381639176
10.745154185022027,0.1354411611114389
10.77852422907489,0.2059896621855056
10.811894273127754,0.2434940267471842
10.845264317180618,0.24995618650300327
10.87863436123348,0.23248793967139572
10.912004405286345,0.20094259898105032
10.945374449339207,0.1654655153758898
10.978744493392071,0.1343692890772007
11.012114537444935,0.1127675250202015
11.045484581497798,0.10222777240718878
11.078854625550662,0.101287506780907
11.112224669603524,0.10630811633930308
11.145594713656388,0.11217000383830018
11.178964757709252,0.11275401394067354
11.212334801762115,0.10162964336736346
11.245704845814979,0.073439423500085
11.279074889867841,0.026011816513069958
11.312444933920705,-0.03749322538557851
11.34581497797357,-0.1076837761443227
11.379185022026432,-0.17058275438440496
11.412555066079296,-0.21226653844157492
11.445925110132158,-0.22521342362911234
11.479295154185023,-0.21323742738142504
11.512665198237887,-0.19137091067669654
11.546035242290749,-0.17905708899655207
11.579405286343613,-0.18909296359766553
11.612775330396476,-0.21850217027790542
11.64614537444934,-0.24787446489467824
11.679515418502204,-0.25142334909627967
11.712885462555066,-0.21312806080930963
11.74625550660793,-0.13932069231419625
11.779625550660793,-0.058880929990899715
11.812995594713657,-0.009131133247347021
11.846365638766521,-0.014574407210034198
11.879735682819383,-0.07088225485411091
11.913105726872248,-0.14424268353717207
11.94647577092511,-0.18740896280241695
11.979845814977974,-0.16388909031048285
12.013215859030838,-0.06679831070993149
12.0465859030837,0.07807287052678846
12.079955947136565,0.22635894296762593
12.113325991189427,0.33809601287792634
12.146696035242291,0.39656665790347506
12.180066079295155,0.4127742657016807
12.213436123348018,0.4137810328349095
12.246806167400882,0.4224096188566257
12.280176211453744,0.44064691129442557
12.313546255506608,0.44684241283880216
12.346916299559473,0.4087638741186239
12.380286343612335,0.30525018478357363
12.413656387665199,0.1438163898066611
12.447026431718061,-0.03675170907189064
12.480396475770926,-0.18175797166583854
12.51376651982379,-0.24680227903328872
12.547136563876652,-0.2211904772026286
12.580506607929516,-0.1356153352004475
12.613876651982379,-0.0489425925216293
12.647246696035243,-0.019774308993693236
12.680616740088107,-0.07671060574474754
12.71398678414097,-0.2024838668952296
12.747356828193833,-0.340532431957146
12.780726872246696,-0.42134981929787413
12.81409691629956,-0.3958777783642532
12.847466960352424,-0.25961554195137043
12.880837004405286,-0.055886421626116546
12.91420704845815,0.14278514061557795
12.947577092511013,0.26562511473016265
12.980947136563877,0.2720839435143534
13.014317180616741,0.16542396483018856
13.047687224669604,-0.01285814316207813
13.081057268722468,-0.2028614070442065
13.11442731277533,-0.3498461579619986
13.147797356828194,-0.4211986541909792
13.181167400881058,-0.4113954822953634
13.21453744493392,-0.3360262983415733
13.247907488986785,-0.22047300208687526
13.281277533039647,-0.08963038349592348
13.314647577092511,0.037464833589577695
13.348017621145376,0.14797958995066832
13.381387665198238,0.233184089981982
13.414757709251102,0.28689782278580755
13.448127753303964,0.30590818177797885
13.481497797356829,0.2916467527780734
13.514867841409693,0.2512038307554372
13.548237885462555,0.19617609893157134
13.58160792951542,0.13940536268479237
13.614977973568282,0.09118882682494103
13.648348017621146,0.056960380819304046
13.68171806167401,0.03750568868220265
13.715088105726872,0.031149882929009626
13.748458149779736,0.03613785395319584
13.781828193832599,0.05139872386929026
13.815198237885463,0.07506555405075281
13.848568281938327,0.10181256991049062
13.88193832599119,0.12127532802050164
13.915308370044054,0.11971291894960503
13.948678414096916,0.08543401766688957
13.98204845814978,0.015991551688244076
14.015418502202644,-0.0768248239066247
14.048788546255507,-0.16808671471349085
14.08215859030837,-0.22809799401952416
14.115528634361233,-0.23501917587466553
14.148898678414097,-0.18552465406487603
14.182268722466961,-0.09743062430342748
14.215638766519824,-0.002175794553265745
14.249008810572688,0.0693602264546417
14.28237885462555,0.10037808012443748
14.315748898678414,0.09403588145993934
14.349118942731279,0.06900210821371694
14.382488986784141,0.04764900841087093
14.415859030837005,0.04355663117444436
14.449229074889868,0.05482060830161856
14.482599118942732,0.06602374562846902
14.515969162995596,0.05699015005814328
14.549339207048458,0.013310572479633156
14.582709251101322,-0.06644164769935093
14.616079295154185,-0.1694067852611336
14.649449339207049,-0.27249093939422786
14.682819383259913,-0.3492358396000397
14.716189427312775,-0.3768769167590635
14.74955947136564,-0.3421097476686646
14.782929515418502,-0.24515674895923006
14.816299559471366,-0.10179940460764401
14.84966960352423,0.05769928804640372
14.883039647577093,0.19425582240182748
14.916409691629957,0.27055966678456045
14.94977973568282,0.26423941913273175
14.983149779735683,0.17843262508783853
15.016519823788547,0.04389799752151455
15.04988986784141,-0.09042610852448717
15.083259911894274,-0.17606496472478997
15.116629955947138,-0.18513389997152505
15.15,-0.12218938545211087
15.183370044052865,-0.02109666705924859
15.216740088105727,0.07260501663590423
15.250110132158591,0.12550222144056825
15.283480176211455,0.13379101240792735
15.316850220264318,0.12442618167451489
15.350220264317182,0.1383861543862546
15.383590308370044,0.20464632076057598
15.416960352422908,0.3193872241337707
15.450330396475772,0.4428295589826271
15.483700440528635,0.5166681666660187
15.517070484581499,0.4935489215257708
15.550440528634361,0.36294769772831875
15.583810572687225,0.15926971863152892
15.61718061674009,-0.052697758319057035
15.650550660792952,-0.20776099808203963
15.683920704845816,-0.27029459020838476
15.717290748898678,-0.2489328094216072
15.750660792951543,-0.1889927504898656
15.784030837004407,-0.1473736492924585
15.817400881057269,-0.16338569166757477
15.850770925110133,-0.2401720154769882
15.884140969162996,-0.3449929981104456
15.91751101321586,-0.4266482243601739
15.950881057268724,-0.4402450483026522
15.984251101321586,-0.3672227542573356
16.01762114537445,-0.2223022352154318
16.050991189427315,-0.04602732262207549
16.084361233480177,0.11206589369612352
16.11773127753304,0.21159051704502105
16.151101321585905,0.23359561609101226
16.184471365638768,0.1834365776498643
16.21784140969163,0.08499578959158535
16.251211453744492,-0.029762105006568354
16.284581497797358,-0.1309426796197467
16.31795154185022,-0.19701874076994044
16.351321585903083,-0.21651159177838136
16.38469162995595,-0.18683625863220135
16.41806167400881,-0.11287737486448399
16.451431718061674,-0.006573496236032452
16.48480176211454,0.11340788443754822
16.518171806167402,0.22403059382814677
16.551541850220264,0.3034473357838786
16.584911894273127,0.33831236618976707
16.618281938325993,0.3291280268824512
16.651651982378855,0.2899185849428889
16.685022026431717,0.24129362377235122
16.718392070484583,0.19996649160898772
16.751762114537446,0.17044042955793295
16.785132158590308,0.14389195145590056
16.818502202643174,0.10529766923228466
16.851872246696036,0.04478394038455523
16.8852422907489,-0.03380561361259686
16.91861233480176,-0.1129066053654779
16.951982378854627,-0.17055253986653857
16.98535242290749,-0.19383635665608587
17.01872246696035,-0.18818455456895558
17.052092511013218,-0.17596643999982683
17.08546255506608,-0.18404946430681163
17.118832599118942,-0.22676357538324857
17.152202643171808,-0.29418346528828493
17.18557268722467,-0.35336183813237826
