Frequency (Hz),Amplitude
0.0,2.1872717680579714
0.019867549668874173,2.1865472973019937
0.039735099337748346,2.184375325458004
0.059602649006622516,2.1807601766749056
0.07947019867549669,2.17570906748995
0.09933774834437085,2.1692321213753507
0.11920529801324503,2.161342389329591
0.13907284768211922,2.152055876738745
0.15894039735099338,2.1413915767974188
0.17880794701986755,2.129371510841266
0.1986754966887417,2.116020776004178
0.2185430463576159,2.101367600671321
0.23841059602649006,2.085443408252895
0.2582781456953642,2.0682828898499235
0.27814569536423844,2.0499240864205888
0.2980132450331126,2.0304084810778487
0.31788079470198677,2.0097811021519885
0.33774834437086093,1.9880906376276926
0.3576158940397351,1.9653895615039447
0.3774834437086093,1.9417342725161117
0.3973509933774834,1.91718524548576
0.4172185430463576,1.891807195307391
0.4370860927152318,1.8656692532180483
0.45695364238410596,1.8388451544966908
0.4768211920529801,1.8114134360716445
0.49668874172185434,1.7834576416348724
0.5165562913907285,1.755066530726556
0.5364238410596026,1.726334286811016
0.5562913907284769,1.6973607175641947
0.5761589403973509,1.6682514383833031
0.5960264900662252,1.6391180274723358
0.6158940397350993,1.610078137734013
0.6357615894039735,1.5812555471297165
0.6556291390728477,1.5527801252315527
0.6754966887417219,1.5247876895497061
0.695364238410596,1.4974197211558011
0.7152317880794702,1.4708229055717241
0.7350993377483444,1.4451484624639164
0.7549668874172186,1.4205512271739038
0.7748344370860927,1.3971884494932616
0.7947019867549668,1.3752182814155602
0.8145695364238411,1.3547979368826943
0.8344370860927152,1.3360815235314782
0.8543046357615894,1.319217569318629
0.8741721854304636,1.3043462949432576
0.8940397350993378,1.29159671430797
0.9139072847682119,1.2810836766739555
0.9337748344370861,1.2729049913508905
0.9536423841059603,1.2671387937976664
0.9735099337748344,1.263841316282897
0.9933774834437087,1.2630452135788115
1.0132450331125828,1.2647585638233305
1.033112582781457,1.2689646190482005
1.0529801324503312,1.275622324267772
1.0728476821192052,1.284667565837703
1.0927152317880795,1.2960150569579807
1.1125827814569538,1.309560727514032
1.1324503311258278,1.325184461267893
1.1523178807947019,1.3427530169722381
1.1721854304635762,1.3621229795905416
1.1920529801324504,1.3831436096469076
1.2119205298013245,1.4056594879540556
1.2317880794701985,1.4295128847852354
1.2516556291390728,1.4545458130045623
1.271523178807947,1.48060175102387
1.2913907284768211,1.5075270422642335
1.3112582781456954,1.5351719927081835
1.3311258278145695,1.5633916975493447
1.3509933774834437,1.5920466327500171
1.370860927152318,1.6210030485538196
1.390728476821192,1.6501332007108187
1.410596026490066,1.6793154522658398
1.4304635761589404,1.7084342749707873
1.4503311258278146,1.7373801752529119
1.4701986754966887,1.7660495655790827
1.4900662251655628,1.7943445982371016
1.5099337748344372,1.822172975140565
1.5298013245033113,1.8494477443073103
1.5496688741721854,1.8760870911673218
1.5695364238410596,1.9020141307972622
1.5894039735099337,1.9271567055116698
1.609271523178808,1.9514471909132554
1.6291390728476822,1.9748223124661095
1.6490066225165563,1.9972229738559428
1.6688741721854303,2.0185940977972643
1.6887417218543048,2.0388844795002155
1.7086092715231789,2.0580466526873606
1.728476821192053,2.076036767826072
1.7483443708609272,2.092814482093233
1.7682119205298013,2.108342860498473
1.7880794701986755,2.1225882875451236
1.8079470198675496,2.1355203887945757
1.8278145695364238,2.1471119617101606
1.847682119205298,2.157338915184641
1.8675496688741722,2.1661802171963243
1.8874172185430464,2.173617850088044
1.9072847682119205,2.179636773018859
1.9271523178807946,2.184224891197327
1.9470198675496688,2.1873730315671907
1.9668874172185429,2.1890749246793666
1.9867549668874174,2.189327192548054
2.0066225165562916,2.188129342353357
2.0264900662251657,2.185483765917076
2.0463576158940397,2.181395744943291
2.066225165562914,2.1758734620795828
2.086092715231788,2.168928017919834
2.1059602649006623,2.1605734541334796
2.1258278145695364,2.150826782970647
2.1456953642384105,2.139708023455997
2.165562913907285,2.127240244646177
2.185430463576159,2.1134496163863687
2.205298013245033,2.0983654680575277
2.2251655629139075,2.082020355857953
2.2450331125827816,2.064450139206016
2.2649006622516556,2.04569406688306
2.2847682119205297,2.025794873551647
2.3046357615894038,2.0047988872783153
2.324503311258278,1.9827561486531495
2.3443708609271523,1.9597205420217756
2.364238410596027,1.9357499392141388
2.384105960264901,1.9109063559529142
2.403973509933775,1.885256120831739
2.423841059602649,1.8588700563439406
2.443708609271523,1.8318236708851345
2.463576158940397,1.804197359912175
2.4834437086092715,1.776076613472748
2.5033112582781456,1.7475522260778684
2.52317880794702,1.7187205033211497
2.543046357615894,1.6896834577033775
2.562913907284768,1.6605489837500826
2.5827814569536423,1.6314309996823635
2.6026490066225163,1.6024495396087661
2.622516556291391,1.573730776487931
2.642384105960265,1.5454069520735623
2.662251655629139,1.5176161858990627
2.6821192052980134,1.4905021314211013
2.7019867549668874,1.4642134442157646
2.7218543046357615,1.43890302528513
2.741721854304636,1.4147270029514163
2.76158940397351,1.3918434205010615
2.781456953642384,1.370410604757069
2.801324503311258,1.3505852040485409
2.821192052980132,1.3325199031894135
2.8410596026490067,1.3163608479649833
2.8609271523178808,1.302244841145503
2.8807947019867552,1.2902964038429245
2.9006622516556293,1.2806248264673115
2.9205298013245033,1.2733213580035432
2.9403973509933774,1.2684566958893542
2.9602649006622515,1.2660789372032892
2.9801324503311255,1.2662121327668776
3.0,1.268855549485549
3.0198675496688745,1.2739836962857531
3.0397350993377485,1.2815471115600223
3.0596026490066226,1.291473852878446
3.0794701986754967,1.3036715805711752
3.0993377483443707,1.3180300916733176
3.119205298013245,1.3344241429123511
3.1390728476821192,1.3527164010428974
3.1589403973509933,1.3727603733260976
3.1788079470198674,1.3944031959949013
3.198675496688742,1.4174881892077946
3.218543046357616,1.441857118710303
3.23841059602649,1.4673521336504893
3.2582781456953644,1.49381737447406
3.2781456953642385,1.521100263526014
3.2980132450331126,1.5490525038652065
3.3178807947019866,1.5775308194654512
3.3377483443708607,1.606397473394212
3.3576158940397347,1.6355206007891272
3.3774834437086096,1.664774391497634
3.3973509933774837,1.6940391539547195
3.4172185430463577,1.7232012879140843
3.437086092715232,1.7521531894996993
3.456953642384106,1.780793108030467
3.47682119205298,1.8090249703860137
3.4966887417218544,1.8367581854269468
3.5165562913907285,1.8639074381915546
3.5364238410596025,1.8903924812556618
3.556291390728477,1.91613792872701
3.576158940397351,1.9410730568042829
3.596026490066225,1.9651316136108938
3.615894039735099,1.9882516400641943
3.6357615894039736,2.0103753028145905
3.6556291390728477,2.0314487397436047
3.6754966887417218,2.0514219181100515
3.695364238410596,2.070248505147806
3.7152317880794703,2.0878857507227493
3.7350993377483444,2.104294381529658
3.754966887417219,2.1194385062357872
3.774834437086093,2.1332855309438012
3.794701986754967,2.145806084342129
3.814569536423841,2.1569739519281694
3.834437086092715,2.1667660187226527
3.854304635761589,2.17516221993773
3.8741721854304636,2.1821454991129543
3.8940397350993377,2.1877017732904243
3.9139072847682117,2.1918199048607643
3.9337748344370858,2.1944916797735994
3.9536423841059607,2.195711791870374
3.9735099337748347,2.1954778331609845
3.993377483443709,2.1937902899307438
4.013245033112583,2.1906525446285303
4.033112582781457,2.1860708835521057
4.052980132450331,2.180054510410713
4.072847682119205,2.1726155659105837
4.0927152317880795,2.1637691535726455
4.112582781456953,2.153533372056283
4.132450331125828,2.141929354326175
4.152317880794702,2.12898131406057
4.172185430463576,2.1147165997587685
4.19205298013245,2.0991657570604363
4.211920529801325,2.0823625998379347
4.231788079470199,2.0643442906626968
4.251655629139073,2.0451514312730636
4.271523178807947,2.0248281636791536
4.291390728476821,2.003422282523351
4.311258278145695,1.9809853592639832
4.33112582781457,1.9575728786532476
4.3509933774834435,1.9332443878237253
4.370860927152318,1.9080636580635393
4.390728476821192,1.882098859024732
4.410596026490066,1.85542274464633
4.43046357615894,1.8281128494491632
4.450331125827815,1.8002516930350299
4.470198675496689,1.7719269895541876
4.490066225165563,1.7432318575421804
4.509933774834438,1.7142650238181703
4.529801324503311,1.685131013031877
4.549668874172186,1.6559403119014695
4.569536423841059,1.626809494176084
4.589403973509934,1.5978612888932633
4.6092715231788075,1.5692245706426797
4.629139072847682,1.5410342464353803
4.649006622516556,1.5134310096596792
4.66887417218543,1.486560927873292
4.688741721854305,1.4605748283984576
4.708609271523179,1.435627444603518
4.728476821192054,1.4118762872969934
4.748344370860927,1.3894802108734141
4.768211920529802,1.3685976537755267
4.788079470198675,1.3493845483120188
4.80794701986755,1.3319919162474336
4.827814569536423,1.3165631934100657
4.847682119205298,1.3032313572818661
4.867549668874172,1.292115963296394
4.887417218543046,1.2833202243205957
4.9072847682119205,1.2769282887089715
4.927152317880794,1.2730028806036964
4.947019867549669,1.2715834581541494
4.966887417218543,1.2726850195904886
4.986754966887418,1.2762976451383452
5.006622516556291,1.2823868091904957
5.026490066225166,1.2908944389095909
5.04635761589404,1.3017406404527725
5.066225165562914,1.3148259695276674
5.086092715231788,1.3300340941005577
5.105960264900662,1.3472346858717303
5.125827814569536,1.3662863826621168
5.14569536423841,1.3870396827822737
5.1655629139072845,1.4093396601144264
5.185430463576159,1.4330284201458425
5.205298013245033,1.457947248312053
5.225165562913908,1.4839384296663958
5.245033112582782,1.5108467412999784
5.264900662251656,1.538520635463886
5.28476821192053,1.566813142222701
5.304635761589404,1.595582526466846
5.324503311258278,1.6246927362496764
5.344370860927152,1.6540136787476774
5.364238410596027,1.6834213576200838
5.3841059602649,1.7127979019516093
5.403973509933775,1.7420315128929613
5.4238410596026485,1.7710163499898026
5.443708609271523,1.7996523752821572
5.463576158940397,1.8278451697229914
5.483443708609272,1.8555057333772302
5.503311258278146,1.8825502782400305
5.52317880794702,1.908900020333888
5.543046357615895,1.934480975970146
5.562913907284768,1.9592237656398785
5.582781456953643,1.9830634278820978
5.602649006622516,2.005939244612316
5.622516556291391,2.0277945787372977
5.642384105960264,2.048576724391727
5.662251655629139,2.0682367697761563
5.682119205298013,2.0867294723241443
5.701986754966887,2.1040131457571407
5.7218543046357615,2.120049558478841
5.741721854304636,2.134803842701923
5.7615894039735105,2.1482444136775705
5.781456953642384,2.160342898401654
5.801324503311259,2.171074073195137
5.821192052980132,2.1804158095933595
5.841059602649007,2.188349028025999
5.860927152317881,2.1948576588235156
5.880794701986755,2.1999286101440525
5.900662251655629,2.2035517424762596
5.920529801324503,2.205719849436226
5.940397350993377,2.206428644640764
5.960264900662251,2.2056767545040006
5.980132450331126,2.2034657168687386
6.0,2.1997999854490247
6.0198675496688745,2.194686940125247
6.039735099337749,2.1881369031982545
6.059602649006623,2.1801631617730974
6.079470198675497,2.1707819965081145
6.099337748344371,2.1600127170286934
6.119205298013245,2.1478777043676502
6.139072847682119,2.1344024608550534
6.158940397350993,2.119615667937814
6.178807947019867,2.103549252461948
6.198675496688741,2.0862384619954644
6.218543046357616,2.0677219498043033
6.23841059602649,2.048041870112947
6.258278145695365,2.027243984279546
6.2781456953642385,2.0053777784843407
6.298013245033113,1.9824965934614978
6.317880794701987,1.958657766683298
6.337748344370861,1.9339227872181872
6.357615894039735,1.908357463208963
6.377483443708609,1.8820321015312236
6.397350993377484,1.855021698663883
6.417218543046357,1.8274061410995317
6.437086092715232,1.799270412699551
6.456953642384105,1.7707048052123346
6.47682119205298,1.7418051266703798
6.496688741721854,1.7126729005133374
6.516556291390729,1.6834155459997762
6.5364238410596025,1.654146527735016
6.556291390728477,1.6249854589434203
6.5761589403973515,1.5960581394786324
6.596026490066225,1.5674965055851484
6.6158940397351,1.5394384642811283
6.635761589403973,1.5120275812290493
6.655629139072848,1.4854125875559048
6.675496688741721,1.4597466689170269
6.695364238410596,1.4351864999895054
6.715231788079469,1.411890990516355
6.735099337748344,1.3900197160564403
6.754966887417219,1.3697310187111857
6.774834437086093,1.3511797809651458
6.794701986754967,1.3345148994581935
6.814569536423841,1.3198765141265234
6.8344370860927155,1.307393079639806
6.854304635761589,1.2971783970690935
6.874172185430464,1.2893287498204475
6.894039735099337,1.2839203041588054
6.913907284768212,1.2810069366771606
6.933774834437086,1.280618635965129
6.95364238410596,1.282760593192568
6.973509933774834,1.287413049125297
6.993377483443709,1.2945319088681797
7.013245033112583,1.3040500778851742
7.033112582781457,1.3158794213918656
7.052980132450331,1.3299132105582792
7.072847682119205,1.3460288970351633
7.0927152317880795,1.3640910529749952
7.112582781456954,1.383954324968955
7.132450331125828,1.405466273190175
7.152317880794702,1.428469996671646
7.172185430463576,1.4528064773604483
7.19205298013245,1.4783166055785801
7.211920529801324,1.5048428752214484
7.231788079470198,1.5322307571338847
7.251655629139073,1.560329773359776
7.271523178807947,1.5889943038395948
7.291390728476822,1.6180841615203732
7.311258278145695,1.6474649727943238
7.33112582781457,1.677008398714902
7.3509933774834435,1.7065922294424134
7.370860927152318,1.736100380552788
7.390728476821192,1.7654228157259768
7.410596026490066,1.794455416276077
7.430463576158941,1.8230998142147161
7.450331125827814,1.851263202177257
7.470198675496689,1.8788581306357803
7.490066225165562,1.9058023003746016
7.509933774834438,1.9320183561855915
7.52980132450331,1.957433686106881
7.549668874172186,1.9819802292283455
7.569536423841059,2.005594294071023
7.589403973509934,2.0282163887646045
7.6092715231788075,2.0497910636566727
7.629139072847682,2.0702667665501515
7.649006622516557,2.089595710450489
7.66887417218543,2.107733753485158
7.6887417218543055,2.124640290512989
7.708609271523178,2.140278155853478
7.728476821192054,2.154613536521021
7.748344370860927,2.167615895336951
7.768211920529802,2.1792579033038457
7.788079470198675,2.1895153806549583
7.80794701986755,2.198367246033302
7.827814569536423,2.2057954733042817
7.847682119205298,2.2117850555618617
7.8675496688741715,2.2163239759475624
7.887417218543046,2.2194031849635687
7.907284768211921,2.2210165840252043
7.927152317880795,2.2211610150616212
7.9470198675496695,2.219836256039089
7.966887417218543,2.217045022345749
7.986754966887418,2.212792974041888
8.006622516556291,2.2070887290450183
8.026490066225167,2.199943882383806
8.046357615894038,2.191373031719653
8.066225165562914,2.181393809399382
8.086092715231787,2.170026921365282
8.105960264900663,2.157296193311254
8.125827814569536,2.1432286245326444
8.14569536423841,2.12785444997258
8.165562913907285,2.1112072110169544
8.185430463576159,2.093323835629908
8.205298013245034,2.074244728449199
8.225165562913906,2.0540138714697727
8.245033112582782,2.0326789359289146
8.264900662251655,2.010291405957207
8.28476821192053,1.986906714466868
8.304635761589404,1.9625843915969106
8.324503311258278,1.9373882258070152
8.344370860927151,1.9113864373857272
8.364238410596027,1.884651863687532
8.3841059602649,1.8572621548053
8.403973509933774,1.8292999775810306
8.42384105960265,1.8008532248160247
8.443708609271523,1.7720152252123293
8.463576158940398,1.7428849479099886
8.483443708609272,1.713567193428775
8.503311258278146,1.6841727603356398
8.52317880794702,1.6548185740144277
8.543046357615895,1.6256277605164557
8.562913907284768,1.5967296446751156
8.582781456953642,1.56825964760368
8.602649006622515,1.5403590545972983
8.62251655629139,1.5131746206984784
8.642384105960264,1.486857978296788
8.66225165562914,1.4615648098386775
8.682119205298013,1.4374537499169115
8.701986754966887,1.4146849857155621
8.721854304635762,1.3934185340370706
8.741721854304636,1.373812187796519
8.76158940397351,1.356019145355443
8.781456953642383,1.3401853620530801
8.801324503311259,1.3264466933893908
8.821192052980132,1.3149259308820898
8.841059602649008,1.3057298608050327
8.86092715231788,1.2989464981270882
8.880794701986755,1.2946426582258537
8.90066225165563,1.292862023515866
8.920529801324504,1.293623839206448
8.940397350993377,1.2969223330327588
8.960264900662251,1.3027269020757337
8.980132450331126,1.3109830522635226
9.0,1.3216140205975921
9.019867549668875,1.3345229639202683
9.039735099337747,1.3495955665770005
9.059602649006623,1.3667029052031483
9.079470198675496,1.3857044116289425
9.099337748344372,1.4064507916014866
9.119205298013245,1.4287867832252268
9.139072847682119,1.452553669878958
9.158940397350994,1.4775914935421213
9.178807947019868,1.5037409426950803
9.198675496688743,1.5308449122507668
9.218543046357615,1.5587497505061039
9.23841059602649,1.5873062199573547
9.258278145695364,1.6163702056790243
9.27814569536424,1.6458032077968945
9.298013245033111,1.6754726544314078
9.317880794701987,1.7052520693174424
9.33774834437086,1.7350211249263348
9.357615894039736,1.7646656079524903
9.37748344370861,1.7940773199294866
9.397350993377483,1.8231539318065841
9.417218543046358,1.8517988077237646
9.437086092715232,1.8799208100609777
9.456953642384107,1.9074340951319981
9.47682119205298,1.934257906633432
9.496688741721854,1.9603163721089165
9.516556291390728,1.9855383062000547
9.536423841059603,2.00985702327886
9.556291390728477,2.0332101611409725
9.57615894039735,2.055539516738615
9.596026490066224,2.0767908944075613
9.6158940397351,2.0969139666570413
9.635761589403973,2.1158621473171824
9.655629139072847,2.1335924766509557
9.675496688741722,2.1500655179160004
9.695364238410596,2.165245264792531
9.715231788079471,2.17909905906144
9.735099337748345,2.1915975179144804
9.754966887417218,2.2027144702967023
9.774834437086092,2.2124269017153186
9.794701986754967,2.220714906993469
9.814569536423841,2.2275616504999243
9.834437086092716,2.2329533334427447
9.854304635761588,2.2368791678754945
9.874172185430464,2.2393313571276687
9.894039735099337,2.240305082434383
9.913907284768213,2.2397984956054375
9.933774834437086,2.2378127176386267
9.95364238410596,2.2343518432474605
9.973509933774835,2.2294229513385213
9.993377483443709,2.223036121538813
10.013245033112582,2.2152044569385105
10.033112582781456,2.2059441132789384
10.052980132450331,2.1952743348793913
10.072847682119205,2.18321749765898
10.09271523178808,2.1697991596697683
10.112582781456952,2.1550481196143876
10.132450331125828,2.1389964838727606
10.152317880794701,2.1216797426062395
10.172185430463577,2.103136855539742
10.192052980132452,2.0834103480398976
10.211920529801324,2.0625464181013644
10.2317880794702,2.040595054820058
10.251655629139073,2.017610168857764
10.271523178807948,1.9936497352771145
10.29139072847682,1.9687759489319565
10.311258278145695,1.9430553923167349
10.331125827814569,1.9165592153841897
10.350993377483444,1.8893633263053948
10.370860927152318,1.861548591433226
10.390728476821192,1.8332010418007385
10.410596026490065,1.804412082292496
10.43046357615894,1.7752786981208768
10.450331125827816,1.745903651370497
10.470198675496688,1.7163956580956115
10.490066225165563,1.6868695337341844
10.509933774834437,1.657446291428486
10.529801324503312,1.6282531742454822
10.549668874172186,1.5994235983649987
10.56953642384106,1.5710969802312484
10.589403973509933,1.5434184167472236
10.609271523178808,1.5165381842851169
10.629139072847682,1.4906110202179697
10.649006622516556,1.4657951506554363
10.66887417218543,1.442251031049647
10.688741721854305,1.4201397733535674
10.70860927152318,1.3996212454150927
10.728476821192054,1.380851845919311
