Time (s),Filtered Signal
0.0,0.009202550613609523
0.033370165745856356,0.03995241695790498
0.06674033149171271,0.10403743227343126
0.10011049723756907,0.2141027506714767
0.13348066298342542,0.3521611485925493
0.16685082872928178,0.47712130440879313
0.20022099447513814,0.5446837171332475
0.2335911602209945,0.5285119413798027
0.26696132596685085,0.43169621403638253
0.30033149171270723,0.2836400570858512
0.33370165745856356,0.1255693697927293
0.3670718232044199,-0.0068048892642570856
0.4004419889502763,-0.09487773872189205
0.43381215469613266,-0.1388379468989943
0.467182320441989,-0.15108572165288162
0.5005524861878453,-0.14678660788501588
0.5339226519337017,-0.13705065295584204
0.5672928176795581,-0.1272997828380928
0.6006629834254145,-0.11970817971172705
0.6340331491712707,-0.11645294862248018
0.6674033149171271,-0.12087968752494842
0.7007734806629835,-0.13587745005981405
0.7341436464088398,-0.16105799691311407
0.7675138121546962,-0.191199967573705
0.8008839779005525,-0.21742997621981758
0.8342541436464089,-0.2306341815005766
0.8676243093922653,-0.22508124897784185
0.9009944751381216,-0.2001983793869797
0.934364640883978,-0.15977672006223753
0.9677348066298344,-0.10954054989721494
1.0011049723756906,-0.05480826353188888
1.0344751381215471,0.0005615647440514649
1.0678453038674034,0.05405100898364531
1.1012154696132597,0.10425799249089415
1.1345856353591162,0.15143197607904024
1.1679558011049724,0.19843601524680074
1.201325966850829,0.25065514642479836
1.2346961325966852,0.31344284633969366
1.2680662983425415,0.3873055916415583
1.301436464088398,0.4632402568228475
1.3348066298342542,0.521793776208592
1.3681767955801105,0.5382504761720519
1.401546961325967,0.4930349564361076
1.4349171270718233,0.38270079731577467
1.4682872928176796,0.22519601081779467
1.501657458563536,0.05505436524902292
1.5350276243093923,-0.09072477227551781
1.5683977900552488,-0.1897225091826453
1.601767955801105,-0.24500058370323657
1.6351381215469614,-0.28313454393309984
1.6685082872928179,-0.3392385288658548
1.7018784530386741,-0.43612863767749216
1.7352486187845306,-0.5685416561223099
1.768618784530387,-0.7012185381299645
1.8019889502762432,-0.7826611479881231
1.8353591160220997,-0.7682433800376008
1.868729281767956,-0.6414696037362072
1.9020994475138122,-0.42305119179019474
1.9354696132596687,-0.16351897104030677
1.968839779005525,0.07692655207529492
2.0022099447513813,0.2517372842744797
2.0355801104972375,0.3438845068194831
2.0689502762430942,0.36768833535372186
2.1023204419889505,0.35694772167175876
2.135690607734807,0.3460658354242478
2.169060773480663,0.3536681986881068
2.2024309392265193,0.37629648969738727
2.235801104972376,0.39427479095582857
2.2691712707182323,0.38562655739763635
2.3025414364640886,0.3400908701688081
2.335911602209945,0.2657025580897849
2.369281767955801,0.1847230678937745
2.402651933701658,0.12157297996239708
2.436022099447514,0.08966860992405677
2.4693922651933704,0.08444790463207628
2.5027624309392267,0.08625724192764248
2.536132596685083,0.07122885224291614
2.5695027624309392,0.023908929635253026
2.602872928176796,-0.05540369529053844
2.636243093922652,-0.15249431200529323
2.6696132596685085,-0.24881090962938712
2.7029834254143648,-0.33281572807817955
2.736353591160221,-0.40592197701830923
2.7697237569060777,-0.4787244709620047
2.803093922651934,-0.5588734991518628
2.8364640883977903,-0.6373913960184742
2.8698342541436466,-0.6823853267588887
2.903204419889503,-0.6463027497244505
2.936574585635359,-0.4859887219075231
2.969944751381216,-0.18718179124721981
3.003314917127072,0.21898306741968124
3.0366850828729284,0.6575694544225013
3.0700552486187846,1.0314514790526377
3.103425414364641,1.2548220765119547
3.1367955801104976,1.2839777100116376
3.170165745856354,1.1314792659911788
3.20353591160221,0.8575254645086555
3.2369060773480665,0.5431515000245762
3.2702762430939227,0.2581519142176906
3.3036464088397794,0.038310851051274214
3.3370165745856357,-0.11898082870772404
3.370386740331492,-0.2411978463855866
3.4037569060773483,-0.35824921211013316
3.4371270718232045,-0.48341742211228245
3.4704972375690613,-0.6067642040126981
3.5038674033149175,-0.7027525475572229
3.537237569060774,-0.7464974900988569
3.57060773480663,-0.7293621300818989
3.6039779005524863,-0.665843374002757
3.6373480662983426,-0.5885506057223024
3.6707182320441993,-0.5338557629207262
3.7040883977900556,-0.5248998257400351
3.737458563535912,-0.5596346278835093
3.770828729281768,-0.6093736556155026
3.8041988950276244,-0.6289282943206632
3.837569060773481,-0.5745245424684825
3.8709392265193374,-0.4222574605303862
3.9043093922651937,-0.17934316201468545
3.93767955801105,0.11674903170548727
3.9710497237569062,0.41112920488947263
4.0044198895027625,0.6509921241726918
4.037790055248619,0.8036404979482906
4.071160220994475,0.8656350525761057
4.104530386740332,0.8597234741822595
4.1379005524861885,0.821621865061662
4.171270718232044,0.7830124029405071
4.204640883977901,0.7583924633527188
4.238011049723757,0.7412551119890058
4.271381215469614,0.7106463673748947
4.30475138121547,0.6444907105281932
4.338121546961326,0.5332111225265792
4.371491712707183,0.3872300708747513
4.404861878453039,0.23479866349300849
4.438232044198895,0.11098238738027007
4.471602209944752,0.04262664125848721
4.504972375690608,0.035988085925913425
4.538342541436465,0.07262683332002616
4.5717127071823205,0.11559543143753366
4.605082872928177,0.1235118248257896
4.638453038674034,0.0667166282345509
4.67182320441989,-0.061149604693687236
4.7051933701657465,-0.24080904102684328
4.738563535911602,-0.4349455163806432
4.771933701657459,-0.6022904433669821
4.805303867403316,-0.7122639645197162
4.8386740331491715,-0.7544549223559534
4.872044198895028,-0.7398555419932855
4.905414364640884,-0.6944072985565098
4.938784530386741,-0.6483133574061986
4.972154696132597,-0.6255548595926761
5.005524861878453,-0.6370325704399279
5.03889502762431,-0.678640093121789
5.072265193370166,-0.733617836198361
5.105635359116023,-0.7776110645624915
5.1390055248618784,-0.7849986753478654
5.172375690607735,-0.7355843215344694
5.205745856353592,-0.620839110340278
5.239116022099448,-0.44831302327075734
5.272486187845304,-0.24217539325693044
5.30585635359116,-0.038111922438800294
5.339226519337017,0.12739255284163586
5.372596685082874,0.23046918813176848
5.4059668508287295,0.270585909161142
5.439337016574586,0.2728832410745404
5.472707182320442,0.2792196555200578
5.506077348066299,0.33014275045205
5.5394475138121555,0.445158073634914
5.572817679558011,0.6110352765827259
5.606187845303868,0.7856111053826648
5.639558011049724,0.9178778768856921
5.672928176795581,0.9766878158678884
5.706298342541437,0.9742076729834694
5.739668508287293,0.9700482134538804
5.77303867403315,1.049184630727472
5.806408839779006,1.2792186028341659
5.839779005524862,1.6647774122246277
5.873149171270718,2.122322514783389
5.906519337016575,2.4929336340661687
5.939889502762432,2.594459243511122
5.9732596685082875,2.294454865787806
6.006629834254144,1.5717784981727767
6.04,0.5361639547044552
6.073370165745857,-0.6069462857706056
6.1067403314917135,-1.6324263331288855
6.140110497237569,-2.3772495124862973
6.173480662983426,-2.78945997346655
6.206850828729282,-2.922906507673124
6.240220994475139,-2.884941050694545
6.273591160220995,-2.768375956739105
6.306961325966851,-2.605163397361896
6.340331491712708,-2.3646422085231458
6.373701657458564,-1.9928428459433691
6.40707182320442,-1.4665765656446683
6.440441988950277,-0.8294008078001441
6.473812154696133,-0.18872326054267996
6.50718232044199,0.3239047862267307
6.5405524861878455,0.6074096339832863
6.573922651933702,0.6325405747439881
6.607292817679559,0.4508608770652177
6.640662983425415,0.17001045887341204
6.674033149171271,-0.09017892128293428
6.707403314917127,-0.23957743813911325
6.740773480662984,-0.2408578418668702
6.774143646408841,-0.10816000237029415
6.8075138121546965,0.11276382704073645
6.840883977900553,0.3703275551932665
6.874254143646409,0.6264695474051111
6.907624309392266,0.8630094277604557
6.9409944751381225,1.0760448913692637
6.974364640883978,1.2649859008212883
7.007734806629835,1.4239522025364122
7.041104972375691,1.5401313015007503
7.074475138121548,1.5986638413319985
7.107845303867403,1.589765452491958
7.14121546961326,1.5131300414729543
7.174585635359117,1.3771142765149496
7.207955801104973,1.193869338228419
7.241325966850829,0.9740577270523454
7.274696132596685,0.724677717998038
7.308066298342542,0.4511730841194943
7.341436464088399,0.16210568822402407
7.3748066298342545,-0.1269812545404816
7.408176795580111,-0.3934305641825871
7.441546961325967,-0.6118870080523419
7.474917127071824,-0.7616283061971512
7.5082872928176805,-0.8337157335788684
7.541657458563536,-0.8350400905608786
7.575027624309393,-0.7878127540329634
7.608397790055249,-0.7248252681848437
7.641767955801106,-0.6819230760617476
7.675138121546962,-0.6893609716942817
7.708508287292818,-0.7635381813065056
7.741878453038675,-0.9007037952445102
7.775248618784531,-1.0746382336038907
7.808618784530387,-1.2403452440007887
7.841988950276244,-1.344561540395634
7.8753591160221,-1.3412820800166771
7.908729281767957,-1.2075617399068306
7.9420994475138125,-0.9533572646794646
7.975469613259669,-0.6204918644289147
8.008839779005525,-0.26991885088467704
8.042209944751383,0.03837055341742665
8.075580110497238,0.2648044937044732
8.108950276243094,0.4010120667066997
8.14232044198895,0.4677058517720357
8.175690607734808,0.5013100505984324
8.209060773480664,0.5359588554192586
8.24243093922652,0.5891540441230223
8.275801104972377,0.65706882478378
8.309171270718233,0.7205421502279847
8.342541436464089,0.7577113574053989
8.375911602209946,0.7563803132137148
8.409281767955802,0.7198584103106007
8.442651933701658,0.6637111610768384
8.476022099447514,0.6057487559256249
8.509392265193371,0.5551571279305806
8.542762430939227,0.5070807241135123
8.576132596685083,0.44595205079173905
8.60950276243094,0.3559989622091767
8.642872928176796,0.23323922350064608
8.676243093922652,0.09213608054365073
8.709613259668508,-0.0373756282302646
8.742983425414366,-0.12183241173878231
8.776353591160222,-0.13968535635200058
8.809723756906077,-0.09263925531122802
8.843093922651935,-0.007000620978604658
8.87646408839779,0.07608555932724376
8.909834254143647,0.11721359313635367
8.943204419889504,0.09451016907045023
8.97657458563536,0.011529435762683343
9.009944751381216,-0.1059052609570567
9.043314917127072,-0.22176180518241387
9.07668508287293,-0.3046971345677747
9.110055248618785,-0.33906095953574394
9.143425414364641,-0.32788179559108166
9.176795580110499,-0.2879319339745794
9.210165745856354,-0.24050151986094195
9.24353591160221,-0.20271842150962008
9.276906077348068,-0.18292937576326335
9.310276243093924,-0.18093799317285414
9.34364640883978,-0.19142433691283822
9.377016574585635,-0.2078592097260112
9.410386740331493,-0.2248782664289527
9.443756906077349,-0.23865686350446735
9.477127071823205,-0.2462216073376446
9.510497237569062,-0.24507921120349957
9.543867403314918,-0.2339732008860986
9.577237569060774,-0.21450334353882802
9.610607734806631,-0.1924323002756323
9.643977900552487,-0.1772514277725413
9.677348066298343,-0.17916541497243652
9.710718232044199,-0.2039327695742809
9.744088397790057,-0.24747359476231504
9.777458563535912,-0.2930719845810453
9.810828729281768,-0.313634787123023
9.844198895027626,-0.2796005233664065
9.877569060773482,-0.1703460689263661
9.910939226519337,0.015347432290614596
9.944309392265193,0.2546527860078041
9.97767955801105,0.5048008543375984
10.011049723756907,0.7152120244753849
10.044419889502763,0.8433462002254426
10.07779005524862,0.8682075969000411
10.111160220994476,0.7963593702120765
10.144530386740332,0.65837669743071
10.17790055248619,0.4974207104972729
10.211270718232045,0.35446267438268697
10.244640883977901,0.2556228595190607
10.278011049723757,0.2059316509879383
10.311381215469615,0.1911277784243403
10.34475138121547,0.1859618376331372
10.378121546961326,0.16515136696672306
10.411491712707184,0.11259501627807998
10.44486187845304,0.02580786248373922
10.478232044198895,-0.08506706669119361
10.511602209944753,-0.20218395916683388
10.544972375690609,-0.3064107757073699
10.578342541436465,-0.38304499626871574
10.61171270718232,-0.4254777763840502
10.645082872928178,-0.43624498622043045
10.678453038674034,-0.4254430836931363
10.71182320441989,-0.4069579265078484
10.745193370165747,-0.393516335043399
10.778563535911603,-0.3920838585521579
10.811933701657459,-0.40124187629063035
10.845303867403315,-0.4116331776363937
10.878674033149172,-0.40947397425768367
10.912044198895028,-0.3819310107451199
10.945414364640884,-0.3223742388082936
10.978784530386742,-0.23346554871119757
11.012154696132598,-0.1267553084666223
11.045524861878453,-0.018705389795080858
11.078895027624311,0.07553622278421405
11.112265193370167,0.14818999031852537
11.145635359116023,0.20202621776125085
11.179005524861878,0.2488396900308723
11.212375690607736,0.3033091594808934
11.245745856353592,0.37461491267500413
11.279116022099448,0.45969987764890274
11.312486187845305,0.5418153799499006
11.345856353591161,0.5958000054984829
11.379226519337017,0.5982871997588874
11.412596685082875,0.5383334760350388
11.44596685082873,0.4232996802981795
11.479337016574586,0.27675406781212986
11.512707182320442,0.12893575798050208
11.5460773480663,0.004125189384730695
11.579447513812156,-0.08888369359430688
11.612817679558011,-0.15828803949393208
11.646187845303869,-0.2218156201716997
11.679558011049725,-0.29409527889270437
11.71292817679558,-0.37561410920525884
11.746298342541436,-0.4494716199133352
11.779668508287294,-0.48820753539541417
11.81303867403315,-0.4676459704351747
11.846408839779006,-0.380787311552392
11.879779005524863,-0.24442567070099835
11.91314917127072,-0.09465507566769227
11.946519337016575,0.027001449654229414
11.979889502762433,0.09033159588023598
12.013259668508288,0.08805566467123402
12.046629834254144,0.036950045990309245
12.08,-0.03157813743826694
12.113370165745858,-0.08627057803665038
12.146740331491714,-0.10856522327762215
12.18011049723757,-0.09701117696808167
12.213480662983427,-0.06240042518154444
12.246850828729283,-0.017570716719661345
12.280220994475139,0.03157736229015608
12.313591160220996,0.08859954281760268
12.346961325966852,0.16155381815040867
12.380331491712708,0.2541158323923979
12.413701657458564,0.3584818271541325
12.447071823204421,0.454469951479836
12.480441988950277,0.5154926369715064
12.513812154696133,0.5183000717733202
12.54718232044199,0.45173205362843644
12.580552486187846,0.3207748363991396
12.613922651933702,0.14492710720558066
12.64729281767956,-0.04757281080713482
12.680662983425416,-0.22698643667763632
12.714033149171271,-0.36848250758711293
12.747403314917127,-0.45645815103935855
12.780773480662985,-0.48638893908406444
12.81414364640884,-0.4642557731045217
12.847513812154697,-0.4038479289694796
12.880883977900554,-0.3225916994174677
12.91425414364641,-0.23696884279155583
12.947624309392266,-0.15879693279875137
12.980994475138122,-0.09342348431106251
13.01436464088398,-0.04024506532282395
13.047734806629835,0.004879134284637412
13.081104972375691,0.046464528928442085
13.114475138121549,0.08689771729446867
13.147845303867404,0.12563098899963981
13.18121546961326,0.16021756774684853
13.214585635359118,0.18833753851562632
13.247955801104974,0.20943141544354785
13.28132596685083,0.2248262205324863
13.314696132596685,0.2361855473699754
13.348066298342543,0.24320757417443992
13.381436464088399,0.24210486663571065
13.414806629834255,0.22615262055743107
13.448176795580112,0.18855081693823209
13.481546961325968,0.1264834215108005
13.514917127071824,0.044274834601508696
13.548287292817681,-0.04642012980509316
13.581657458563537,-0.13017950340872075
13.615027624309393,-0.19387414479069692
13.648397790055249,-0.23225960175953064
13.681767955801106,-0.2499210805508649
13.715138121546962,-0.25808711538536255
13.748508287292818,-0.2676569156473944
13.781878453038676,-0.28213587105740656
13.815248618784532,-0.2945546296916782
13.848618784530387,-0.29045267628355376
13.881988950276245,-0.2556425943263953
13.9153591160221,-0.18464228197431906
13.948729281767957,-0.08508253473603664
13.982099447513813,0.02447954309152376
14.01546961325967,0.12225671816542771
14.048839779005526,0.19231704728482457
14.082209944751382,0.23032377659945896
14.11558011049724,0.24330525497947844
14.148950276243095,0.2442783045181709
14.182320441988951,0.2451845008865832
14.215690607734807,0.25193162877958725
14.249060773480664,0.2634594151394725
14.28243093922652,0.2741587635195453
14.315801104972376,0.27740437208300334
14.349171270718234,0.26817457978493986
14.38254143646409,0.24411780853089352
14.415911602209945,0.20565340721463332
14.449281767955803,0.15584365411359627
14.482651933701659,0.10000910035667641
14.516022099447515,0.044383621533435454
14.54939226519337,-0.006570593293590373
14.582762430939228,-0.053269698342357105
14.616132596685084,-0.10239000866753689
14.64950276243094,-0.16450065121585525
14.682872928176797,-0.24782986546597488
14.716243093922653,-0.35079476372845264
14.749613259668509,-0.4576744605070601
14.782983425414367,-0.5410638031399027
14.816353591160222,-0.5714847663044729
14.849723756906078,-0.5304146779364814
14.883093922651934,-0.42044063763118517
14.916464088397792,-0.266965775232516
14.949834254143648,-0.10974676291158034
14.983204419889503,0.012415433263763483
15.016574585635361,0.07695957663197693
15.049944751381217,0.08581203628385234
15.083314917127073,0.06296017051874199
15.116685082872928,0.04283207495018414
15.150055248618786,0.0551776011894126
15.183425414364642,0.11336461716727707
15.216795580110498,0.21079444914330164
15.250165745856355,0.32586816331670004
15.283535911602211,0.431939448290327
15.316906077348067,0.5069779649297274
15.350276243093925,0.5388612074726328
15.38364640883978,0.5253074928325323
15.417016574585636,0.47049872320587227
15.450386740331492,0.3816846643175756
15.48375690607735,0.2679962973666989
15.517127071823205,0.14127249782401183
15.550497237569061,0.01668215265861743
15.583867403314919,-0.0892699649640773
15.617237569060775,-0.16394844854692742
15.65060773480663,-0.20493066415724065
15.683977900552488,-0.2236535206608892
15.717348066298344,-0.2429592654903326
15.7507182320442,-0.28783136593607606
15.784088397790056,-0.37236801213541315
15.817458563535913,-0.48893444054017215
15.85082872928177,-0.6057081871390964
15.884198895027625,-0.6757884389272637
15.917569060773483,-0.6556302858332878
15.950939226519338,-0.5252721304445345
15.984309392265194,-0.30064000298938315
16.01767955801105,-0.030946009985237583
16.051049723756908,0.21892784065243642
16.084419889502765,0.39353761312271224
16.11779005524862,0.46781111003727816
16.151160220994477,0.454015986553357
16.18453038674033,0.39199193687817857
16.21790055248619,0.32820882709492116
16.251270718232046,0.2943583265816291
16.2846408839779,0.29559781384564027
16.318011049723758,0.31294270084302334
16.351381215469615,0.3169515557712505
16.38475138121547,0.28467307875337444
16.418121546961327,0.21121602084529598
16.451491712707185,0.111050730571493
16.48486187845304,0.00983813607372356
16.518232044198896,-0.06790698518914125
16.551602209944754,-0.10880141751793357
16.584972375690608,-0.1139592173365503
16.618342541436466,-0.09551990015193287
16.651712707182323,-0.06957716113968819
16.685082872928177,-0.04983284615923031
16.718453038674035,-0.04478360848615859
16.751823204419892,-0.05842816586687615
16.785193370165747,-0.09229653219413803
16.818563535911604,-0.14636043693111825
16.851933701657458,-0.21796077146307777
16.885303867403316,-0.29991034820754353
16.918674033149173,-0.37984572582533527
16.952044198895027,-0.4421220961870734
16.985414364640885,-0.4717912950941489
17.018784530386743,-0.45883208679981324
17.052154696132597,-0.4007263746028762
17.085524861878454,-0.3025560021268087
17.118895027624312,-0.17511654166471008
17.152265193370166,-0.03222297694324437
17.185635359116024,0.11180624862638482
17.21900552486188,0.24411567584286886
17.252375690607735,0.3547897672585067
17.285745856353593,0.4378768913302055
17.31911602209945,0.49173115883127916
