Frequency (Hz),Amplitude
0.0,0.10691082691031661
0.019867549668874173,0.11425496811493457
0.039735099337748346,0.13386743249588673
0.059602649006622516,0.16127382348618774
0.07947019867549669,0.19310091924309983
0.09933774834437085,0.22740124289620728
0.11920529801324503,0.2630995439909481
0.13907284768211922,0.29957927043855076
0.15894039735099338,0.3364638945876005
0.17880794701986755,0.37350734872503993
0.1986754966887417,0.4105379649637343
0.2185430463576159,0.4474285749940941
0.23841059602649006,0.4840798317884271
0.2582781456953642,0.5204105041694884
0.27814569536423844,0.5563516094732424
0.2980132450331126,0.5918427451585279
0.31788079470198677,0.6268297269889468
0.33774834437086093,0.6612630293985875
0.3576158940397351,0.6950967330171786
0.3774834437086093,0.7282878013481598
0.3973509933774834,0.760795576135831
0.4172185430463576,0.7925814211052146
0.4370860927152318,0.8236084682679491
0.45695364238410596,0.8538414363197003
0.4768211920529801,0.8832465004616356
0.49668874172185434,0.9117911993798867
0.5165562913907285,0.9394443693750306
0.5364238410596026,0.9661760985143306
0.5562913907284769,0.9919576956602048
0.5761589403973509,1.016761670610114
0.5960264900662252,1.040561722560282
0.6158940397350993,1.0633327348058705
0.6357615894039735,1.0850507740976338
0.6556291390728477,1.1056930934470488
0.6754966887417219,1.1252381374479465
0.695364238410596,1.1436655493884627
0.7152317880794702,1.1609561795836423
0.7350993377483444,1.177092094477272
0.7549668874172186,1.1920565861537127
0.7748344370860927,1.2058341819709948
0.7947019867549668,1.218410654082475
0.8145695364238411,1.2297730286581012
0.8344370860927152,1.2399095946516503
0.8543046357615894,1.2488099119883609
0.8741721854304636,1.2564648190705976
0.8940397350993378,1.262866439518029
0.9139072847682119,1.2680081880745964
0.9337748344370861,1.2718847756280904
0.9536423841059603,1.2744922132994114
0.9735099337748344,1.2758278155690912
0.9933774834437087,1.2758902024172483
1.0132450331125828,1.2746793004618493
1.033112582781457,1.2721963430880334
1.0529801324503312,1.2684438695685074
1.0728476821192052,1.2634257231831127
1.0927152317880795,1.2571470483534737
1.1125827814569538,1.2496142868168003
1.1324503311258278,1.2408351728722644
1.1523178807947019,1.2308187277436784
1.1721854304635762,1.2195752531135038
1.1920529801324504,1.207116323897151
1.2119205298013245,1.1934547803422657
1.2317880794701985,1.1786047195571963
1.2516556291390728,1.1625814865957722
1.271523178807947,1.1454016652546268
1.2913907284768211,1.1270830687743763
1.3112582781456954,1.107644730681103
1.3311258278145695,1.0871068960602177
1.3509933774834437,1.0654910136275266
1.370860927152318,1.0428197290538184
1.390728476821192,1.019116880120607
1.410596026490066,0.9944074944409219
1.4304635761589404,0.9687177906881089
1.4503311258278146,0.9420751845525772
1.4701986754966887,0.9145083010218389
1.4900662251655628,0.8860469950886901
1.5099337748344372,0.8567223836964026
1.5298013245033113,0.8265668927093086
1.5496688741721854,0.7956143240820011
1.5695364238410596,0.7638999503809374
1.5894039735099337,0.7314606466891262
1.609271523178808,0.698335074167918
1.6291390728476822,0.6645639359177623
1.6490066225165563,0.6301903355119307
1.6688741721854303,0.5952602837544302
1.6887417218543048,0.5598234234077729
1.7086092715231789,0.5239340811391845
1.728476821192053,0.48765282215358086
1.7483443708609272,0.4510487972291215
1.7682119205298013,0.4142033753006316
1.7880794701986755,0.3772159296148849
1.8079470198675496,0.34021336227800325
1.8278145695364238,0.30336637636399255
1.847682119205298,0.26691844283906674
1.8675496688741722,0.2312396487567404
1.8874172185430464,0.19693087260696732
1.9072847682119205,0.16502937430642484
1.9271523178807946,0.137394255712027
1.9470198675496688,0.11723071617227174
1.9668874172185429,0.10887207426809242
1.9867549668874174,0.11495765230261538
2.0066225165562916,0.1335072524829966
2.0264900662251657,0.16019237655004043
2.0463576158940397,0.19156255376488548
2.066225165562914,0.22557458656603155
2.086092715231788,0.2610897005017955
2.1059602649006623,0.29745380168158775
2.1258278145695364,0.33426824528934784
2.1456953642384105,0.3712735418561046
2.165562913907285,0.40828956327677446
2.185430463576159,0.4451836004040005
2.205298013245033,0.4818525440970641
2.2251655629139075,0.5182125221906134
2.2450331125827816,0.5541926400827183
2.2649006622516556,0.5897310708861647
2.2847682119205297,0.6247725403770269
2.3046357615894038,0.6592666674195742
2.324503311258278,0.6931668446772717
2.3443708609271523,0.7264294696177659
2.364238410596027,0.7590134080276931
2.384105960264901,0.7908796151366251
2.403973509933775,0.8219908656049694
2.423841059602649,0.8523115599775756
2.443708609271523,0.8818075856510208
2.463576158940397,0.9104462172156412
2.4834437086092715,0.9381960455606748
2.5033112582781456,0.9650269281918925
2.52317880794702,0.9909099553138465
2.543046357615894,1.0158174276941123
2.562913907284768,1.0397228433637467
2.5827814569536423,1.0626008909488127
2.6026490066225163,1.084427447965772
2.622516556291391,1.1051795828067503
2.642384105960265,1.1248355594323256
2.662251655629139,1.1433748440073348
2.6821192052980134,1.160778112880026
2.7019867549668874,1.1770272614300763
2.7218543046357615,1.1921054134078481
2.741721854304636,1.2059969304618936
2.76158940397351,1.2186874216103782
2.781456953642384,1.2301637524586622
2.801324503311258,1.240414054001809
2.821192052980132,1.249427730880912
2.8410596026490067,1.2571954689860583
2.8609271523178808,1.263709242318774
2.8807947019867552,1.2689623190434527
2.9006622516556293,1.272949266671221
2.9205298013245033,1.275665956331792
2.9403973509933774,1.2771095660997482
2.9602649006622515,1.2772785833507951
2.9801324503311255,1.2761728061326956
3.0,1.2737933435437252
3.0198675496688745,1.2701426151196507
3.0397350993377485,1.2652243492382205
3.0596026490066226,1.2590435805588813
3.0794701986754967,1.2516066465239852
3.0993377483443707,1.2429211829579656
3.119205298013245,1.2329961188115184
3.1390728476821192,1.2218416701107635
3.1589403973509933,1.2094693331856536
3.1788079470198674,1.1958918772694958
3.198675496688742,1.181123336581966
3.218543046357616,1.1651790020334265
3.23841059602649,1.148075412719398
3.2582781456953644,1.1298303474124773
3.2781456953642385,1.1104628163074188
3.2980132450331126,1.08999305333597
3.3178807947019866,1.0684425094462835
3.3377483443708607,1.0458338473413833
3.3576158940397347,1.0221909383018775
3.3774834437086096,0.9975388618876845
3.3973509933774837,0.9719039095388706
3.4172185430463577,0.9453135933953628
3.437086092715232,0.917796662059312
3.456953642384106,0.8893831255734815
3.47682119205298,0.8601042926452782
3.4966887417218544,0.8299928241988815
3.5165562913907285,0.7990828088214914
3.5364238410596025,0.7674098677896551
3.556291390728477,0.7350113004324671
3.576158940397351,0.7019262851088622
3.596026490066225,0.6681961578394818
3.615894039735099,0.6338648009394745
3.6357615894039736,0.5989791900140325
3.6556291390728477,0.563590173103256
3.6754966887417218,0.5277535970792836
3.695364238410596,0.49153196526907483
3.7152317880794703,0.45499692830480537
3.7350993377483444,0.41823311866915663
3.754966887417219,0.381344219749282
3.774834437086093,0.3444628784034863
3.794701986754967,0.3077674742679205
3.814569536423841,0.271511593708528
3.834437086092715,0.23607789622759004
3.854304635761589,0.20207991127947372
3.8741721854304636,0.1705563438851781
3.8940397350993377,0.14331784292023522
3.9139072847682117,0.12338050232626922
3.9337748344370858,0.1147150556264419
3.9536423841059607,0.1198296559557182
3.9735099337748347,0.13717574566060997
3.993377483443709,0.16283789445860233
4.013245033112583,0.19345699560342067
4.033112582781457,0.2269405915686467
4.052980132450331,0.2620863627470856
4.072847682119205,0.29819220080519676
4.0927152317880795,0.3348269073707841
4.112582781456953,0.37170928375951984
4.132450331125828,0.40864454250554244
4.152317880794702,0.4454898545793549
4.172185430463576,0.4821349506041687
4.19205298013245,0.5184907667577826
4.211920529801325,0.5544825552503093
4.231788079470199,0.5900455660196761
4.251655629139073,0.6251222612775589
4.271523178807947,0.659660473154514
4.291390728476821,0.6936121583849055
4.311258278145695,0.7269325407938845
4.33112582781457,0.7595795115672765
4.3509933774834435,0.791513204473641
4.370860927152318,0.8226956920562745
4.390728476821192,0.8530907668766602
4.410596026490066,0.882663783451214
4.43046357615894,0.9113815440720195
4.450331125827815,0.9392122167229705
4.470198675496689,0.9661252767006515
4.490066225165563,0.992091465883679
4.509933774834438,1.0170827652238332
4.529801324503311,1.041072377183077
4.549668874172186,1.0640347156658378
4.569536423841059,1.0859454015930579
4.589403973509934,1.1067812627023672
4.6092715231788075,1.126520336483368
4.629139072847682,1.1451418753990668
4.649006622516556,1.1626263537279447
4.66887417218543,1.1789554755006857
4.688741721854305,1.1941121831128758
4.708609271523179,1.2080806662784125
4.728476821192054,1.2208463710533377
4.748344370860927,1.232396008711478
4.768211920529802,1.2427175642941908
4.788079470198675,1.2518003046895603
4.80794701986755,1.2596347861232422
4.827814569536423,1.2662128609652021
4.847682119205298,1.2715276837750753
4.867549668874172,1.2755737165244756
4.887417218543046,1.2783467329477975
4.9072847682119205,1.2798438219851695
4.927152317880794,1.280063390291498
4.947019867549669,1.2790051637955946
4.966887417218543,1.2766701883021903
4.986754966887418,1.273060829139435
5.006622516556291,1.2681807698626653
5.026490066225166,1.2620350100356246
5.04635761589404,1.254629862119714
5.066225165562914,1.2459729475134529
5.086092715231788,1.236073191796667
5.105960264900662,1.2249408192483042
5.125827814569536,1.2125873467235415
5.14569536423841,1.1990255769958076
5.1655629139072845,1.1842695916934947
5.185430463576159,1.16833474398991
5.205298013245033,1.1512376512414022
5.225165562913908,1.132996187812984
5.245033112582782,1.113629478386869
5.264900662251656,1.0931578921198783
5.28476821192053,1.0716030381064947
5.304635761589404,1.048987762719918
5.324503311258278,1.0253361495545474
5.344370860927152,1.0006735228903585
5.364238410596027,0.9750264558599698
5.3841059602649,0.9484227848459685
5.403973509933775,0.9208916321029178
5.4238410596026485,0.892463439232671
5.443708609271523,0.8631700150132018
5.463576158940397,0.8330446022930748
5.483443708609272,0.802121970367671
5.503311258278146,0.7704385416840249
5.52317880794702,0.7380325652343319
5.543046357615895,0.7049443541547645
5.562913907284768,0.6712166127395829
5.582781456953643,0.6368948897609907
5.602649006622516,0.6020282130597077
5.622516556291391,0.5666699889242766
5.642384105960264,0.5308792958975858
5.662251655629139,0.4947227789724647
5.682119205298013,0.4582774797716798
5.701986754966887,0.4216351647149313
5.7218543046357615,0.3849091203719326
5.741721854304636,0.3482451397602314
5.7615894039735105,0.3118398615655488
5.781456953642384,0.2759724246979739
5.801324503311259,0.24106086321691458
5.821192052980132,0.2077647629374223
5.841059602649007,0.17717014704674747
5.860927152317881,0.15108835614064683
5.880794701986755,0.13235066327824543
5.900662251655629,0.12441221361966204
5.920529801324503,0.1293125196690046
5.940397350993377,0.1457477148425489
5.960264900662251,0.17036111489940348
5.980132450331126,0.20008156526649115
6.0,0.23286887783496954
6.0198675496688745,0.26749253801327993
6.039735099337749,0.30321040362931406
6.059602649006623,0.3395575504026395
6.079470198675497,0.37622749493076024
6.099337748344371,0.413007054921874
6.119205298013245,0.4497400283624249
6.139072847682119,0.4863063194757445
6.158940397350993,0.5226095343987802
6.178807947019867,0.5585693665335935
6.198675496688741,0.5941167797610075
6.218543046357616,0.6291908780493718
6.23841059602649,0.6637368216990566
6.258278145695365,0.6977044108431983
6.2781456953642385,0.7310471048703238
6.298013245033113,0.7637213330221864
6.317880794701987,0.7956860034244808
6.337748344370861,0.8269021498190984
6.357615894039735,0.8573326754249906
6.377483443708609,0.8869421663186738
6.397350993377484,0.91569675522519
6.417218543046357,0.9435640222847935
6.437086092715232,0.9705129232116791
6.456953642384105,0.9965137379152328
6.47682119205298,1.0215380345102743
6.496688741721854,1.0455586449570478
6.516556291390729,1.0685496495155327
6.5364238410596025,1.090486367882766
6.556291390728477,1.1113453553845856
6.5761589403973515,1.1311044029654764
6.596026490066225,1.1497425399992822
6.6158940397351,1.1672400391542894
6.635761589403973,1.183578422707159
6.655629139072848,1.1987404698237625
6.675496688741721,1.212710224421296
6.695364238410596,1.225473003300995
6.715231788079469,1.2370154043004666
6.735099337748344,1.247325314261744
6.754966887417219,1.2563919166495836
6.774834437086093,1.2642056986852754
6.794701986754967,1.270758457886894
6.814569536423841,1.2760433079280578
6.8344370860927155,1.2800546837455191
6.854304635761589,1.2827883458411202
6.874172185430464,1.284241383737525
6.894039735099337,1.284412218559278
6.913907284768212,1.2833006047220943
6.933774834437086,1.280907630724497
6.95364238410596,1.2772357190457333
6.973509933774834,1.272288625165584
6.993377483443709,1.2660714357322798
7.013245033112583,1.2585905659171184
7.033112582781457,1.2498537560076883
7.052980132450331,1.2398700673068341
7.072847682119205,1.2286498774216759
7.0927152317880795,1.2162048750478212
7.112582781456954,1.202548054377793
7.132450331125828,1.1876937092928836
7.152317880794702,1.1716574275325944
7.172185430463576,1.1544560850808663
7.19205298013245,1.1361078410631489
7.211920529801324,1.116632133517236
7.231788079470198,1.096049676488707
7.251655629139073,1.0743824590133288
7.271523178807947,1.0516537466924076
7.291390728476822,1.0278880867537352
7.311258278145695,1.0031113177343338
7.33112582781457,0.9773505852436434
7.3509933774834435,0.9506343656938918
7.370860927152318,0.9229925004614372
7.390728476821192,0.8944562437253586
7.410596026490066,0.8650583283042663
7.430463576158941,0.8348330553043245
7.450331125827814,0.8038164154864377
7.470198675496689,0.7720462532431498
7.490066225165562,0.7395624883768593
7.509933774834438,0.706407417167914
7.52980132450331,0.6726261235841927
7.549668874172186,0.6382670456448251
7.569536423841059,0.603382763759209
7.589403973509934,0.5680311121109841
7.6092715231788075,0.532276769075842
7.629139072847682,0.4961935727095752
7.649006622516557,0.4598679584979021
7.66887417218543,0.4234041765369401
7.6887417218543055,0.3869324034387836
7.708609271523178,0.3506216897716622
7.728476821192054,0.31470119579785194
7.748344370860927,0.2794959402696669
7.768211920529802,0.2454881795492313
7.788079470198675,0.21342291748964823
7.80794701986755,0.18448064882515777
7.827814569536423,0.16050946131520394
7.847682119205298,0.1441329561813156
7.8675496688741715,0.13815703729302556
7.887417218543046,0.14391080510725143
7.907284768211921,0.1601176413797879
7.927152317880795,0.18398512848964238
7.9470198675496695,0.21287741103714736
7.966887417218543,0.2449309509175399
7.986754966887418,0.2789541385113401
8.006622516556291,0.3141950424525884
8.026490066225167,0.3501671988934235
8.046357615894038,0.386542979892001
8.066225165562914,0.4230915367595876
8.086092715231787,0.4596426650706212
8.105960264900663,0.49606534965489374
8.125827814569536,0.5322546906625119
8.14569536423841,0.5681237169915178
8.165562913907285,0.6035981239477567
8.185430463576159,0.6386128075456065
8.205298013245034,0.6731095313702884
8.225165562913906,0.7070353248339764
8.245033112582782,0.7403413644455916
8.264900662251655,0.7729821806904058
8.28476821192053,0.8049150885756958
8.304635761589404,0.8360997744696794
8.324503311258278,0.8664979938657436
8.344370860927151,0.8960733489870372
8.364238410596027,0.9247911245870091
8.3841059602649,0.9526181666482907
8.403973509933774,0.9795227930163124
8.42384105960265,1.005474728008205
8.443708609271523,1.0304450551478515
8.463576158940398,1.0544061836796563
8.483443708609272,1.0773318255956628
8.503311258278146,1.099196980698381
8.52317880794702,1.11997792780172
8.543046357615895,1.1396522206040134
8.562913907284768,1.1581986870907672
8.582781456953642,1.1755974315703348
8.602649006622515,1.191829838633316
8.62251655629139,1.206878578471
8.642384105960264,1.2207276131008755
8.66225165562914,1.2333622031352174
8.682119205298013,1.244768914798749
8.701986754966887,1.2549356269570016
8.721854304635762,1.2638515379617525
8.741721854304636,1.271507172156698
8.76158940397351,1.2778943859166094
8.781456953642383,1.2830063731181325
8.801324503311259,1.2868376699621442
8.821192052980132,1.2893841590855513
8.841059602649008,1.2906430729172327
8.86092715231788,1.2906129962470505
8.880794701986755,1.2892938679907529
8.90066225165563,1.2866869821470588
8.920529801324504,1.2827949879553786
8.940397350993377,1.2776218892769908
8.960264900662251,1.271173043235434
8.980132450331126,1.2634551581680198
9.0,1.2544762909564788
9.019867549668875,1.2442458438247201
9.039735099337747,1.2327745607133984
9.059602649006623,1.2200745233680834
9.079470198675496,1.2061591473086344
9.099337748344372,1.191043177886383
9.119205298013245,1.174742686682097
9.139072847682119,1.1572750685555973
9.158940397350994,1.1386590397305587
9.178807947019868,1.1189146373881942
9.198675496688743,1.098063221358877
9.218543046357615,1.0761274786478805
9.23841059602649,1.0531314317203242
9.258278145695364,1.0291004517162932
9.27814569536424,1.0040612780886202
9.298013245033111,0.9780420465801644
9.317880794701987,0.9510723280227442
9.33774834437086,0.9231831811996628
9.357615894039736,0.8944072240454105
9.37748344370861,0.8647787288711762
9.397350993377483,0.8343337492670887
9.417218543046358,0.803110289085944
9.437086092715232,0.7711485278246492
9.456953642384107,0.7384911223506169
9.47682119205298,0.705183613140841
9.496688741721854,0.6712749753825785
9.516556291390728,0.6368183736260624
9.536423841059603,0.6018722067657136
9.556291390728477,0.5665015739103646
9.57615894039735,0.5307803612441375
9.596026490066224,0.49479426257865805
9.6158940397351,0.4586452321642086
9.635761589403973,0.42245818079746805
9.655629139072847,0.38639125963460086
9.675496688741722,0.35065199392274027
9.695364238410596,0.3155230955335153
9.715231788079471,0.2814043365612499
9.735099337748345,0.24888042648548836
9.754966887417218,0.21882715194697672
9.774834437086092,0.1925574206422659
9.794701986754967,0.17194715314218287
9.814569536423841,0.159309819595796
9.834437086092716,0.1566466773025974
9.854304635761588,0.16445789121616614
9.874172185430464,0.1813713853991714
9.894039735099337,0.20509386483139955
9.913907284768213,0.23348329463445652
9.933774834437086,0.26495176250937336
9.95364238410596,0.29842305919164414
9.973509933774835,0.33318177502932345
9.993377483443709,0.36874539540706464
10.013245033112582,0.40477860721535625
10.033112582781456,0.4410398117842857
10.052980132450331,0.4773482274648007
10.072847682119205,0.5135634925537244
10.09271523178808,0.5495727967561939
10.112582781456952,0.5852825920934795
10.132450331125828,0.6206131385762736
10.152317880794701,0.6554948407636512
10.172185430463577,0.6898657397196786
10.192052980132452,0.7236697658183354
10.211920529801324,0.7568555024432025
10.2317880794702,0.7893752990647113
10.251655629139073,0.8211846273239181
10.271523178807948,0.8522416087990915
10.29139072847682,0.8825066658160399
10.311258278145695,0.9119422616036277
10.331125827814569,0.940512706098701
10.350993377483444,0.9681840105060009
10.370860927152318,0.994923778410541
10.390728476821192,1.0207011245211968
10.410596026490065,1.0454866144486232
10.43046357615894,1.0692522205867707
10.450331125827816,1.0919712903753709
10.470198675496688,1.1136185241064231
10.490066225165563,1.13416996009292
10.509933774834437,1.1536029655081452
10.529801324503312,1.1718962315734456
10.549668874172186,1.18902977205368
10.56953642384106,1.2049849242353485
10.589403973509933,1.2197443517295203
10.609271523178808,1.2332920485721766
10.629139072847682,1.245613344196899
10.649006622516556,1.2566949089366177
