Frequency (Hz),Amplitude
0.0,0.5450590065770327
0.019801980198019802,0.5447988599440546
0.039603960396039604,0.5440186807260364
0.0594059405940594,0.5427192508061602
0.07920792079207921,0.5409018727934664
0.09900990099009901,0.5385683692357583
0.1188118811881188,0.5357210815329668
0.13861386138613863,0.5323628685661747
0.15841584158415842,0.5284971050636333
0.1782178217821782,0.5241276797304117
0.19801980198019803,0.5192589931756342
0.21782178217821782,0.5138959556790541
0.2376237623762376,0.5080439848484839
0.25742574257425743,0.5017090032310795
0.27722772277227725,0.49489743595544355
0.297029702970297,0.4876162084988898
0.31683168316831684,0.47987274469563934
0.33663366336633666,0.47167496512824086
0.3564356435643564,0.46303128607870647
0.37623762376237624,0.4539506192583844
0.39603960396039606,0.444442372590881
0.4158415841584158,0.4345164523932577
0.43564356435643564,0.42418326739329776
0.45544554455445546,0.41345373514216666
0.4752475247524752,0.40233929154265274
0.495049504950495,0.3908519044284492
0.5148514851485149,0.37900409242026895
0.5346534653465347,0.36680895068067826
0.5544554455445545,0.3542801857353311
0.5742574257425742,0.34143216228926043
0.594059405940594,0.32827996604091964
0.613861386138614,0.3148394880320546
0.6336633663366337,0.30112753829745004
0.6534653465346534,0.28716199985431734
0.6732673267326733,0.27296203896804794
0.6930693069306931,0.25854839507975474
0.7128712871287128,0.2439437853183981
0.7326732673267327,0.22917347674496935
0.7524752475247525,0.21426610886883665
0.7722772277227723,0.1992548974286304
0.7920792079207921,0.18417943213304822
0.8118811881188118,0.16908842198789906
0.8316831683168316,0.15404399013086542
0.8514851485148516,0.13912856480647826
0.8712871287128713,0.1244562134273996
0.891089108910891,0.1101916731746316
0.9108910891089109,0.09658256382415878
0.9306930693069307,0.08401258242390963
0.9504950495049505,0.07307990626385666
0.9702970297029703,0.06467171884720892
0.99009900990099,0.059898168927462976
1.00990099009901,0.05965712710376238
1.0297029702970297,0.06400009362839278
1.0495049504950495,0.07208852118429347
1.0693069306930694,0.08280621535303954
1.0891089108910892,0.09523581804814364
1.108910891089109,0.10875246797706078
1.1287128712871286,0.12295466740667522
1.1485148514851484,0.13758386094667355
1.1683168316831685,0.1524686798144484
1.188118811881188,0.1674909792730447
1.2079207920792079,0.18256576493341967
1.227722772277228,0.19762925671788895
1.2475247524752475,0.2126316491285418
1.2673267326732673,0.2275326106629673
1.2871287128712872,0.24229841422341755
1.3069306930693068,0.2569000624348056
1.3267326732673268,0.2713120350400491
1.3465346534653466,0.2855114346676919
1.3663366336633662,0.2994773935259822
1.3861386138613863,0.3131906546134624
1.405940594059406,0.3266332719253261
1.4257425742574257,0.3397883932462364
1.4455445544554455,0.35264010119386213
1.4653465346534653,0.3651732959573983
1.4851485148514851,0.3773736082810014
1.504950495049505,0.38922733465142284
1.5247524752475248,0.40072138896255965
1.5445544554455446,0.41184326652274006
1.5643564356435644,0.4225810173837435
1.5841584158415842,0.43292322675793043
1.6039603960396038,0.4428590008543301
1.6237623762376237,0.4523779568731336
1.6435643564356437,0.46147021619800643
1.6633663366336633,0.47012640004701706
1.683168316831683,0.4783376270088064
1.7029702970297032,0.48609551201568446
1.7227722772277227,0.49339216640016914
1.7425742574257426,0.5002201987548118
1.7623762376237624,0.5065727163712037
1.782178217821782,0.5124433270784372
1.801980198019802,0.5178261413356819
1.8217821782178218,0.5227157744610551
1.8415841584158414,0.5271073489008105
1.8613861386138615,0.5309964964606331
1.881188118811881,0.5343793604350618
1.900990099009901,0.5372525975829251
1.920792079207921,0.5396133799064189
1.9405940594059405,0.5414593961998349
1.9603960396039604,0.5427888533406683
1.98019801980198,0.5436004773023566
2.0,0.5438935138729478
2.01980198019802,0.5436677290691052
2.0396039603960396,0.5429234092393833
2.0594059405940595,0.5416613608549989
2.0792079207920793,0.5398829099907552
2.099009900990099,0.5375899015029746
2.118811881188119,0.5347846979161174
2.1386138613861387,0.5314701780344195
2.1584158415841586,0.5276497353005958
2.1782178217821784,0.5233272759295625
2.1980198019801978,0.5185072168524756
2.217821782178218,0.513194483514431
2.237623762376238,0.5073945075792987
2.257425742574257,0.5011132246067851
2.2772277227722775,0.4943570717815009
2.297029702970297,0.4871329857914144
2.3168316831683167,0.4794484009750895
2.336633663366337,0.47131124788469786
2.3564356435643563,0.4627299524463363
2.376237623762376,0.45371343594321834
2.3960396039603964,0.4442711161037438
2.4158415841584158,0.4344129096488353
2.4356435643564356,0.4241492367476445
2.455445544554456,0.41349102795454545
2.4752475247524752,0.40244973436400977
2.495049504950495,0.3910373419386675
2.514851485148515,0.37926639126051814
2.5346534653465347,0.3671500043556829
2.5544554455445545,0.3547019207945246
2.5742574257425743,0.3419365460352929
2.594059405940594,0.3288690160581121
2.6138613861386135,0.3155152838740738
2.633663366336634,0.30189223571568835
2.6534653465346536,0.28801784797275554
2.673267326732673,0.27391140078781523
2.6930693069306932,0.25959377156851604
2.712871287128713,0.2450878429896293
2.7326732673267324,0.2304190778258013
2.7524752475247527,0.2156163414186269
2.7722772277227725,0.20071309913382457
2.792079207920792,0.18574919394422446
2.811881188118812,0.17077354198469424
2.8316831683168315,0.15584831469387767
2.8514851485148514,0.1410555828824552
2.8712871287128716,0.12650811529114536
2.891089108910891,0.11236725100672482
2.910891089108911,0.09887263388283486
2.9306930693069306,0.08639034028287955
2.9504950495049505,0.07548237110215272
2.9702970297029703,0.0669722689978686
2.99009900990099,0.06189374077276038
3.00990099009901,0.06112722601260669
3.0297029702970297,0.06482689581578888
3.0495049504950495,0.07229640657786995
3.0693069306930694,0.08249292706081472
3.089108910891089,0.0945047006823046
3.108910891089109,0.1076870322904094
3.128712871287129,0.12161676671952479
3.148514851485148,0.13601838722501622
3.1683168316831685,0.1507084537510272
3.1881188118811883,0.16556045332636876
3.2079207920792077,0.18048359026550956
3.227722772277228,0.19541002073036862
3.2475247524752473,0.21028705255838112
3.267326732673267,0.22507227390418016
3.2871287128712874,0.23973043815141618
3.3069306930693068,0.2542314249946803
3.3267326732673266,0.26854887636496727
3.346534653465347,0.2826592653217409
3.366336633663366,0.296541248859677
3.386138613861386,0.3101752107388031
3.4059405940594063,0.3235429339333581
3.4257425742574257,0.33662736305522806
3.4455445544554455,0.34941243024264557
3.4653465346534653,0.36188292647554904
3.485148514851485,0.37402440584208224
3.504950495049505,0.3858231139965191
3.5247524752475248,0.3972659345703213
3.5445544554455446,0.4083403490350317
3.564356435643564,0.41903440672872644
3.5841584158415842,0.4293367026160449
3.603960396039604,0.43923636096654156
3.6237623762376234,0.4487230235815586
3.6435643564356437,0.4577868415260267
3.6633663366336635,0.46641846956281907
3.683168316831683,0.4746090626677278
3.702970297029703,0.4823502741389479
3.722772277227723,0.4896342549183554
3.7425742574257423,0.49645365382115775
3.762376237623762,0.5028016184319151
3.7821782178217824,0.5086717964724197
3.801980198019802,0.5140583374849346
3.8217821782178216,0.5189558947035255
3.841584158415842,0.5233596270104481
3.8613861386138613,0.5272652008932103
3.881188118811881,0.5306687923338833
3.9009900990099013,0.5335670885746561
3.9207920792079207,0.5359572897143864
3.9405940594059405,0.5378371100998229
3.96039603960396,0.5392047794825425
3.98019801980198,0.5400590439195264
4.0,0.5403991664008299
4.01980198019802,0.540224927193383
4.03960396039604,0.5395366238945335
4.0594059405940595,0.5383350711940623
4.079207920792079,0.5366216003474813
4.099009900990099,0.5343980583687534
4.118811881188119,0.5316668069550446
4.138613861386139,0.5284307211615629
4.158415841584159,0.5246931878505813
4.178217821782178,0.520458103945162
4.198019801980198,0.5157298745258551
4.217821782178218,0.5105134108175303
4.237623762376238,0.5048141281243737
4.257425742574258,0.4986379437835735
4.2772277227722775,0.4919912752239342
4.297029702970297,0.48488103823494055
4.316831683168317,0.4773146455749524
4.336633663366336,0.4693000060775128
4.356435643564357,0.46084552445102933
4.376237623762377,0.4519601020148047
4.3960396039603955,0.4426531386743517
4.415841584158416,0.432934536516325
4.435643564356436,0.42281470550375516
4.455445544554455,0.4123045718840597
4.475247524752476,0.4014155900949407
4.4950495049504955,0.3901597591845046
4.514851485148514,0.3785496450708952
4.534653465346535,0.3665984103868753
4.554455445544555,0.35431985422940293
4.574257425742574,0.34172846493044073
4.594059405940594,0.32883949008016733
4.613861386138614,0.31566902961466226
4.633663366336633,0.30223416005091935
4.653465346534653,0.2885531012594943
4.673267326732674,0.27464544205253233
4.693069306930693,0.26053244820306304
4.712871287128713,0.2462374877097711
4.732673267326733,0.23178662551311188
4.752475247524752,0.21720946737155084
4.772277227722772,0.20254037691611737
4.792079207920793,0.18782026261853954
4.811881188118812,0.17309925281990118
4.8316831683168315,0.15844078251806049
4.851485148514852,0.14392796579221215
4.871287128712871,0.12967371799556635
4.891089108910891,0.1158370376581509
4.910891089108912,0.10264914124375132
4.930693069306931,0.09045388948099975
4.9504950495049505,0.0797628656764846
4.97029702970297,0.07130300523037583
4.99009900990099,0.06597325457474794
5.00990099009901,0.06457253728012957
5.02970297029703,0.06734886275450636
5.0495049504950495,0.0738203623232404
5.069306930693069,0.0831049760514418
5.089108910891089,0.09434427960858582
5.108910891089109,0.10688589355805089
5.128712871287129,0.12028126541609103
5.148514851485149,0.1342300389732748
5.1683168316831685,0.14852912341248908
5.188118811881188,0.1630374931490658
5.207920792079208,0.17765385515890403
5.227722772277227,0.19230278256355782
5.247524752475248,0.2069260673559326
5.267326732673268,0.2214772448095273
5.2871287128712865,0.23591805792704149
5.306930693069307,0.2502161270831271
5.326732673267327,0.2643433828079075
5.346534653465346,0.2782749916462112
5.366336633663367,0.29198860702534246
5.3861386138613865,0.30546383849126135
5.405940594059405,0.3186818703330476
5.425742574257426,0.331625184137398
5.445544554455446,0.34427735478181504
5.465346534653465,0.3566228990684828
5.485148514851486,0.3686471625899581
5.504950495049505,0.38033623469512234
5.524752475247524,0.39167688433351217
5.544554455445545,0.4026565115632403
5.564356435643565,0.4132631109111244
5.584158415841584,0.4234852437679693
5.603960396039604,0.433312017714375
5.623762376237624,0.44273307118871846
5.643564356435643,0.4517385622879826
5.663366336633663,0.4603191607714673
5.683168316831684,0.46846604254715346
5.702970297029703,0.47617088607797003
5.7227722772277225,0.48342587026537004
5.742574257425743,0.4902236734594282
5.762376237623762,0.49655747331595335
5.782178217821782,0.5024209472764875
5.801980198019803,0.5078082734905115
5.821782178217822,0.5127141320336618
5.841584158415841,0.5171337063034126
5.861386138613861,0.5210626844954164
5.881188118811881,0.5244972610819506
5.900990099009901,0.5274341382286492
5.920792079207921,0.5298705270975469
5.9405940594059405,0.5318041489951247
5.96039603960396,0.5332332363324073
5.98019801980198,0.5341565333719622
6.0,0.5345732967431167
6.01980198019802,0.5344832957129051
6.03960396039604,0.533886812205705
6.0594059405940595,0.5327846405699975
6.079207920792079,0.5311780870958192
6.099009900990099,0.5290689692919718
6.118811881188119,0.5264596149374685
6.138613861386139,0.5233528609278227
6.158415841584159,0.5197520519435012
6.178217821782178,0.5156610389751083
6.198019801980198,0.5110841777488174
6.217821782178218,0.5060263271055297
6.237623762376237,0.5004928473990821
6.257425742574258,0.4944895989936405
6.2772277227722775,0.48802294095746646
6.297029702970296,0.48109973007188883
6.316831683168317,0.4737273203009021
6.336633663366337,0.46591356289937447
6.356435643564356,0.4576668073796765
6.376237623762377,0.44899590360847064
6.396039603960396,0.4399102053720591
6.415841584158415,0.4304195758341447
6.435643564356436,0.42053439542001186
6.455445544554456,0.4102655728050549
6.475247524752475,0.39962455987389517
6.495049504950495,0.38862337176650713
6.514851485148515,0.3772746134608992
6.534653465346534,0.36559151479166174
6.554455445544554,0.3535879764154193
6.574257425742575,0.3412786300752219
6.594059405940594,0.3286789176845718
6.6138613861386135,0.31580519539446184
6.633663366336634,0.30267487114320013
6.653465346534653,0.2893065875542317
6.673267326732673,0.2757204669604654
6.693069306930694,0.2619384426057497
6.712871287128713,0.24798471099734412
6.732673267326732,0.23388635703452415
6.752475247524753,0.21967422931099587
6.772277227722772,0.20538418346778167
6.792079207920792,0.19105887591801055
6.811881188118813,0.17675039395620112
6.8316831683168315,0.1625241758880298
6.851485148514851,0.14846494378056535
6.871287128712871,0.13468578884144242
6.891089108910891,0.1213421371910874
6.910891089108911,0.10865292367019999
6.930693069306931,0.0969310394739865
6.9504950495049505,0.08662094135366698
6.97029702970297,0.07832566392355732
6.99009900990099,0.07277044772361461
7.00990099009901,0.07062420156281982
7.02970297029703,0.07219615677339528
7.0495049504950495,0.0772506686127405
7.069306930693069,0.08514976928564832
7.089108910891089,0.09515919405232352
7.108910891089109,0.10665159252038212
7.128712871287128,0.11915916786720154
7.148514851485149,0.1323515181986563
7.1683168316831685,0.14599773408881322
7.188118811881187,0.15993447052883944
7.207920792079208,0.17404344238847766
7.227722772277228,0.18823651628686655
7.247524752475247,0.20244600802663337
7.267326732673268,0.2166183554162985
7.287128712871287,0.2307099464741554
7.306930693069306,0.24468432726470274
7.326732673267327,0.2585103023187176
7.346534653465347,0.2721606209693348
7.366336633663366,0.2856110545120009
7.3861386138613865,0.29883973834816546
7.405940594059406,0.31182669668736757
7.425742574257425,0.32455349496173064
7.445544554455446,0.337002982885296
7.465346534653466,0.3491591027251382
7.485148514851485,0.3610067450799438
7.504950495049505,0.3725316396717396
7.524752475247524,0.3837202722180816
7.544554455445544,0.3945598209193958
7.564356435643565,0.40503810782769417
7.584158415841584,0.4151435615928219
7.603960396039604,0.42486518896587855
7.623762376237624,0.43419255308095045
7.643564356435643,0.4431157570073741
7.663366336633663,0.45162543141343975
7.683168316831684,0.4597127254432839
7.702970297029703,0.46736930010573147
7.7227722772277225,0.4745873236233592
7.742574257425743,0.48135946830521514
7.762376237623762,0.4876789085951526
7.782178217821782,0.4935393200171797
7.801980198019803,0.4989348787934129
7.821782178217822,0.5038602619533209
7.841584158415841,0.508310647786948
7.861386138613862,0.5122817165228412
7.881188118811881,0.5157696511331132
7.900990099009901,0.5187711381868543
7.92079207920792,0.521283368687932
7.9405940594059405,0.5233040388459956
7.96039603960396,0.5248313507401351
7.980198019801979,0.5258640128440883
8.0,0.5264012403898317
8.01980198019802,0.5264427555539407
8.03960396039604,0.5259887874577887
8.05940594059406,0.5250400719791055
8.07920792079208,0.5235978513788523
8.099009900990099,0.5216638737535984
8.118811881188119,0.5192403923304475
8.138613861386139,0.5163301646285728
8.158415841584159,0.512936451519338
8.178217821782178,0.5090630162259291
8.198019801980198,0.5047141233133925
8.217821782178218,0.49989453773213594
8.237623762376238,0.4946095239917415
8.257425742574258,0.48886484555888143
8.277227722772277,0.4826667645934993
8.297029702970297,0.47602204216213634
8.316831683168317,0.4689379390980708
8.336633663366337,0.4614222177155477
8.356435643564357,0.4534831446330172
8.376237623762377,0.4451294950196718
8.396039603960396,0.4363705586551425
8.415841584158416,0.4272161482882383
8.435643564356436,0.417676610904462
8.455445544554456,0.4077628426716168
8.475247524752476,0.3974863085413556
8.495049504950495,0.38685906775813617
8.514851485148515,0.3758938068892538
8.534653465346535,0.36460388247344977
8.554455445544555,0.35300337603694804
8.574257425742575,0.34110716511112105
8.594059405940595,0.3289310151009256
8.613861386138613,0.31649169853678877
8.633663366336634,0.303807150600069
8.653465346534654,0.2908966731493491
8.673267326732672,0.277781204249768
8.693069306930694,0.2644836771192659
8.712871287128714,0.2510295025208456
8.732673267326732,0.23744722359831028
8.752475247524753,0.22376941452396742
8.772277227722773,0.210033928042694
8.792079207920791,0.19628564806133758
8.811881188118813,0.18257898069062023
8.831683168316832,0.16898143258295195
8.85148514851485,0.15557879191525645
8.871287128712872,0.14248264742883404
8.891089108910892,0.1298412075777346
8.91089108910891,0.11785440413132092
8.930693069306932,0.10679342066373824
8.950495049504951,0.09702142295804017
8.97029702970297,0.08900347160863753
8.990099009900991,0.08327834681866773
9.00990099009901,0.08035714288319254
9.029702970297029,0.08055273630855632
9.04950495049505,0.08383857875171996
9.06930693069307,0.08986108782065742
9.089108910891088,0.09809372818173866
9.10891089108911,0.1080018203531722
9.12871287128713,0.11913251553884448
9.148514851485148,0.13113546739541246
9.16831683168317,0.14375007055163763
9.188118811881187,0.15678434434027103
9.207920792079207,0.1700958575639728
9.227722772277229,0.18357720316138318
9.247524752475247,0.1971456604622521
9.267326732673267,0.21073602796153584
9.287128712871288,0.22429568657549404
9.306930693069306,0.23778118762700956
9.326732673267326,0.2511558746127937
9.346534653465348,0.2643882074030037
9.366336633663366,0.2774505673503169
9.386138613861386,0.290318395063409
9.405940594059407,0.302969560988438
9.425742574257425,0.31538390089598106
9.445544554455445,0.32754286959039125
9.465346534653467,0.339429280371761
9.485148514851485,0.35102710739900417
9.504950495049505,0.3623213346831933
9.524752475247526,0.37329783999388355
9.544554455445544,0.38394330514742914
9.564356435643564,0.3942451464008297
9.584158415841586,0.40419146028667935
9.603960396039604,0.41377098138978763
9.623762376237623,0.42297304941598685
9.643564356435645,0.43178758352989105
9.663366336633663,0.44020506240395807
9.683168316831683,0.4482165087703143
9.702970297029704,0.4558134775307554
9.722772277227723,0.46298804668180665
9.742574257425742,0.4697328104660434
9.762376237623764,0.4760408742809935
9.782178217821782,0.48190585096973404
9.801980198019802,0.48732185819120877
9.821782178217823,0.49228351662569064
9.841584158415841,0.4967859488176061
9.861386138613861,0.5008247784945988
9.881188118811881,0.5043961302321442
9.900990099009901,0.5074966293573303
9.92079207920792,0.5101234020058687
9.94059405940594,0.512274075263263
9.96039603960396,0.5139467773353396
9.98019801980198,0.515140137705721
10.0,0.5158532872485332
10.01980198019802,0.5160858582743012
10.03960396039604,0.5158379844958111
10.05940594059406,0.5151103009089734
10.07920792079208,0.5139039435920121
10.099009900990099,0.5122205494341134
10.118811881188119,0.5100622558133756
10.138613861386139,0.5074317002524812
10.158415841584159,0.5043320200905647
10.178217821782178,0.5007668522203418
10.198019801980198,0.496740332952211
10.217821782178218,0.4922570980811601
10.237623762376238,0.48732228324949833
10.257425742574258,0.4819415247182992
10.277227722772277,0.4761209606847893
10.297029702970297,0.4698672333121582
10.316831683168317,0.46318749167413276
10.336633663366337,0.45608939586089925
10.356435643564357,0.4485811225475688
10.376237623762377,0.4406713723947393
10.396039603960396,0.43236937973649303
10.415841584158416,0.4236849251195685
10.435643564356436,0.4146283513951818
10.455445544554454,0.4052105842414551
10.475247524752476,0.39544315822160253
10.495049504950495,0.38533824977780656
10.514851485148514,0.37490871894527494
