Time (s),Filtered Signal
0.0,0.05580082042071908
0.03337004405286344,-0.09528012308344416
0.06674008810572687,-0.2015754729458583
0.10011013215859031,-0.24008897403498144
0.13348017621145375,-0.21972866783885725
0.16685022026431717,-0.1725195179801403
0.20022026431718062,-0.13222519622783419
0.23359030837004408,-0.11323232842736165
0.2669603524229075,-0.10205666620628562
0.3003303964757709,-0.0661996501434958
0.33370044052863435,0.024975008175686736
0.3670704845814978,0.17934902465131933
0.40044052863436125,0.3728789975626606
0.43381057268722467,0.5571794139601292
0.46718061674008815,0.6797427484314962
0.5005506607929515,0.7061732221801799
0.533920704845815,0.6332934869752544
0.5672907488986785,0.48736533980009283
0.6006607929515418,0.30967201309460657
0.6340308370044053,0.13785135635754026
0.6674008810572687,-0.007512029871019431
0.7007709251101322,-0.12556601057118671
0.7341409691629956,-0.22808860084520063
0.767511013215859,-0.32846654641823175
0.8008810572687225,-0.4334197048842757
0.834251101321586,-0.5409479635749622
0.8676211453744493,-0.643356288523092
0.9009911894273128,-0.7313421947802532
0.9343612334801763,-0.7956803166796428
0.9677312775330397,-0.8261307823479116
1.001101321585903,-0.8101883458958378
1.0344713656387665,-0.7348177131501762
1.06784140969163,-0.5920484594533107
1.1012114537444935,-0.38601875953273324
1.134581497797357,-0.13719582903225636
1.1679515418502202,0.11963001340940886
1.2013215859030837,0.3439457061524523
1.2346916299559472,0.5017124055447055
1.2680616740088106,0.5763002987263522
1.3014317180616741,0.573764651137465
1.3348017621145374,0.520406631861277
1.3681718061674009,0.45354654487832435
1.4015418502202643,0.40880044116520226
1.4349118942731278,0.40815849708936947
1.4682819383259913,0.45273148812307007
1.5016519823788548,0.5225061793768934
1.535022026431718,0.5833173748812245
1.5683920704845815,0.5989918410580254
1.601762114537445,0.5447734355941642
1.6351321585903085,0.41731241703638067
1.668502202643172,0.23725232785557301
1.7018722466960352,0.042898822688969156
1.7352422907488987,-0.12306953775056914
1.7686123348017622,-0.228819253113591
1.8019823788546256,-0.264371832222245
1.8353524229074891,-0.24389077794692857
1.8687224669603526,-0.1984856116325647
1.9020925110132159,-0.16290864725648246
1.9354625550660793,-0.16203675897169506
1.9688325991189428,-0.20274544564242494
2.002202643171806,-0.27394097827628067
2.0355726872246698,-0.35363029616237446
2.068942731277533,-0.4189367761622192
2.1023127753303967,-0.45428574942838806
2.13568281938326,-0.4546836500967021
2.1690528634361232,-0.4239498258677851
2.202422907488987,-0.37024651910938144
2.23579295154185,-0.302029472352184
2.269162995594714,-0.22642044554086996
2.302533039647577,-0.14988067282881573
2.3359030837004404,-0.0793513597148973
2.369273127753304,-0.021820733277607914
2.4026431718061674,0.01829526989380679
2.436013215859031,0.04247398590186533
2.4693832599118943,0.059369058565772494
2.5027533039647576,0.0819953637697015
2.5361233480176213,0.12121754393526883
2.5694933920704845,0.17871772920485457
2.6028634361233483,0.24377873991999252
2.6362334801762115,0.2967027326227192
2.6696035242290748,0.31812108504602954
2.7029735682819385,0.2998465216487769
2.7363436123348017,0.2514117780810176
2.7697136563876654,0.19803031722181338
2.8030837004405287,0.1697607430175
2.8364537444933924,0.18625855833411453
2.8698237885462556,0.24440070373012207
2.903193832599119,0.3156397660915456
2.9365638766519826,0.3559590069165797
2.969933920704846,0.32525452717191905
3.0033039647577096,0.20768686937651767
3.036674008810573,0.02294238188057666
3.070044052863436,-0.17818709423202844
3.1034140969162998,-0.33321635738748473
3.136784140969163,-0.3941525469001683
3.1701541850220267,-0.34846618828501597
3.20352422907489,-0.224967975200722
3.2368942731277532,-0.08168741459809019
3.270264317180617,0.018825697593000557
3.30363436123348,0.03572378640836376
3.337004405286344,-0.03387092247851239
3.370374449339207,-0.1553072999238877
3.4037444933920704,-0.27278145417590743
3.437114537444934,-0.3339722842979172
3.4704845814977974,-0.31196378623381027
3.503854625550661,-0.21509669120288635
3.5372246696035243,-0.08104184153717059
3.5705947136563876,0.041554818075379425
3.6039647577092513,0.11519218153790987
3.6373348017621145,0.12941178284068772
3.6707048458149782,0.10356958852655412
3.7040748898678415,0.07560198083076271
3.737444933920705,0.08221511764585683
3.7708149779735685,0.13976816942968429
3.8041850220264317,0.23478803601554807
3.8375550660792954,0.3286713558634178
3.8709251101321587,0.37465647336531327
3.9042951541850224,0.33948363923813485
3.9376651982378856,0.2198252126137339
3.971035242290749,0.0456375506367486
4.004405286343612,-0.13169770022866373
4.037775330396476,-0.26155727658565636
4.0711453744493395,-0.31650397973526634
4.104515418502203,-0.30414879523767574
4.137885462555066,-0.2621757157031793
4.171255506607929,-0.23828171058052916
4.2046255506607935,-0.2644886333028086
4.237995594713657,-0.338643440554224
4.27136563876652,-0.4228789162062866
4.304735682819383,-0.46058225172397665
4.3381057268722465,-0.4040867063063517
4.371475770925111,-0.23969007700883393
4.404845814977974,0.002334254441659644
4.438215859030837,0.25787553284350845
4.4715859030837,0.45478933318660036
4.504955947136564,0.5426219528068708
4.538325991189428,0.5129929623722368
4.571696035242291,0.4019806570611869
4.605066079295154,0.27406513534722476
4.638436123348018,0.19506552462041865
4.671806167400881,0.205672712039747
4.705176211453745,0.3061982910953538
4.738546255506608,0.4579168676205751
4.7719162995594715,0.5993985349322479
4.805286343612335,0.6704574023274553
4.838656387665198,0.6339492941640252
4.872026431718062,0.4872959935656962
4.905396475770925,0.2603431547646489
4.938766519823789,0.0018742102213923713
4.972136563876652,-0.23860513524647933
5.005506607929515,-0.42606690621635457
5.038876651982379,-0.5467285295822272
5.072246696035243,-0.6054468140762771
5.105616740088106,-0.6171413505967398
5.138986784140969,-0.5977853264697754
5.172356828193832,-0.5595879918201865
5.2057268722466965,-0.5117714840091989
5.23909691629956,-0.4646678065835632
5.272466960352423,-0.432741236308534
5.305837004405286,-0.43276963488337145
5.3392070484581495,-0.47654576284626715
5.372577092511014,-0.561413767385328
5.405947136563877,-0.6644074139270285
5.43931718061674,-0.7449793134412881
5.4726872246696034,-0.7572830447888709
5.506057268722468,-0.6676211086943538
5.539427312775331,-0.46899166591209596
5.572797356828194,-0.18506362519110425
5.606167400881057,0.1393107343305806
5.639537444933921,0.4570103614803278
5.672907488986785,0.7376047497203937
5.706277533039648,0.9763656638629477
5.739647577092511,1.18818661857237
5.7730176211453745,1.3892854925341747
5.806387665198238,1.5765730145765182
5.839757709251102,1.7166810247965545
5.873127753303965,1.7523982992060416
5.9064977973568284,1.6255197498159986
5.939867841409692,1.3062430255988327
5.973237885462555,0.8149431380622912
6.006607929515419,0.2249439945650566
6.039977973568282,-0.3564134467545613
6.073348017621146,-0.8210047957858506
6.106718061674009,-1.0937949403259755
6.140088105726872,-1.154209310103742
6.173458149779736,-1.0381747688254241
6.2068281938325995,-0.8221991974650424
6.240198237885463,-0.5968973651093774
6.273568281938326,-0.4393764706887111
6.306938325991189,-0.39248870000251285
6.3403083700440535,-0.4558791579284777
6.373678414096917,-0.5903299020029392
6.40704845814978,-0.7335718622473099
6.440418502202643,-0.8226576735622976
6.4737885462555065,-0.8157327119353418
6.507158590308371,-0.7056659280009699
6.540528634361234,-0.5203737081661693
6.573898678414097,-0.309574508117875
6.60726872246696,-0.12343741347159534
6.640638766519824,0.007549813427158069
6.674008810572688,0.08244065482381766
6.707378854625551,0.12513623338718263
6.740748898678414,0.16801093583881072
6.774118942731278,0.23261806717919248
6.807488986784141,0.317677572494171
6.840859030837005,0.4006603232784954
6.874229074889868,0.45202022673460224
6.9075991189427315,0.4542533075325263
6.940969162995595,0.4151071678915882
6.974339207048458,0.3670392194621118
7.007709251101322,0.35214890519383873
7.041079295154185,0.3996724647998955
7.074449339207049,0.5075764499366657
7.107819383259912,0.6383159394086634
7.141189427312775,0.7319990064737526
7.174559471365639,0.7314645633133018
7.207929515418503,0.6076812312117783
7.241299559471366,0.37360049211495405
7.274669603524229,0.08022946298654741
7.308039647577092,-0.20281397147576127
7.3414096916299565,-0.4130586741551043
7.37477973568282,-0.5160045396743586
7.408149779735683,-0.5131778429303058
7.441519823788546,-0.4361385998362681
7.47488986784141,-0.33122126102036653
7.508259911894274,-0.24248978075646527
7.541629955947137,-0.1991116941325364
7.575,-0.20974902191921824
7.608370044052863,-0.2631874577205162
7.641740088105728,-0.33301461865256443
7.675110132158591,-0.38466837521867303
7.708480176211454,-0.38418502936827015
7.741850220264317,-0.3080261864309997
7.775220264317181,-0.15217435558352188
7.808590308370045,0.06266292745995085
7.841960352422908,0.292918640858799
7.875330396475771,0.48229043187429504
7.9087004405286345,0.5780081337168901
7.942070484581498,0.548116076030462
7.975440528634362,0.39347991155368295
8.008810572687224,0.14964896699308655
8.042180616740088,-0.12270307895278433
8.075550660792953,-0.3556913069890898
8.108920704845815,-0.4941828244602962
8.142290748898679,-0.5108309611272023
8.175660792951541,-0.41137598201091274
8.209030837004406,-0.2294009082752069
8.24240088105727,-0.01372214110379696
8.275770925110132,0.18613821292133356
8.309140969162996,0.33126164324258356
8.342511013215859,0.3987953054776105
8.375881057268723,0.38218258553278917
8.409251101321587,0.28890943944138286
8.44262114537445,0.13834778004356302
8.475991189427313,-0.039847434975366
8.509361233480176,-0.2086179388647265
8.54273127753304,-0.32989814740546114
8.576101321585904,-0.3746158591564632
8.609471365638766,-0.33305924685249466
8.64284140969163,-0.22041650156351467
8.676211453744493,-0.07351527241546543
8.709581497797357,0.061174092511866944
8.742951541850221,0.14369680285927253
8.776321585903084,0.1540945183448123
8.809691629955948,0.09766734643945986
8.84306167400881,0.0005096740238774719
8.876431718061674,-0.10172953650594266
8.909801762114538,-0.17638235755383888
8.9431718061674,-0.20258499141866712
8.976541850220265,-0.174155857808116
9.009911894273127,-0.09747943644976297
9.043281938325991,0.012900018117552804
9.076651982378856,0.1385720644650852
9.110022026431718,0.2605599404777893
9.143392070484582,0.3620111292396739
9.176762114537445,0.43075409491804767
9.210132158590309,0.46137510731087233
9.243502202643173,0.45577960032967085
9.276872246696035,0.4214828451148585
9.3102422907489,0.36804418784586757
9.343612334801762,0.30324045621000684
9.376982378854626,0.23085426114198915
9.41035242290749,0.1510934036171342
9.443722466960352,0.06321293827953285
9.477092511013216,-0.03123803766501767
9.510462555066079,-0.12638026964929255
9.543832599118943,-0.21235660977105553
9.577202643171807,-0.2780858757126113
9.61057268722467,-0.3152884538556891
9.643942731277534,-0.3219922106957864
9.677312775330396,-0.3038678276748751
9.71068281938326,-0.2727239019219046
9.744052863436124,-0.2428848609280581
9.777422907488987,-0.22716716281443894
9.81079295154185,-0.23408550115919086
9.844162995594713,-0.2668148846223995
9.877533039647577,-0.3231584743501179
9.910903083700441,-0.39534508501137783
9.944273127753304,-0.46927544629141194
9.977643171806168,-0.5242595334470931
10.01101321585903,-0.5351852848044801
10.044383259911895,-0.47849967324836645
10.077753303964759,-0.34131037955723675
10.111123348017621,-0.13033306159975014
10.144493392070485,0.12405750954575029
10.177863436123348,0.3724518754248763
10.211233480176212,0.5600440411380158
10.244603524229076,0.6451810027359085
10.277973568281938,0.6155715224802552
10.311343612334802,0.4948716008431705
10.344713656387665,0.33580782642946766
10.378083700440529,0.20157474409532689
10.411453744493393,0.14249000248146493
10.444823788546255,0.1773361068381245
10.47819383259912,0.2871501218794447
10.511563876651982,0.4240229816980532
10.544933920704846,0.5310386487867138
10.57830396475771,0.5647749434999862
10.611674008810573,0.5109707410005631
10.645044052863437,0.3873495276721881
10.678414096916299,0.23348263349632142
10.711784140969163,0.09313487730013387
10.745154185022027,-0.0027963440894676335
10.77852422907489,-0.04586903376506026
10.811894273127754,-0.049496114621938724
10.845264317180618,-0.04022375242815755
10.87863436123348,-0.04600863721378172
10.912004405286345,-0.08677060238308879
10.945374449339207,-0.17021303570886162
10.978744493392071,-0.2927743831673139
11.012114537444935,-0.44332520734416875
11.045484581497798,-0.6067977031380313
11.078854625550662,-0.7661254549988772
11.112224669603524,-0.9026477516537978
11.145594713656388,-0.9963603689975526
11.178964757709252,-1.0274931211481348
11.212334801762115,-0.9800259919455547
11.245704845814979,-0.8465259434002885
11.279074889867841,-0.6326932181257721
11.312444933920705,-0.35959566431107554
11.34581497797357,-0.06187607241292063
11.379185022026432,0.21873080314715135
11.412555066079296,0.4435637419634822
11.445925110132158,0.5880448103566084
11.479295154185023,0.6495352533307792
11.512665198237887,0.6484117068365148
11.546035242290749,0.6209397893651024
11.579405286343613,0.6058696400612499
11.612775330396476,0.6296501862202484
11.64614537444934,0.6961611656137048
11.679515418502204,0.7851844025382502
11.712885462555066,0.860178293764927
11.74625550660793,0.8820619263776633
11.779625550660793,0.8234974613371854
11.812995594713657,0.678443067637228
11.846365638766521,0.4640507303649205
11.879735682819383,0.21496727485310096
11.913105726872248,-0.0275133228347103
11.94647577092511,-0.22778123528730598
11.979845814977974,-0.36593131421800124
12.013215859030838,-0.4423844020011989
12.0465859030837,-0.47550611043291774
12.079955947136565,-0.49286106973788885
12.113325991189427,-0.5192616138537203
12.146696035242291,-0.5664588331345074
12.180066079295155,-0.6289751198116248
12.213436123348018,-0.6878702864210459
12.246806167400882,-0.7203224267787659
12.280176211453744,-0.7099610280213938
12.313546255506608,-0.6527455284957857
12.346916299559473,-0.5560116066198768
12.380286343612335,-0.4323707756164148
12.413656387665199,-0.2928973569372258
12.447026431718061,-0.14383306393669615
12.480396475770926,0.011760939416596932
12.51376651982379,0.16936716281981326
12.547136563876652,0.31914472888592227
12.580506607929516,0.4458451541113724
12.613876651982379,0.5330000864296791
12.647246696035243,0.5692664431172856
12.680616740088107,0.5536033529115529
12.71398678414097,0.4966031299353655
12.747356828193833,0.4172420922803379
12.780726872246696,0.3364681435139302
12.81409691629956,0.270390872379185
12.847466960352424,0.2258599029154709
12.880837004405286,0.19999183864391504
12.91420704845815,0.1833418552278412
12.947577092511013,0.16480904288290538
12.980947136563877,0.13582823476893366
13.014317180616741,0.09221627836517479
13.047687224669604,0.03368747754939252
13.081057268722468,-0.03756565592264324
13.11442731277533,-0.1176666879671
13.147797356828194,-0.20078272568857952
13.181167400881058,-0.27878649920464105
13.21453744493392,-0.3423486157443423
13.247907488986785,-0.38393953938287817
13.281277533039647,-0.4013722409725925
13.314647577092511,-0.3993131331203249
13.348017621145376,-0.38681804704166817
13.381387665198238,-0.3713557573010361
13.414757709251102,-0.3525313247796881
13.448127753303964,-0.31984076108796566
13.481497797356829,-0.25709864482956
13.514867841409693,-0.15227984542245687
13.548237885462555,-0.007654524799368623
13.58160792951542,0.15613498017241215
13.614977973568282,0.3057833528876105
13.648348017621146,0.4091949811110819
13.68171806167401,0.450816495453906
13.715088105726872,0.4400454266591955
13.748458149779736,0.4073660319879166
13.781828193832599,0.3891873295815399
13.815198237885463,0.4085533173157882
13.848568281938327,0.4615182275806885
13.88193832599119,0.5165187406629943
13.915308370044054,0.5277523404350436
13.948678414096916,0.45662979061682163
13.98204845814978,0.2913291817635149
14.015418502202644,0.05530768905044041
14.048788546255507,-0.19922323407585585
14.08215859030837,-0.410061079316752
14.115528634361233,-0.5280744621435518
14.148898678414097,-0.5352919426236827
14.182268722466961,-0.45130104971801427
14.215638766519824,-0.3260408973389565
14.249008810572688,-0.2219403198367336
14.28237885462555,-0.19167811740722912
14.315748898678414,-0.2589564047040357
14.349118942731279,-0.40863832118794124
14.382488986784141,-0.5898271103349058
14.415859030837005,-0.7315698679637468
14.449229074889868,-0.7667054148537034
14.482599118942732,-0.6560980208373044
14.515969162995596,-0.4044398048442711
14.549339207048458,-0.06096848081102961
14.582709251101322,0.2962561549023615
14.616079295154185,0.5871460146958901
14.649449339207049,0.7568915873594851
14.682819383259913,0.7924495342967565
14.716189427312775,0.7215030063461263
14.74955947136564,0.5953137097651032
14.782929515418502,0.46442752153096606
14.816299559471366,0.35910598587553194
14.84966960352423,0.28305723338529754
14.883039647577093,0.2214522367611631
14.916409691629957,0.1566564421832462
14.94977973568282,0.08175310919508923
14.983149779735683,0.004383863798840093
15.016519823788547,-0.06011012840915983
15.04988986784141,-0.10077345574388072
15.083259911894274,-0.1200855741172586
15.116629955947138,-0.13398116790734704
15.15,-0.16256724149670912
15.183370044052865,-0.21696813985891641
15.216740088105727,-0.2901618938790106
15.250110132158591,-0.35755114573381164
15.283480176211455,-0.387643609942017
15.316850220264318,-0.3576496168003817
15.350220264317182,-0.26606360996669043
15.383590308370044,-0.13572561311840126
15.416960352422908,-0.005525773123885241
15.450330396475772,0.08566882077952387
15.483700440528635,0.11572381193138602
15.517070484581499,0.08919376481306522
15.550440528634361,0.03605061983943449
15.583810572687225,-0.0006097089058513875
15.61718061674009,0.016877426940645677
15.650550660792952,0.10342485544323549
15.683920704845816,0.24246359879580198
15.717290748898678,0.3900085587310039
15.750660792951543,0.4905718707195403
15.784030837004407,0.49885257903185604
15.817400881057269,0.39835924130469774
15.850770925110133,0.20914659536183688
15.884140969162996,-0.018649095264309388
15.91751101321586,-0.2228350459872959
15.950881057268724,-0.3514057756540893
15.984251101321586,-0.3802344786060754
16.01762114537445,-0.31967899048221565
16.050991189427315,-0.20824599859926823
16.084361233480177,-0.09649341182048324
16.11773127753304,-0.027813085625234473
16.151101321585905,-0.023499012578420925
16.184471365638768,-0.07745928434466118
16.21784140969163,-0.16191972718277908
16.251211453744492,-0.24105995342704817
16.284581497797358,-0.2864860944306601
16.31795154185022,-0.288003108235976
16.351321585903083,-0.25542201515811136
16.38469162995595,-0.2111217270954805
16.41806167400881,-0.17712915765265844
16.451431718061674,-0.162911374422841
16.48480176211454,-0.159783617685863
16.518171806167402,-0.14478429334869733
16.551541850220264,-0.09229334685201104
16.584911894273127,0.012265258782867432
16.618281938325993,0.16351596721745432
16.651651982378855,0.3365925353297253
16.685022026431717,0.4967781998616612
16.718392070484583,0.613406275491669
16.751762114537446,0.6709774023193336
16.785132158590308,0.6721153848189254
16.818502202643174,0.6315263735883413
16.851872246696036,0.5650204630315485
16.8852422907489,0.48018967409887287
16.91861233480176,0.37414482949833583
16.951982378854627,0.23950928058325638
16.98535242290749,0.07499808753219778
17.01872246696035,-0.10594567631097777
17.052092511013218,-0.27424591578630186
17.08546255506608,-0.3938042565276692
17.118832599118942,-0.43623156219737774
17.152202643171808,-0.39470637790624835
17.18557268722467,-0.28989491239469584
17.218942731277533,-0.16441509667496695
17.2523127753304,-0.06771772476258753
17.28568281938326,-0.037815480976493766
