Frequency (Hz),Amplitude
0.0,3.366238910619506
0.019867549668874173,3.3647346289927844
0.039735099337748346,3.3602237425887083
0.059602649006622516,3.35271212924669
0.07947019867549669,3.342209593478711
0.09933774834437085,3.3287298789062327
0.11920529801324503,3.3122906862144994
0.13907284768211922,3.2929136971846265
0.15894039735099338,3.270624605551082
0.17880794701986755,3.2454531556397463
0.1986754966887417,3.2174331899780166
0.2185430463576159,3.18660270733898
0.23841059602649006,3.1530039329971062
0.2582781456953642,3.1166834033423827
0.27814569536423844,3.0776920674377846
0.2980132450331126,3.0360854086256253
0.31788079470198677,2.991923589912353
0.33774834437086093,2.945271627611395
0.3576158940397351,2.8961995986291535
0.3774834437086093,2.8447828878757933
0.3973509933774834,2.791102483613036
0.4172185430463576,2.7352453301691133
0.4370860927152318,2.67730474942081
0.45695364238410596,2.617380944839413
0.4768211920529801,2.5555816048137188
0.49668874172185434,2.4920226255012956
0.5165562913907285,2.4268289777345506
0.5364238410596026,2.3601357476393856
0.5562913907284769,2.2920893867169023
0.5761589403973509,2.2228492142579657
0.5960264900662252,2.152589223071658
0.6158940397350993,2.0815002483839473
0.6357615894039735,2.0097925688141896
0.6556291390728477,1.9376990163414782
0.6754966887417219,1.8654786768366525
0.695364238410596,1.7934212599996067
0.7152317880794702,1.7218522005612225
0.7350993377483444,1.6511385103162337
0.7549668874172186,1.5816953158649993
0.7748344370860927,1.5139928650236314
0.7947019867549668,1.4485635326606436
0.8145695364238411,1.3860079666069882
0.8344370860927152,1.326998957219099
0.8543046357615894,1.2722809006168914
0.8741721854304636,1.2226619622466675
0.8940397350993378,1.1789955155943799
0.9139072847682119,1.1421476460265776
0.9337748344370861,1.112949155882685
0.9536423841059603,1.092134095737177
0.9735099337748344,1.0802720628332616
0.9933774834437087,1.077706602477664
1.0132450331125828,1.084514109169777
1.033112582781457,1.100494283535034
1.0529801324503312,1.1251948649238865
1.0728476821192052,1.1579637053151988
1.0927152317880795,1.1980148904019465
1.1125827814569538,1.244494875203457
1.1324503311258278,1.2965384156562534
1.1523178807947019,1.3533095409921274
1.1721854304635762,1.4140274137494961
1.1920529801324504,1.4779796059585582
1.2119205298013245,1.5445262331196037
1.2317880794701985,1.6130981862793168
1.2516556291390728,1.6831920168420125
1.271523178807947,1.7543632655574566
1.2913907284768211,1.8262193786250955
1.3112582781456954,1.8984128744142903
1.3311258278145695,1.9706351011737184
1.3509933774834437,2.042610723821332
1.370860927152318,2.114092960019897
1.390728476821192,2.1848595228065237
1.410596026490066,2.2547091979082845
1.4304635761589404,2.323458974414173
1.4503311258278146,2.39094164873287
1.4701986754966887,2.457003828314372
1.4900662251655628,2.5215042702959485
1.5099337748344372,2.584312499307349
1.5298013245033113,2.645307657244296
1.5496688741721854,2.7043775454941246
1.5695364238410596,2.7614178267476657
1.5894039735099337,2.816331359176887
1.609271523178808,2.869027640486812
1.6291390728476822,2.9194223432766058
1.6490066225165563,2.967436926387651
1.6688741721854303,3.0129983095847868
1.6887417218543048,3.0560386011106617
1.7086092715231789,3.0964948694541357
1.728476821192053,3.134308952154292
1.7483443708609272,3.169427295680662
1.7682119205298013,3.2018008214345293
1.7880794701986755,3.231384813747901
1.8079470198675496,3.258138826446028
1.8278145695364238,3.282026605113859
1.847682119205298,3.3030160226878627
1.8675496688741722,3.321079026399545
1.8874172185430464,3.336191594440628
1.9072847682119205,3.348333701013124
1.9271523178807946,3.3574892886821557
1.9470198675496688,3.363646247170763
1.9668874172185429,3.36679639793397
1.9867549668874174,3.3669354840279273
2.0066225165562916,3.364063164954883
2.0264900662251657,3.3581830163216235
2.0463576158940397,3.34930253430034
2.066225165562914,3.337433145033001
2.086092715231788,3.322590219275876
2.1059602649006623,3.3047930927446023
2.1258278145695364,3.284065092797525
2.1456953642384105,3.2604335722898377
2.165562913907285,3.2339299516505635
2.185430463576159,3.2045897704843465
2.205298013245033,3.1724527502894384
2.2251655629139075,3.137562870220987
2.2450331125827816,3.0999684582272033
2.2649006622516556,3.0597223003590277
2.2847682119205297,3.0168817716187455
2.3046357615894038,2.971508992391723
2.324503311258278,2.9236710153229426
2.3443708609271523,2.8734400484902083
2.364238410596027,2.8208937219259105
2.384105960264901,2.7661154060002833
2.403973509933775,2.7091945919572162
2.423841059602649,2.6502273470621716
2.443708609271523,2.589316859464685
2.463576158940397,2.526574091095306
2.4834437086092715,2.4621185608227467
2.5033112582781456,2.3960792848152517
2.52317880794702,2.328595906705993
2.543046357615894,2.2598200568593034
2.562913907284768,2.189916987819562
2.5827814569536423,2.119067541813703
2.6026490066225163,2.047470515636067
2.622516556291391,1.9753454975767282
2.642384105960265,1.9029362586637788
2.662251655629139,1.8305147834306843
2.6821192052980134,1.7583860185467846
2.7019867549668874,1.686893392377555
2.7218543046357615,1.6164251011527953
2.741721854304636,1.5474210470806904
2.76158940397351,1.480380120893468
2.781456953642384,1.4158672082844392
2.801324503311258,1.3545188275311073
2.821192052980132,1.297045654123369
2.8410596026490067,1.2442293990305668
2.8609271523178808,1.1969107555262757
2.8807947019867552,1.1559648086904513
2.9006622516556293,1.1222610515443363
2.9205298013245033,1.0966076866539538
2.9403973509933774,1.0796844849165568
2.9602649006622515,1.0719741952047
2.9801324503311255,1.0737068469703028
3.0,1.0848311312532806
3.0198675496688745,1.1050209343729684
3.0397350993377485,1.1337151337046427
3.0596026490066226,1.170179728956086
3.0794701986754967,1.2135773903392333
3.0993377483443707,1.2630312943054869
3.119205298013245,1.317675331819459
3.1390728476821192,1.3766882956869553
3.1589403973509933,1.4393135275800815
3.1788079470198674,1.5048673227647096
3.198675496688742,1.5727396664898272
3.218543046357616,1.6423903373790476
3.23841059602649,1.7133426158226883
3.2582781456953644,1.7851760849800056
3.2781456953642385,1.8575194253942937
3.2980132450331126,1.9300436938231087
3.3178807947019866,2.0024563121746297
3.3377483443708607,2.0744958335108437
3.3576158940397347,2.1459274638740506
3.3774834437086096,2.216539274932275
3.3973509933774837,2.286139025101429
3.4172185430463577,2.354551504254498
3.437086092715232,2.4216163222066136
3.456953642384106,2.4871860696444945
3.47682119205298,2.551124789670836
3.4966887417218544,2.6133067074056444
3.5165562913907285,2.673615173527621
3.5364238410596025,2.7319417850261156
3.556291390728477,2.788185652741056
3.576158940397351,2.842252790566995
3.596026490066225,2.8940556056050637
3.615894039735099,2.9435124721867845
3.6357615894039736,2.990547375689046
3.6556291390728477,3.035089614518782
3.6754966887417218,3.0770735506625466
3.695364238410596,3.1164384008513184
3.7152317880794703,3.1531280617501185
3.7350993377483444,3.1870909637005687
3.754966887417219,3.2182799484671603
3.774834437086093,3.2466521672015434
3.794701986754967,3.272168995473157
3.814569536423841,3.2947959627434593
3.834437086092715,3.314502694104694
3.854304635761589,3.3312628624786313
3.8741721854304636,3.3450541497889463
3.8940397350993377,3.355858215894686
3.9139072847682117,3.3636606743095077
3.9337748344370858,3.368451073940486
3.9536423841059607,3.3702228862675896
3.9735099337748347,3.3689734975555767
3.993377483443709,3.3647042058498786
4.013245033112583,3.3574202226603678
4.033112582781457,3.3471306793875155
4.052980132450331,3.33384863869692
4.072847682119205,3.3175911112060548
4.0927152317880795,3.2983790780150715
4.112582781456953,3.2762375197968616
4.132450331125828,3.251195453365439
4.152317880794702,3.2232859768730595
4.172185430463576,3.1925463250517163
4.19205298013245,3.1590179362238047
4.211920529801325,3.122746533169318
4.231788079470199,3.0837822203666616
4.251655629139073,3.042179600636597
4.271523178807947,2.9979979148328324
4.291390728476821,2.9513012089630926
4.311258278145695,2.90215853401986
4.33112582781457,2.850644184886426
4.3509933774834435,2.7968379860068726
4.370860927152318,2.7408256331219705
4.390728476821192,2.682699102343905
4.410596026490066,2.6225571402530488
4.43046357615894,2.5605058516451313
4.450331125827815,2.496659405153273
4.470198675496689,2.4311408813443998
4.490066225165563,2.3640832931863938
4.509933774834438,2.2956308151400022
4.529801324503311,2.2259402646621327
4.549668874172186,2.1551828886531412
4.569536423841059,2.083546517215134
4.589403973509934,2.0112381575695553
4.6092715231788075,1.9384871110884565
4.629139072847682,1.865548704092764
4.649006622516556,1.7927087246249944
4.66887417218543,1.7202886463040987
4.688741721854305,1.6486516857825748
4.708609271523179,1.5782096650200854
4.728476821192054,1.5094305076435335
4.748344370860927,1.4428459539971386
4.768211920529802,1.3790586879454694
4.788079470198675,1.3187474891443391
4.80794701986755,1.262668249641426
4.827814569536423,1.2116478088740703
4.847682119205298,1.1665668371661142
4.867549668874172,1.1283279791072331
4.887417218543046,1.097806945432963
4.9072847682119205,1.0757879207244958
4.927152317880794,1.0628904117823894
4.947019867549669,1.0595007269385848
4.966887417218543,1.0657243090203044
4.986754966887418,1.0813720850566764
5.006622516556291,1.1059848588530263
5.026490066225166,1.1388886212265197
5.04635761589404,1.1792660215121047
5.066225165562914,1.226228132657009
5.086092715231788,1.2788749341358079
5.105960264900662,1.3363392043298767
5.125827814569536,1.3978137654008027
5.14569536423841,1.462565021560144
5.1655629139072845,1.5299366879862608
5.185430463576159,1.5993473114892767
5.205298013245033,1.670284371169085
5.225165562913908,1.7422968771878302
5.245033112582782,1.8149876648006087
5.264900662251656,1.8880060592264014
5.28476821192053,1.9610412428300565
5.304635761589404,2.033816445551757
5.324503311258278,2.1060839601688843
5.344370860927152,2.177620922709026
5.364238410596027,2.2482257719835004
5.3841059602649,2.3177152956478357
5.403973509933775,2.3859221740331824
5.4238410596026485,2.4526929416643415
5.443708609271523,2.5178862967333493
5.463576158940397,2.5813716991522866
5.483443708609272,2.6430282073448423
5.503311258278146,2.7027435123260872
5.52317880794702,2.760413134796713
5.543046357615895,2.815939757009699
5.562913907284768,2.8692326661778624
5.582781456953643,2.9202072903230536
5.602649006622516,2.968784810859383
5.622516556291391,3.0148918389802937
5.642384105960264,3.0584601451909803
5.662251655629139,3.099426433186103
5.682119205298013,3.137732150794194
5.701986754966887,3.173323331958444
5.7218543046357615,3.206150464749554
5.741721854304636,3.2361683812524196
5.7615894039735105,3.2633361658685196
5.781456953642384,3.2876170791573793
5.801324503311259,3.3089784948265226
5.821192052980132,3.3273918478867643
5.841059602649007,3.3428325923353763
5.860927152317881,3.355280167023399
5.880794701986755,3.3647179686174704
5.900662251655629,3.3711333307878815
5.920529801324503,3.374517508950585
5.940397350993377,3.3748656700680493
5.960264900662251,3.3721768871768494
5.980132450331126,3.366454138463763
6.0,3.3577043108611795
6.0198675496688745,3.3459382082810962
6.039735099337749,3.3311705647588106
6.059602649006623,3.3134200629376656
6.079470198675497,3.2927093584978007
6.099337748344371,3.2690651113227305
6.119205298013245,3.2425180244101153
6.139072847682119,3.21310289177776
6.158940397350993,3.180858656897209
6.178807947019867,3.1458284835182955
6.198675496688741,3.108059841137584
6.218543046357616,3.067604607828597
6.23841059602649,3.0245191937077007
6.258278145695365,2.9788646889798196
6.2781456953642385,2.9307070413191774
6.298013245033113,2.880117268325109
6.317880794701987,2.827171711993838
6.337748344370861,2.7719523436146
6.357615894039735,2.7145471292966232
6.377483443708609,2.6550504685390166
6.397350993377484,2.593563720965143
6.417218543046357,2.5301958396692528
6.437086092715232,2.465064133702587
6.456953642384105,2.398295187213424
6.47682119205298,2.3300259688215585
6.496688741721854,2.260405172122347
6.516556291390729,2.189594836919673
6.5364238410596025,2.1177723109312137
6.556291390728477,2.045132623145166
6.5761589403973515,1.9718913521928056
6.596026490066225,1.8982880847687675
6.6158940397351,1.824590567731043
6.635761589403973,1.7510996583191352
6.655629139072848,1.678155161647234
6.675496688741721,1.6061425993761007
6.695364238410596,1.5355008561050718
6.715231788079469,1.466730467315515
6.735099337748344,1.4004019989231762
6.754966887417219,1.3371634696362107
6.774834437086093,1.277745039100711
6.794701986754967,1.2229582379992283
6.814569536423841,1.1736860027402465
6.8344370860927155,1.1308591111498676
6.854304635761589,1.0954150591964833
6.874172185430464,1.0682379542737386
6.894039735099337,1.0500832409614753
6.913907284768212,1.0414982178001744
6.933774834437086,1.0427553679598387
6.95364238410596,1.0538162749836015
6.973509933774834,1.0743369039367738
6.993377483443709,1.103712615661886
7.013245033112583,1.1411497211833448
7.033112582781457,1.1857453009830932
7.052980132450331,1.2365594375077973
7.072847682119205,1.2926707228657692
7.0927152317880795,1.3532127641064344
7.112582781456954,1.4173939783290486
7.132450331125828,1.4845049006583058
7.152317880794702,1.5539173089469764
7.172185430463576,1.6250786605564993
7.19205298013245,1.6975043141187898
7.211920529801324,1.770769110279941
7.231788079470198,1.84449921660143
7.251655629139073,1.9183646939543446
7.271523178807947,1.992072965363804
7.291390728476822,2.0653632104749553
7.311258278145695,2.1380016269506434
7.33112582781457,2.2097774639358905
7.3509933774834435,2.280499722424516
7.370860927152318,2.349994420669954
7.390728476821192,2.4181023324492528
7.410596026490066,2.4846771179361617
7.430463576158941,2.5495837790017886
7.450331125827814,2.6126973818928234
7.470198675496689,2.6739020000160787
7.490066225165562,2.733089837899567
7.509933774834438,2.790160504382801
7.52980132450331,2.8450204088667417
7.549668874172186,2.8975822591953717
7.569536423841059,2.947764643617217
7.589403973509934,2.995491682433654
7.6092715231788075,3.0406927375131323
7.629139072847682,3.0833021699455974
7.649006622516557,3.1232591378187275
7.66887417218543,3.1605074274928655
7.6887417218543055,3.1949953128926127
7.708609271523178,3.226675438270819
7.728476821192054,3.2555047206723255
7.748344370860927,3.2814442689640138
7.768211920529802,3.3044593168274847
7.788079470198675,3.324519167555126
7.80794701986755,3.3415971488623772
7.827814569536423,3.355670576245457
7.847682119205298,3.3667207236843324
7.8675496688741715,3.374732800724348
7.887417218543046,3.3796959351756524
7.907284768211921,3.38160316085273
7.927152317880795,3.3804514099424776
7.9470198675496695,3.3762415097452925
7.966887417218543,3.368978183680857
7.986754966887418,3.3586700565960323
8.006622516556291,3.3453296645585855
8.026490066225167,3.3289734694728454
8.046357615894038,3.3096218790150065
8.066225165562914,3.2872992725628314
8.086092715231787,3.2620340339913723
8.105960264900663,3.233858592429911
8.125827814569536,3.202809472332383
8.14569536423841,3.168927354514259
8.165562913907285,3.132257150162073
8.185430463576159,3.092848090242544
8.205298013245034,3.0507538332415445
8.225165562913906,3.006032594769471
8.245033112582782,2.9587473033035065
8.264900662251655,2.908965787230462
8.28476821192053,2.8567609994440266
8.304635761589404,2.802211287086379
8.324503311258278,2.74540071566617
8.344370860927151,2.686419458807824
8.364238410596027,2.625364267383712
8.3841059602649,2.5623390348660213
8.403973509933774,2.4974554795478348
8.42384105960265,2.430833968990655
8.443708609271523,2.362604517853454
8.463576158940398,2.2929079973629536
8.483443708609272,2.221897603323601
8.503311258278146,2.1497406399332766
8.52317880794702,2.0766206888663383
8.543046357615895,2.0027402469715736
8.562913907284768,1.9283239308914522
8.582781456953642,1.8536223614152403
8.602649006622515,1.7789168512687774
8.62251655629139,1.7045250213176601
8.642384105960264,1.63080745110371
8.66225165562914,1.5581754120402593
8.682119205298013,1.4870996060911006
8.701986754966887,1.418119594967635
8.721854304635762,1.3518531939120249
8.741721854304636,1.289004449882312
8.76158940397351,1.2303678760485302
8.781456953642383,1.1768254129453042
8.801324503311259,1.1293313912408491
8.821192052980132,1.0888802276608514
8.841059602649008,1.0564527945619009
8.86092715231788,1.0329415912969333
8.880794701986755,1.0190623332289972
8.90066225165563,1.0152683279734405
8.920529801324504,1.0216892545451413
8.940397350993377,1.0381126949566775
8.960264900662251,1.064014375841895
8.980132450331126,1.0986274453864282
9.0,1.1410306806221941
9.019867549668875,1.190234683181613
9.039735099337747,1.2452517744083609
9.059602649006623,1.3051440914470875
9.079470198675496,1.3690511235160185
9.099337748344372,1.43620128081454
9.119205298013245,1.5059127390939904
9.139072847682119,1.5775880114568532
9.158940397350994,1.6507054605483007
9.178807947019868,1.7248098140292512
9.198675496688743,1.7995028737312522
9.218543046357615,1.874435021991128
9.23841059602649,1.9492977675381327
9.258278145695364,2.023817368659021
9.27814569536424,2.097749466304445
9.298013245033111,2.1708746140229627
9.317880794701987,2.242994578930303
9.33774834437086,2.3139292923260073
9.357615894039736,2.3835143407446293
9.37748344370861,2.451598903028892
9.397350993377483,2.5180440537730937
9.417218543046358,2.5827213669600413
9.437086092715232,2.645511765337504
9.456953642384107,2.70630457098814
9.47682119205298,2.764996720771557
9.496688741721854,2.821492117066516
9.516556291390728,2.875701089741016
9.536423841059603,2.927539949740064
9.556291390728477,2.976930618293488
9.57615894039735,3.023800318669463
9.596026490066224,3.068081319765209
9.6158940397351,3.109710722744041
9.635761589403973,3.1486302834854545
9.655629139072847,3.1847862648827285
9.675496688741722,3.218129314057957
9.695364238410596,3.248614360413111
9.715231788079471,3.276200531133643
9.735099337748345,3.3008510813382963
9.754966887417218,3.322533336548389
9.774834437086092,3.341218645550423
9.794701986754967,3.3568823420636305
9.814569536423841,3.369503713910907
9.834437086092716,3.3790659786373873
9.854304635761588,3.385556264735333
9.874172185430464,3.3889655978225357
9.894039735099337,3.3892888912915233
9.913907284768213,3.386524941102602
9.933774834437086,3.3806764245408623
9.95364238410596,3.37174990289865
9.973509933774835,3.3597558281868776
9.993377483443709,3.3447085541222417
10.013245033112582,3.326626351789822
10.033112582781456,3.3055314305443906
10.052980132450331,3.2814499648952236
10.072847682119205,3.2544121283229064
10.09271523178808,3.2244521352112625
10.112582781456952,3.191608292348666
10.132450331125828,3.155923061773393
10.152317880794701,3.117443137116195
10.172185430463577,3.0762195360480686
10.192052980132452,3.0323077119874826
10.211920529801324,2.98576768888476
10.2317880794702,2.936664223708557
10.251655629139073,2.885067002248151
10.271523178807948,2.831050875059711
10.29139072847682,2.774696141883044
10.311258278145695,2.7160888947091832
10.331125827814569,2.655321431979465
10.350993377483444,2.5924927592575093
10.370860927152318,2.5277091952790682
10.390728476821192,2.4610851067267014
10.410596026490065,2.392743800612261
10.43046357615894,2.3228186100354065
10.450331125827816,2.251454217617623
10.470198675496688,2.178808271406683
10.490066225165563,2.1050533608119735
10.509933774834437,2.0303794353745364
10.529801324503312,1.9549967668408719
10.549668874172186,1.8791395744685524
10.56953642384106,1.8030704529792427
10.589403973509933,1.7270857582079655
10.609271523178808,1.651522109614672
10.629139072847682,1.576764147311805
10.649006622516556,1.5032536095018285
10.66887417218543,1.4314996336176349
10.688741721854305,1.3620898685864762
10.70860927152318,1.295701430073765
10.728476821192054,1.2331098369824813
10.748344370860927,1.175192773599831
