Frequency (Hz),Amplitude
0.0,0.26138302918161915
0.04,0.26187682468498136
0.08,0.26335077685489444
0.12,0.26578300103656477
0.16,0.26913836124724216
0.19999999999999998,0.27337029471590674
0.24,0.27842304297957643
0.27999999999999997,0.28423405148820113
0.32,0.2907363218476418
0.36,0.29786055092358693
0.39999999999999997,0.30553695244703666
0.44,0.3136967152650532
0.48,0.32227309905888085
0.52,0.3312021998727581
0.5599999999999999,0.3404234349703609
0.6,0.3498798023958138
0.64,0.35951796881961695
0.6799999999999999,0.3692882330859004
0.72,0.3791444048393669
0.76,0.3890436293441799
0.7999999999999999,0.3989461820522227
0.84,0.40881525006419944
0.88,0.4186167124597314
0.9199999999999999,0.4283189274747018
0.96,0.4378925315145642
1.0,0.4473102528244273
1.04,0.45654674111217824
1.0799999999999998,0.4655784133840925
1.1199999999999999,0.47438331557589464
1.1600000000000001,0.4829409991455356
1.2,0.49123241156027153
1.24,0.49923979950267694
1.28,0.5069466235963408
1.3199999999999998,0.5143374834818548
1.3599999999999999,0.521398052136614
1.4,0.528115018412948
1.44,0.5344760368585763
1.48,0.5404696839747688
1.52,0.5460854201568385
1.5599999999999998,0.5513135566461949
1.5999999999999999,0.5561452269019761
1.64,0.5605723618725247
1.68,0.5645876687127579
1.72,0.568184612552991
1.76,0.5713574009784523
1.7999999999999998,0.574100970927063
1.8399999999999999,0.5764109777568026
1.88,0.5782837862734307
1.92,0.5797164635454558
1.9599999999999997,0.5807067733661802
2.0,0.5812531722533865
2.0399999999999996,0.5813548069058663
2.08,0.5810115130633358
2.12,0.5802238157426087
2.1599999999999997,0.5789929308488004
2.2,0.5773207681861391
2.2399999999999998,0.5752099359192702
2.28,0.5726637465630215
2.3200000000000003,0.5696862246071492
2.36,0.5662821159128543
2.4,0.5624568990505442
2.44,0.5582167987838537
2.48,0.5535688019438635
2.5199999999999996,0.548520675980427
2.56,0.54308099052503
2.6,0.5372591423522431
2.6399999999999997,0.5310653841851658
2.68,0.5245108578546182
2.7199999999999998,0.5176076323925486
2.76,0.5103687477170649
2.8,0.5028082646491436
2.84,0.4949413220881882
2.88,0.48678420226282626
2.92,0.4783544050606665
2.96,0.4696707325201801
2.9999999999999996,0.46075338462967197
3.04,0.45162406760888424
3.08,0.44230611582766166
3.1199999999999997,0.4328246284149983
3.16,0.4232066213905497
3.1999999999999997,0.41348119575529785
3.2399999999999998,0.4036797213350748
3.28,0.39383603518509863
3.32,0.3839866519139381
3.36,0.3741709812237584
3.4,0.36443154511958015
3.44,0.3548141834341247
3.4799999999999995,0.345368231388022
3.52,0.33614664677406136
3.5599999999999996,0.3272060571002452
3.5999999999999996,0.318606689026922
3.64,0.31041213453415567
3.6799999999999997,0.3026889019603354
3.7199999999999998,0.29550569766579815
3.76,0.2889323886801917
3.7999999999999994,0.2830386117969468
3.84,0.2778920232433218
3.88,0.2735562264388475
3.9199999999999995,0.2700884709025924
3.96,0.26753727532260163
4.0,0.26594017913855655
4.04,0.26532185384108004
4.079999999999999,0.26569279387060607
4.12,0.2670487521349603
4.16,0.269370993957959
4.199999999999999,0.27262733495733993
4.24,0.2767738281965112
4.28,0.2817568963053204
4.319999999999999,0.28751567703813774
4.36,0.29398436483268475
4.4,0.30109437501795944
4.4399999999999995,0.30877621566288815
4.4799999999999995,0.316961010214528
4.5200000000000005,0.32558166229866864
4.56,0.3345736880329111
4.6,0.34387576094678834
4.640000000000001,0.35343002266390483
4.68,0.3631822123349951
4.72,0.37308166270453524
4.76,0.3830812032385797
4.8,0.39313700271468827
4.84,0.4032083761371814
4.88,0.4132575743184106
4.92,0.42324956913251954
4.96,0.4331518432680754
5.0,0.44293419014320173
5.039999999999999,0.45256852732669656
5.08,0.4620287251568389
5.12,0.4712904511101231
5.159999999999999,0.4803310297152034
5.2,0.48912931732873705
5.24,0.49766559080956413
5.279999999999999,0.5059214489851208
5.319999999999999,0.5138797257547962
5.36,0.5215244136867642
5.3999999999999995,0.5288405970148569
5.4399999999999995,0.5358143930142103
5.48,0.5424329008180112
5.52,0.5486841568251378
5.56,0.5545570959354666
5.6,0.5600415179329288
5.64,0.5651280584146422
5.68,0.5698081637366638
5.72,0.5740740695130214
5.76,0.5779187822646218
5.8,0.581336063869026
5.84,0.5843204185110469
5.879999999999999,0.5868670818785952
5.92,0.5889720123883906
5.96,0.5906318842628937
5.999999999999999,0.5918440823134804
6.04,0.5926066983161643
6.08,0.5929185288953779
6.119999999999999,0.592779074859223
6.16,0.5921885419563294
6.2,0.5911478430507838
6.239999999999999,0.5896586017377947
6.279999999999999,0.5877231574492322
6.32,0.5853445721256012
6.359999999999999,0.5825266385595641
6.3999999999999995,0.5792738905464836
6.44,0.5755916150100113
6.4799999999999995,0.5714858663059883
6.52,0.5669634829464567
6.56,0.562032107027797
6.6,0.5567002066935406
6.64,0.5509771020136811
6.68,0.5448729947187725
6.72,0.5383990022890299
6.76,0.5315671969661969
6.8,0.524390650328734
6.84,0.5168834841484372
6.88,0.5090609283270325
6.92,0.5009393867924128
6.959999999999999,0.492536512311408
7.0,0.4838712912431349
7.04,0.47496413930404774
7.08,0.46583700942920736
7.119999999999999,0.4565135127733203
7.16,0.44701905377241713
7.199999999999999,0.437380979943322
7.239999999999999,0.4276287466814966
7.28,0.4177940966591875
7.32,0.40791125243553544
7.359999999999999,0.3980171194565998
7.3999999999999995,0.3881514946115914
7.4399999999999995,0.378357272769472
7.4799999999999995,0.36868064009200685
7.52,0.35917123827367164
7.5600000000000005,0.34988227814045136
7.599999999999999,0.3408705743485246
7.64,0.3321964656336949
7.68,0.3239235779668868
7.719999999999999,0.3161183824445443
7.76,0.30884949785192545
7.800000000000001,0.3021866923104378
7.839999999999999,0.29619955232595213
7.88,0.2909558135521582
7.92,0.2865193866839625
7.959999999999999,0.28294816193645367
8.0,0.2802917299349796
8.040000000000001,0.2785892043711222
8.08,0.27786735864811224
8.12,0.27813928259450194
8.159999999999998,0.27940372046936823
8.2,0.2816451727714227
8.24,0.2848347473384322
8.28,0.2889316516176382
8.32,0.2938851483331389
8.36,0.29963676358258123
8.399999999999999,0.3061225410507635
8.44,0.31327517029793694
8.48,0.32102586768804486
8.52,0.32930594218685144
8.56,0.33804802516596455
8.6,0.34718697835483975
8.639999999999999,0.35666051615004607
8.68,0.366409589263384
8.72,0.376378579025025
8.76,0.38651534854433084
8.8,0.39677119088776275
8.84,0.40710070729460995
8.879999999999999,0.4174616413910857
8.92,0.42781468902862535
8.959999999999999,0.43812329804031785
9.0,0.44835346792637365
9.040000000000001,0.45847355616351465
9.079999999999998,0.4684540953455431
9.12,0.4782676235490308
9.16,0.4878885290341709
9.2,0.49729290951022787
9.24,0.5064584456144064
9.280000000000001,0.5153642878902444
9.32,0.5239909563440492
9.36,0.5323202515580094
9.399999999999999,0.5403351763115638
9.44,0.5480198666831906
9.48,0.5553595316549989
9.52,0.562340400309716
9.559999999999999,0.568949675785499
9.6,0.5751754952323482
9.639999999999999,0.5810068950914673
9.68,0.5864337810930365
9.72,0.5914469024376272
9.76,0.5960378296909148
9.8,0.6001989359806635
9.84,0.6039233811389145
9.879999999999999,0.6072050984816063
9.92,0.6100387839625585
9.959999999999999,0.6124198874796758
10.0,0.6143446061485303
10.04,0.6158098793930772
10.079999999999998,0.6168133857351966
10.12,0.6173535411949278
10.16,0.6174294992418562
10.2,0.6170411522657573
10.24,0.616189134561601
10.280000000000001,0.6148748268509628
10.319999999999999,0.613100362389032
10.36,0.6108686347343801
10.4,0.608183307287608
10.44,0.6050488247357774
10.48,0.6014704265720646
10.52,0.5974541628953244
10.559999999999999,0.5930069127322567
10.6,0.5881364051663085
10.639999999999999,0.5828512436025342
10.68,0.5771609335468885
10.72,0.571075914331869
10.76,0.5646075952782688
10.799999999999999,0.5577683968446829
10.84,0.5505717973818358
10.879999999999999,0.5430323861763494
10.92,0.5351659235363602
10.96,0.526989408735879
11.0,0.5185211566911062
11.04,0.5097808842824736
11.08,0.5007898072504421
11.12,0.4915707485657962
11.16,0.482148259085603
11.2,0.4725487511254041
11.24,0.46280064526838904
11.28,0.45293453024269703
11.319999999999999,0.44298333496347625
11.36,0.432982510775304
11.4,0.4229702204439207
11.44,0.41298752841998604
11.48,0.40307858420975456
11.52,0.3932907872242847
11.559999999999999,0.38367491716362984
11.6,0.37428520883353017
11.64,0.36517934445455597
11.68,0.35641833042487875
11.72,0.3480662199233035
11.759999999999998,0.3401896389503372
11.799999999999999,0.3328570731944654
11.84,0.32613787872103916
11.879999999999999,0.3201009932885954
11.92,0.31481334896795377
11.96,0.31033802105672587
11.999999999999998,0.3067321908247616
12.04,0.304045044732895
12.08,0.302315771418911
12.12,0.30157183913389485
12.16,0.30182773094822934
12.200000000000001,0.3030842785507385
12.239999999999998,0.30532867140606595
12.28,0.3085351381100271
12.32,0.3126662177012099
12.36,0.3176744768563861
12.4,0.3235044952474097
12.44,0.3300949385578039
12.479999999999999,0.3373805617246388
12.52,0.3452940241650188
12.559999999999999,0.35376744341410865
12.6,0.3627336550967612
12.64,0.3721271802208754
12.68,0.38188492350666575
12.719999999999999,0.39194663940611024
12.76,0.40225520753293764
12.799999999999999,0.4127567587564252
12.84,0.4234006893819616
12.88,0.43413959536216074
12.92,0.4449291525498035
12.959999999999999,0.4557279633557686
12.999999999999998,0.46649738519904477
13.04,0.4772013519808369
13.08,0.4878061964829457
13.12,0.4982804790051433
13.16,0.5085948256063542
13.2,0.5187217778824563
13.239999999999998,0.5286356551897464
13.28,0.5383124295128416
13.32,0.5477296127006316
13.36,0.5568661554916771
13.4,0.5657023575726872
13.44,0.5742197878238497
13.479999999999999,0.5824012138752315
13.52,0.5902305401093958
13.559999999999999,0.5976927532820001
13.6,0.6047738749843999
13.64,0.611460920232833
13.68,0.617741861532808
13.719999999999999,0.6236055978315461
13.76,0.6290419278337707
13.799999999999999,0.6340415272154395
13.84,0.6385959293257394
13.88,0.6426975090192764
13.919999999999998,0.6463394693082802
13.959999999999999,0.6495158305686515
14.0,0.6522214220743355
14.04,0.6544518756721565
14.08,0.6562036214441648
14.120000000000001,0.6574738852373104
14.16,0.6582606879712433
14.2,0.6585628466645507
14.239999999999998,0.6583799771483957
14.28,0.6577124984645588
14.32,0.6565616389727834
14.36,0.654929444220417
14.399999999999999,0.6528187866561218
14.44,0.6502333772991167
14.479999999999999,0.6471777795065085
14.52,0.6436574250140717
14.56,0.6396786324606746
14.6,0.6352486286437091
14.64,0.6303755727926607
14.68,0.6250685841904168
14.719999999999999,0.6193377735171547
14.76,0.6131942783394366
14.799999999999999,0.6066503032171159
14.84,0.5997191649517722
14.879999999999999,0.5924153435515449
14.919999999999998,0.5847545395358607
14.959999999999999,0.5767537382466961
15.0,0.5684312818657427
15.04,0.5598069498525751
15.079999999999998,0.5509020485082309
15.120000000000001,0.5417395103189285
15.159999999999998,0.5323440036285381
15.199999999999998,0.522742053003272
15.24,0.5129621703578284
15.28,0.5030349964706023
15.319999999999999,0.4929934518782243
15.36,0.48287289524770693
15.399999999999999,0.4727112861080028
15.439999999999998,0.4625493472037949
15.48,0.45243071963181797
15.52,0.44240210126121216
15.559999999999999,0.4325133556794171
15.600000000000001,0.4228175750566955
15.639999999999999,0.4133710760004893
15.679999999999998,0.40423330295057763
15.72,0.3954666094511126
15.76,0.38713588452538394
15.799999999999999,0.3793079905067933
15.84,0.37205098148429433
15.879999999999999,0.3654330795951986
15.919999999999998,0.3595214011634635
15.96,0.3543804468617446
16.0,0.3500703990366928
16.04,0.3466453024640009
16.080000000000002,0.3441512372215989
16.12,0.3426246173850883
16.16,0.3420907596722894
16.200000000000003,0.34256285643020745
16.24,0.3440414557636634
16.279999999999998,0.34651450169596154
16.319999999999997,0.3499579275305157
16.36,0.35433673735608456
16.4,0.35960646474757735
16.439999999999998,0.3657148714567245
16.48,0.37260374435547033
16.52,0.380210663206143
16.56,0.3884706388386074
16.6,0.39731755387062984
16.64,0.40668536999052934
16.68,0.41650909280273046
16.72,0.42672550528672815
16.759999999999998,0.4372736938090585
16.799999999999997,0.44809539728402414
16.84,0.45913521196330426
16.88,0.47034068297989307
16.919999999999998,0.48166231051166164
16.96,0.49305349428665995
17.0,0.5044704358301594
17.04,0.5158720137851485
17.080000000000002,0.5272196440512609
17.12,0.5384771334690721
17.16,0.5496105333264609
17.2,0.560587997032194
17.24,0.5713796448174516
17.279999999999998,0.5819574372120236
17.32,0.5922950582252594
17.36,0.6023678085784004
17.4,0.6121525089301734
17.44,0.6216274127675988
17.48,0.6307721284636296
17.52,0.6395675499053958
17.56,0.6479957950505176
17.6,0.6560401517587339
17.64,0.6636850302600645
17.68,0.6709159216506592
17.72,0.677719361847093
17.759999999999998,0.6840829004748704
17.799999999999997,0.6899950742143268
17.84,0.6954453841749034
17.88,0.700424276915624
17.919999999999998,0.7049231287747911
17.96,0.7089342332148678
18.0,0.7124507909293283
18.04,0.7154669024965764
18.080000000000002,0.7179775634024462
18.12,0.71997866128704
18.159999999999997,0.7214669753044484
18.2,0.7224401775151891
18.24,0.7228968362615241
18.279999999999998,0.7228364215053708
18.32,0.7222593121377185
18.36,0.7211668052975728
18.4,0.7195611277677672
18.44,0.7174454495448142
18.48,0.7148238997106635
18.52,0.7117015847657878
18.560000000000002,0.7080846096159195
18.6,0.7039801014388627
18.64,0.6993962366932662
18.679999999999996,0.6943422715679042
18.72,0.6888285762075135
18.759999999999998,0.682866673089133
18.799999999999997,0.6764692799601603
18.84,0.6696503577845851
18.88,0.6624251641752231
18.919999999999998,0.6548103128141658
18.96,0.6468238393773097
19.0,0.6384852744761602
19.04,0.6298157241040291
19.080000000000002,0.6208379580143001
19.119999999999997,0.6115765063533176
19.159999999999997,0.6020577647029702
19.2,0.592310107437524
19.24,0.5823640089395368
19.279999999999998,0.5722521717189268
19.32,0.5620096597989519
19.36,0.5516740348294078
19.4,0.5412854912120603
19.44,0.5308869850272296
19.48,0.5205243496900601
19.52,0.5102463890127864
19.560000000000002,0.5001049357105133
19.6,0.49015486042283696
19.639999999999997,0.4804540131778926
19.68,0.47106307616613247
19.72,0.4620453041437426
19.759999999999998,0.4534661273612786
19.8,0.44539259241206697
19.84,0.4378926197588104
19.88,0.4310340638878963
19.919999999999998,0.4248835738226879
19.96,0.41950526835316787
20.0,0.4149592611894227
20.04,0.41130009451557886
20.08,0.408575162013969
20.119999999999997,0.4068232202274557
20.159999999999997,0.4060730957197862
20.2,0.4063426912982743
20.24,0.4076383760493753
20.279999999999998,0.40995481249235777
20.32,0.4132752341641136
20.36,0.4175721449117533
20.4,0.4228083740934204
20.44,0.428938395484342
20.48,0.4359098050510754
20.52,0.4436648539371226
20.560000000000002,0.4521419454699505
20.599999999999998,0.4612770247293341
20.639999999999997,0.47100481189489823
20.68,0.48125985256083376
20.72,0.49197737697796323
20.759999999999998,0.503093974513579
20.8,0.5145480992973456
20.84,0.5262804285314077
20.88,0.5382340971248718
20.92,0.55035483209969
20.96,0.5625910084623793
21.0,0.5748936456395146
21.04,0.5872163606473692
21.08,0.5995152912524211
21.119999999999997,0.6117489996873658
21.159999999999997,0.6238783651236498
21.2,0.6358664711029172
21.24,0.6476784924900206
21.279999999999998,0.6592815851977699
21.32,0.67064478090619
21.36,0.6817388882110107
21.4,0.6925364010438143
21.44,0.7030114147706078
21.48,0.7131395500631023
21.52,0.7228978844194517
21.56,0.7322648910662901
21.599999999999998,0.7412203848832316
21.639999999999997,0.7497454749405889
21.68,0.7578225232198708
21.72,0.7654351090863306
21.759999999999998,0.7725679990971398
21.8,0.7792071217530117
21.84,0.7853395468318481
21.88,0.7909534689778095
21.92,0.7960381952562894
21.96,0.8005841364236098
22.0,0.8045828016988159
22.04,0.8080267968636397
22.08,0.8109098255547816
22.119999999999997,0.8132266936506706
22.16,0.8149733166922387
22.2,0.8161467303145457
22.24,0.8167451037032087
22.28,0.8167677561269246
22.32,0.816215176634809
22.36,0.8150890470453781
22.4,0.8133922683924263
22.44,0.8111289910322698
22.48,0.8083046486564321
22.519999999999996,0.8049259964938149
22.56,0.8010011540261858
22.599999999999998,0.7965396525797959
22.639999999999997,0.7915524881929464
22.68,0.7860521801927596
22.72,0.7800528359421132
22.759999999999998,0.7735702222365186
22.8,0.7666218438364333
22.84,0.7592270296075884
22.88,0.751407026703051
22.92,0.7431851031462287
22.96,0.7345866590517903
23.0,0.725639346535934
23.04,0.7163731980990754
23.08,0.706820762889578
23.119999999999997,0.6970172497475956
23.16,0.6870006752508346
23.2,0.6768120141014482
23.24,0.6664953480657452
23.28,0.6560980082667934
23.32,0.6456707039016752
23.36,0.6352676283921362
23.400000000000002,0.6249465315897739
23.44,0.6147687439994081
23.479999999999997,0.6047991361798596
23.519999999999996,0.5951059937454889
23.56,0.5857607860605543
23.599999999999998,0.5768378052664901
23.639999999999997,0.5684136523272938
23.68,0.5605665490507432
23.72,0.5533754603091557
23.759999999999998,0.546919019602947
23.8,0.5412742640315525
23.84,0.5365152014443934
23.88,0.5327112520201488
23.92,0.5299256267981779
23.96,0.5282137239082132
23.999999999999996,0.5276216360272215
24.04,0.5281848666707839
24.08,0.529927346000143
24.119999999999997,0.5328608183557166
24.16,0.5369846453858971
24.2,0.5422860341883385
24.24,0.5487406644273681
24.28,0.5563136572246293
24.32,0.5649608059967088
24.36,0.5746299776862954
24.400000000000002,0.5852625921656679
24.439999999999998,0.5967950962648424
24.479999999999997,0.6091603639985063
24.52,0.6222889728892157
24.56,0.636110324897966
24.599999999999998,0.6505535972186913
24.64,0.6655485217992105
24.68,0.681026002448024
24.72,0.69691858490381
24.759999999999998,0.7131607987780397
24.8,0.7296893914881468
24.84,0.7464434738501406
24.88,0.7633645954900246
24.92,0.7803967661408227
24.959999999999997,0.7974864365690573
24.999999999999996,0.8145824505618972
25.04,0.8316359772522495
25.08,0.8486004311439798
25.119999999999997,0.8654313855544616
25.16,0.88208648381715
25.2,0.8985253514642086
25.24,0.9147095117105014
25.28,0.9306023058537989
25.32,0.9461688196606096
25.36,0.9613758163934568
25.4,0.9761916768283604
25.439999999999998,0.9905863463885924
25.479999999999997,1.0045312893644236
25.52,1.0179994500836242
25.56,1.0309652208318276
25.599999999999998,1.043404416286281
25.64,1.055294254213214
25.68,1.0666133421825432
25.72,1.0773416700694025
25.76,1.0874606081367124
25.8,1.096952910524152
25.84,1.1058027240047272
25.880000000000003,1.1139956019092345
25.919999999999998,1.1215185231603477
25.959999999999997,1.1283599164012332
25.999999999999996,1.1345096892478805
26.04,1.1399592627395547
26.08,1.1447016111075405
26.119999999999997,1.1487313070284664
26.16,1.152044572574516
26.2,1.1546393361187164
26.24,1.1565152954981657
26.28,1.1576739877813205
26.32,1.1581188660258044
26.36,1.1578553834495062
26.4,1.1568910854678054
26.439999999999998,1.1552357100712356
26.479999999999997,1.1529012970272454
26.52,1.1499023063826224
26.56,1.1462557467140841
26.599999999999998,1.1419813135163959
26.64,1.137101538021324
26.68,1.1316419465961434
26.72,1.125631230663649
26.76,1.1191014268014527
26.8,1.112088106297512
26.84,1.1046305729404824
26.88,1.096772067183299
26.919999999999998,1.0885599740109089
26.959999999999997,1.0800460308420166
27.0,1.071286530576236
27.04,1.0623425134433677
27.08,1.0532799396131645
27.119999999999997,1.0441698325922502
27.16,1.0350883813072795
27.2,1.0261169865265198
27.24,1.0173422350333445
27.28,1.0088557829265654
27.32,1.000754127850288
27.36,0.9931382491941111
27.4,0.9861130957668679
27.439999999999998,0.9797869025907164
27.479999999999997,0.9742703227374377
27.52,0.9696753669000174
27.56,0.966114152836364
27.599999999999998,0.9636974788080421
27.64,0.9625332491190383
27.68,0.9627247948067422
27.72,0.9643691469468165
27.76,0.9675553320545591
27.8,0.972362766749474
