Frequency (Hz),Amplitude
0.0,9.937987260465817
0.019867549668874173,9.93931093560448
0.039735099337748346,9.943275678519601
0.059602649006622516,9.949862687360156
0.07947019867549669,9.959040777183889
0.09933774834437085,9.970766604758003
0.11920529801324503,9.98498497852599
0.13907284768211922,10.001629249152849
0.15894039735099338,10.020621774979656
0.17880794701986755,10.041874455794094
0.1986754966887417,10.065289327576414
0.2185430463576159,10.090759210322705
0.23841059602649006,10.118168400684587
0.2582781456953642,10.147393400992868
0.27814569536423844,10.17830367624496
0.2980132450331126,10.210762430815912
0.31788079470198677,10.244627396982045
0.33774834437086093,10.27975162780233
0.3576158940397351,10.3159842874609
0.3774834437086093,10.353171432809937
0.3973509933774834,10.391156780540834
0.4172185430463576,10.42978245512938
0.4370860927152318,10.468889713427352
0.45695364238410596,10.508319642488697
0.4768211920529801,10.547913827908511
0.49668874172185434,10.587514990604088
0.5165562913907285,10.626967590570047
0.5364238410596026,10.666118396686553
0.5562913907284769,10.704817022147965
0.5761589403973509,10.742916425505012
0.5960264900662252,10.780273377679046
0.6158940397350993,10.816748895611997
0.6357615894039735,10.852208643464078
0.6556291390728477,10.886523302466607
0.6754966887417219,10.91956891068464
0.695364238410596,10.951227174046219
0.7152317880794702,10.981385750060138
0.7350993377483444,11.009938505673484
0.7549668874172186,11.03678575072158
0.7748344370860927,11.061834448398423
0.7947019867549668,11.084998404131378
0.8145695364238411,11.106198434181364
0.8344370860927152,11.125362515214412
0.8543046357615894,11.142425916003264
0.8741721854304636,11.157331312322304
0.8940397350993378,11.17002888599721
0.9139072847682119,11.180476408963571
0.9337748344370861,11.188639313078236
0.9536423841059603,11.194490746314369
0.9735099337748344,11.198011615856444
0.9933774834437087,11.199190618495246
1.0132450331125828,11.19802425860743
1.033112582781457,11.194516853886217
1.0529801324503312,11.18868052887362
1.0728476821192052,11.180535196227076
1.0927152317880795,11.170108525536687
1.1125827814569538,11.157435899391805
1.1324503311258278,11.142560356280141
1.1523178807947019,11.125532519785978
1.1721854304635762,11.106410513440512
1.1920529801324504,11.085259860463289
1.2119205298013245,11.06215336752502
1.2317880794701985,11.037170991554133
1.2516556291390728,11.01039968850909
1.271523178807947,10.981933242943343
1.2913907284768211,10.951872077104065
1.3112582781456954,10.920323038231786
1.3311258278145695,10.887399162667728
1.3509933774834437,10.853219415332877
1.370860927152318,10.817908403122244
1.390728476821192,10.781596060761135
1.410596026490066,10.74441730770513
1.4304635761589404,10.706511674733608
1.4503311258278146,10.66802289899519
1.4701986754966887,10.6290984864161
1.4900662251655628,10.589889240584373
1.5099337748344372,10.550548757478284
1.5298013245033113,10.511232885720156
1.5496688741721854,10.472099152409506
1.5695364238410596,10.433306155023844
1.5894039735099337,10.395012920371313
1.609271523178808,10.357378232133556
1.6291390728476822,10.320559929147846
1.6490066225165563,10.284714177233264
1.6688741721854303,10.249994718061119
1.6887417218543048,10.216552099287957
1.7086092715231789,10.18453289089669
1.728476821192053,10.154078893407764
1.7483443708609272,10.125326344305615
1.7682119205298013,10.098405129654642
1.7880794701986755,10.07343800842572
1.8079470198675496,10.05053985749723
1.8278145695364238,10.029816945606353
1.847682119205298,10.011366244687899
1.8675496688741722,9.995274787027963
1.8874172185430464,9.981619076465881
1.9072847682119205,9.9704645614915
1.9271523178807946,9.961865177503391
1.9470198675496688,9.95586296472481
1.9668874172185429,9.952487767329332
1.9867549668874174,9.951757018229076
2.0066225165562916,9.953675612753202
2.0264900662251657,9.958235873124737
2.0463576158940397,9.965417604268938
2.066225165562914,9.975188240095786
2.086092715231788,9.987503078034065
2.1059602649006623,10.002305598294464
2.1258278145695364,10.019527863141064
2.1456953642384105,10.039090990386867
2.165562913907285,10.060905694424536
2.185430463576159,10.084872887378742
2.205298013245033,10.110884332431848
2.2251655629139075,10.138823341034254
2.2450331125827816,10.168565505561954
2.2649006622516556,10.199979459016168
2.2847682119205297,10.232927653557955
2.3046357615894038,10.267267150016579
2.324503311258278,10.302850410978163
2.3443708609271523,10.339526090630326
2.364238410596027,10.3771398151806
2.384105960264901,10.41553494835939
2.403973509933775,10.454553337237341
2.423841059602649,10.49403603431298
2.443708609271523,10.533823992539155
2.463576158940397,10.57375873064258
2.4834437086092715,10.613682966736109
2.5033112582781456,10.65344121881934
2.52317880794702,10.692880371303675
2.543046357615894,10.731850207177859
2.562913907284768,10.770203905849666
2.5827814569536423,10.807798507056415
2.6026490066225163,10.844495341536156
2.622516556291391,10.880160429392733
2.642384105960265,10.914664847278019
2.662251655629139,10.947885065655678
2.6821192052980134,10.979703257509433
2.7019867549668874,11.010007579918685
2.7218543046357615,11.038692429951057
2.741721854304636,11.065658676319048
2.76158940397351,11.090813868221653
2.781456953642384,11.114072422744844
2.801324503311258,11.135355792130827
2.821192052980132,11.154592612149518
2.8410596026490067,11.171718832716975
2.8609271523178808,11.186677831809877
2.8807947019867552,11.19942051362189
2.9006622516556293,11.209905391801078
2.9205298013245033,11.218098658495826
2.9403973509933774,11.223974239824209
2.9602649006622515,11.227513838266534
2.9801324503311255,11.228706962364653
3.0,11.22755094399562
3.0198675496688745,11.224050943369559
3.0397350993377485,11.218219941785026
3.0596026490066226,11.210078722057474
3.0794701986754967,11.199655836419652
3.0993377483443707,11.186987561575444
3.119205298013245,11.172117840472357
3.1390728476821192,11.155098210242203
3.1589403973509933,11.135987715644648
3.1788079470198674,11.114852807236097
3.198675496688742,11.091767223376168
3.218543046357616,11.066811855077987
3.23841059602649,11.040074592608066
3.2582781456953644,11.011650152647643
3.2781456953642385,10.981639884742973
3.2980132450331126,10.950151555699486
3.3178807947019866,10.917299110516819
3.3377483443708607,10.88320240842152
3.3576158940397347,10.84798693253682
3.3774834437086096,10.811783471736337
3.3973509933774837,10.774727773267472
3.4172185430463577,10.736960164804222
3.437086092715232,10.698625144703295
3.456953642384106,10.659870939396415
3.47682119205298,10.620849027061576
3.4966887417218544,10.581713626978532
3.5165562913907285,10.542621154295597
3.5364238410596025,10.50372964031571
3.556291390728477,10.465198118853364
3.576158940397351,10.427185979717676
3.596026490066225,10.389852290940405
3.615894039735099,10.3533550919842
3.6357615894039736,10.317850660829752
3.6556291390728477,10.283492758539527
3.6754966887417218,10.250431855616842
3.695364238410596,10.21881434520703
3.7152317880794703,10.18878174890006
3.7350993377483444,10.160469921573604
3.754966887417219,10.134008262334321
3.774834437086093,10.109518939150835
3.794701986754967,10.087116135199485
3.814569536423841,10.06690532523743
3.834437086092715,10.048982590458632
3.854304635761589,10.033433980255172
3.8741721854304636,10.02033492908855
3.8940397350993377,10.009749736264096
3.9139072847682117,10.001731115796385
3.9337748344370858,9.99631982276091
3.9536423841059607,9.99354436156224
3.9735099337748347,9.993420780432194
3.993377483443709,9.995952555232211
4.013245033112583,10.00113056430602
4.033112582781457,10.008933154749247
4.052980132450331,10.019326299072898
4.072847682119205,10.03226383987861
4.0927152317880795,10.047687818873847
4.112582781456953,10.065528885371926
4.132450331125828,10.08570677837595
4.152317880794702,10.108130875461962
4.172185430463576,10.132700800974195
4.19205298013245,10.159307085533037
4.211920529801325,10.187831868539512
4.231788079470199,10.218149635232246
4.251655629139073,10.250127979905603
4.271523178807947,10.28362838711359
4.291390728476821,10.318507023044777
4.311258278145695,10.354615529733723
4.33112582781457,10.391801815352808
4.3509933774834435,10.42991083447656
4.370860927152318,10.46878535290727
4.390728476821192,10.50826669237106
4.410596026490066,10.548195451117714
4.43046357615894,10.588412197168129
4.450331125827815,10.628758131634012
4.470198675496689,10.669075720173984
4.490066225165563,10.70920929124081
4.509933774834438,10.749005600306907
4.529801324503311,10.788314359729284
4.549668874172186,10.826988734326834
4.569536423841059,10.86488580309414
4.589403973509934,10.901866987767425
4.6092715231788075,10.937798449195114
4.629139072847682,10.97255145264894
4.649006622516556,11.006002703348495
4.66887417218543,11.038034653566138
4.688741721854305,11.068535782735488
4.708609271523179,11.097400852009883
4.728476821192054,11.124531134712656
4.748344370860927,11.149834624091971
4.768211920529802,11.173226219744421
4.788079470198675,11.194627894006114
4.80794701986755,11.213968839532061
4.827814569536423,11.231185599195067
4.847682119205298,11.246222179339052
4.867549668874172,11.25903014731787
4.887417218543046,11.269568714142906
4.9072847682119205,11.27780480295168
4.927152317880794,11.283713103895826
4.947019867549669,11.287276115931725
4.966887417218543,11.288484175880708
4.986754966887418,11.287335475009128
5.006622516556291,11.283836063260921
5.026490066225166,11.277999841158092
5.04635761589404,11.2698485392669
5.066225165562914,11.259411685010166
5.086092715231788,11.246726556488815
5.105960264900662,11.23183812285905
5.125827814569536,11.214798970695746
5.14569536423841,11.19566921565809
5.1655629139072845,11.17451639866076
5.185430463576159,11.151415365644626
5.205298013245033,11.126448129934936
5.225165562913908,11.099703716075764
5.245033112582782,11.071277983935909
5.264900662251656,11.041273431799748
5.28476821192053,11.00979897708472
5.304635761589404,10.976969713272561
5.324503311258278,10.942906641603994
5.344370860927152,10.907736376072902
5.364238410596027,10.87159082026801
5.3841059602649,10.834606814654352
5.403973509933775,10.79692575296645
5.4238410596026485,10.758693166506388
5.443708609271523,10.720058275306512
5.463576158940397,10.681173505334153
5.483443708609272,10.642193971187972
5.503311258278146,10.603276924065876
5.52317880794702,10.564581165175522
5.543046357615895,10.526266425211444
5.562913907284768,10.488492711036084
5.582781456953643,10.451419621274436
5.602649006622516,10.415205633156418
5.622516556291391,10.380007363610897
5.642384105960264,10.345978808318975
5.662251655629139,10.313270563158307
5.682119205298013,10.282029033196777
5.701986754966887,10.252395635104996
5.7218543046357615,10.224505999528482
5.741721854304636,10.198489180570386
5.7615894039735105,10.174466880057553
5.781456953642384,10.152552694672591
5.801324503311259,10.132851394309467
5.821192052980132,10.115458240126728
5.841059602649007,10.100458350715703
5.860927152317881,10.087926124556413
5.880794701986755,10.077924726496331
5.900662251655629,10.07050564535527
5.920529801324503,10.065708328943703
5.940397350993377,10.06355990179411
5.960264900662251,10.06407496977111
5.980132450331126,10.067255514472054
6.0,10.073090878993252
6.0198675496688745,10.081557845253775
6.039735099337749,10.092620801680576
6.059602649006623,10.106231998706146
6.079470198675497,10.122331888252361
6.099337748344371,10.140849542205878
6.119205298013245,10.161703143864104
6.139072847682119,10.184800545468196
6.158940397350993,10.210039884260356
6.178807947019867,10.237310249013717
6.198675496688741,10.266492388689576
6.218543046357616,10.297459454770657
6.23841059602649,10.330077768892048
6.258278145695365,10.364207607625003
6.2781456953642385,10.399703996643838
6.298013245033113,10.436417506999266
6.317880794701987,10.474195046807443
6.337748344370861,10.51288064231952
6.357615894039735,10.552316203035181
6.377483443708609,10.592342266245447
6.397350993377484,10.632798717112607
6.417218543046357,10.67352548110225
6.437086092715232,10.714363186258552
6.456953642384105,10.75515379344876
6.47682119205298,10.795741193285423
6.496688741721854,10.83597176896227
6.516556291390729,10.875694924705886
6.5364238410596025,10.914763579950597
6.556291390728477,10.953034629688691
6.5761589403973515,10.990369371733818
6.596026490066225,11.026633901865798
6.6158940397351,11.06169947800443
6.635761589403973,11.095442854691568
6.655629139072848,11.127746589251082
6.675496688741721,11.158499321049094
6.695364238410596,11.187596025296948
6.715231788079469,11.2149382428327
6.735099337748344,11.240434287285325
6.754966887417219,11.263999430975469
6.774834437086093,11.285556070840569
6.794701986754967,11.305033875591583
6.814569536423841,11.32236991521965
6.8344370860927155,11.337508773872703
6.854304635761589,11.350402647017916
6.874172185430464,11.361011423698063
6.894039735099337,11.36930275457735
6.913907284768212,11.37525210635859
6.933774834437086,11.37884280303812
6.95364238410596,11.380066054347616
6.973509933774834,11.378920971615186
6.993377483443709,11.375414571160055
7.013245033112583,11.369561765217359
7.033112582781457,11.361385340271571
7.052980132450331,11.350915922559189
7.072847682119205,11.338191930383855
7.0927152317880795,11.323259512769708
7.112582781456954,11.306172473863048
7.132450331125828,11.286992182377528
7.152317880794702,11.265787465265456
7.172185430463576,11.242634484688873
7.19205298013245,11.21761659725859
7.211920529801324,11.190824194410869
7.231788079470198,11.162354522699667
7.251655629139073,11.13231148270188
7.271523178807947,11.100805405164094
7.291390728476822,11.067952802967211
7.311258278145695,11.033876097452282
7.33112582781457,10.99870331764068
7.3509933774834435,10.962567770899975
7.370860927152318,10.92560768365654
7.390728476821192,10.887965810842855
7.410596026490066,10.849789012896414
7.430463576158941,10.811227799302554
7.450331125827814,10.772435837900728
7.470198675496689,10.733569429455747
7.490066225165562,10.69478694733662
7.509933774834438,10.656248242547985
7.52980132450331,10.618114014822176
7.549668874172186,10.580545151004513
7.569536423841059,10.543702032546047
7.589403973509934,10.507743814551215
7.6092715231788075,10.472827679504693
7.629139072847682,10.439108069510134
7.649006622516557,10.406735901599816
7.66887417218543,10.375857771400382
7.6887417218543055,10.346615151146038
7.708609271523178,10.319143588695386
7.728476821192054,10.293571914804783
7.748344370860927,10.270021466418646
7.768211920529802,10.248605334127356
7.788079470198675,10.229427642195189
7.80794701986755,10.212582869652651
7.827814569536423,10.198155220862471
7.847682119205298,10.186218053695807
7.8675496688741715,10.176833372988192
7.887417218543046,10.170051396285247
7.907284768211921,10.165910198046063
7.927152317880795,10.164435437461321
7.9470198675496695,10.165640173890443
7.966887417218543,10.169524772654087
7.986754966887418,10.17607690257275
8.006622516556291,10.185271625255336
8.026490066225167,10.197071574757036
8.046357615894038,10.211427224880044
8.066225165562914,10.228277240126694
8.086092715231787,10.247548905163288
8.105960264900663,10.269158626647057
8.125827814569536,10.293012500429393
8.14569536423841,10.319006936492816
8.165562913907285,10.347029333516051
8.185430463576159,10.376958794690816
8.205298013245034,10.408666876331669
8.225165562913906,10.442018360912764
8.245033112582782,10.47687204641761
8.264900662251655,10.513081544277325
8.28476821192053,10.550496078678172
8.304635761589404,10.588961280613626
8.324503311258278,10.62831997071724
8.344370860927151,10.668412925614447
8.364238410596027,10.70907962325332
8.3841059602649,10.750158963395037
8.403973509933774,10.791489960149077
8.42384105960265,10.832912404108725
8.443708609271523,10.874267492271706
8.463576158940398,10.91539842450753
8.483443708609272,10.95615096585275
8.503311258278146,10.99637397437556
8.52317880794702,11.035919894749323
8.543046357615895,11.074645218013115
8.562913907284768,11.112410908276878
8.582781456953642,11.14908279735427
8.602649006622515,11.184531948479886
8.62251655629139,11.21863499039554
8.642384105960264,11.251274423176547
8.66225165562914,11.28233889721817
8.682119205298013,11.311723466820341
8.701986754966887,11.339329819798776
8.721854304635762,11.365066484517804
8.741721854304636,11.38884901568793
8.76158940397351,11.41060016020359
8.781456953642383,11.430250004215113
8.801324503311259,11.447736102539006
8.821192052980132,11.463003591411212
8.841059602649008,11.47600528548373
8.86092715231788,11.486701759855944
8.880794701986755,11.495061417819317
8.90066225165563,11.501060544879653
8.920529801324504,11.504683349505015
8.940397350993377,11.505921990929759
8.960264900662251,11.504776594227666
8.980132450331126,11.50125525274848
9.0,11.49537401789371
9.019867549668875,11.487156876089214
9.039735099337747,11.476635712693282
9.059602649006623,11.46385026246114
9.079470198675496,11.44884804606912
9.099337748344372,11.431684292085533
9.119205298013245,11.412421843660152
9.139072847682119,11.39113104909227
9.158940397350994,11.367889635327717
9.178807947019868,11.342782563331756
9.198675496688743,11.315901864185989
9.218543046357615,11.28734645466852
9.23841059602649,11.257221930997302
9.258278145695364,11.225640339351289
9.27814569536424,11.192719921734925
9.298013245033111,11.158584835723007
9.317880794701987,11.123364846618236
9.33774834437086,11.087194990577874
9.357615894039736,11.050215207323017
9.37748344370861,11.012569941139112
9.397350993377483,10.974407709014436
9.417218543046358,10.935880634948779
9.437086092715232,10.897143949702794
9.456953642384107,10.85835545555206
9.47682119205298,10.819674955963418
9.496688741721854,10.781263650525384
9.516556291390728,10.743283495940199
9.536423841059603,10.705896534421175
9.556291390728477,10.669264191431461
9.57615894039735,10.63354654534291
9.596026490066224,10.59890157227802
9.6158940397351,10.565484370111102
9.635761589403973,10.533446366333175
9.655629139072847,10.502934515209425
9.675496688741722,10.47409049035909
9.695364238410596,10.447049879541936
9.715231788079471,10.421941389019512
9.735099337748345,10.398886065347142
9.754966887417218,10.377996542821617
9.774834437086092,10.359376325034876
9.794701986754967,10.343119109047088
9.814569536423841,10.329308160576579
9.834437086092716,10.318015748299096
9.854304635761588,10.30930264485011
9.874172185430464,10.30321770143338
9.894039735099337,10.299797502068568
9.913907284768213,10.299066102475631
9.933774834437086,10.301034857420241
9.95364238410596,10.305702339062332
9.973509933774835,10.313054347495358
9.993377483443709,10.323064013274806
10.013245033112582,10.335691990353101
10.033112582781456,10.350886736502568
10.052980132450331,10.368584877058307
10.072847682119205,10.388711646681378
10.09271523178808,10.411181402859224
10.112582781456952,10.435898204045975
10.132450331125828,10.462756444716577
10.152317880794701,10.4916415391711
10.172185430463577,10.522430645681352
10.192052980132452,10.554993422512954
10.211920529801324,10.589192807470408
10.2317880794702,10.624885812883345
10.251655629139073,10.661924328356895
10.271523178807948,10.700155924126355
10.29139072847682,10.739424648459687
10.311258278145695,10.77957181321735
10.331125827814569,10.820436762383881
10.350993377483444,10.861857619107095
10.370860927152318,10.903672007499871
10.390728476821192,10.945717746158858
10.410596026490065,10.987833511021252
10.43046357615894,11.029859465802426
10.450331125827816,11.071637858828009
10.470198675496688,11.113013585586529
10.490066225165563,11.153834716781732
10.509933774834437,11.193952992055223
10.529801324503312,11.233224279881918
10.549668874172186,11.271509004414497
10.56953642384106,11.30867254027282
10.589403973509933,11.344585576443178
10.609271523178808,11.379124450575754
10.629139072847682,11.412171455051263
10.649006622516556,11.443615116233667
10.66887417218543,11.473350448340886
10.688741721854305,11.501279183353658
10.70860927152318,11.52730997834709
