Frequency (Hz),Amplitude
0.0,6.089335567085062
0.01993355481727575,6.088989917421439
0.0398671096345515,6.087954161887006
0.059800664451827246,6.0862318779320885
0.079734219269103,6.08382901823712
0.09966777408637874,6.0807538960833085
0.11960132890365449,6.077017164823453
0.13953488372093023,6.072631791405999
0.159468438538206,6.067613023893872
0.17940199335548174,6.061978352908646
0.19933554817275748,6.055747466922131
0.21926910299003324,6.048942201310028
0.23920265780730898,6.041586481077591
0.25913621262458475,6.033706257164688
0.27906976744186046,6.025329436238253
0.29900332225913623,6.0164858038837465
0.318936877076412,6.007206941114257
0.3388704318936877,5.997526134127499
0.3588039867109635,5.987478277255817
0.37873754152823924,5.977099769074519
0.39867109634551495,5.966428401658888
0.4186046511627907,5.955503243009693
0.4385382059800665,5.944364512702856
0.4584717607973422,5.933053450859314
0.47840531561461797,5.921612180577822
0.49833887043189373,5.910083564024814
0.5182724252491695,5.89851105243331
0.5382059800664452,5.886938530324596
0.5581395348837209,5.875410154333787
0.5780730897009968,5.863970187091383
0.5980066445182725,5.852662826687593
0.6179401993355482,5.841532032323037
0.637873754152824,5.830621346828079
0.6578073089700996,5.8199737168117505
0.6777408637873754,5.809631311278207
0.6976744186046512,5.799635339623922
0.717607973421927,5.790025869998625
0.7375415282392027,5.780841649077422
0.7574750830564785,5.772119924347318
0.7774086378737541,5.763896270058446
0.7973421926910299,5.756204418024811
0.8172757475083057,5.7490760944818255
0.8372093023255814,5.742540864215266
0.8571428571428572,5.736625983168431
0.877076411960133,5.731356260709306
0.8970099667774087,5.726753932698171
0.9169435215946844,5.722838546436581
0.9368770764119602,5.719626858502162
0.9568106312292359,5.717132746381227
0.9767441860465116,5.715367134702429
0.9966777408637875,5.714337936752464
1.0166112956810631,5.714050011820396
1.036544850498339,5.714505138772843
1.0564784053156147,5.715702006110739
1.0764119601328903,5.717636218601764
1.0963455149501662,5.720300320425012
1.1162790697674418,5.723683834607352
1.1362126245847177,5.727773318378468
1.1561461794019936,5.732552433925696
1.176079734219269,5.738002033893244
1.196013289036545,5.74410026084616
1.2159468438538206,5.750822659808001
1.2358803986710964,5.758142302885636
1.255813953488372,5.766029924915258
1.275747508305648,5.774454069001164
1.2956810631229239,5.783381240774197
1.3156146179401993,5.792776070168799
1.3355481727574752,5.802601479506504
1.3554817275747508,5.812818856678767
1.3754152823920267,5.82338823224125
1.3953488372093024,5.834268459264364
1.4152823920265782,5.845417394829473
1.435215946843854,5.856792082114427
1.4551495016611296,5.868348932074535
1.4750830564784054,5.880043903794728
1.495016611295681,5.891832682661553
1.514950166112957,5.903670855581282
1.5348837209302328,5.915514082548046
1.5548172757475083,5.927318263944666
1.5747508305647842,5.939039703035641
1.5946843853820598,5.950635263186847
1.6146179401993357,5.962062519417756
1.6345514950166113,5.973279903959869
1.6544850498338872,5.9842468455577364
1.6744186046511629,5.994923902307142
1.6943521594684385,6.0052728878774175
1.7142857142857144,6.015256991012163
1.73421926910299,6.024840888244151
1.754152823920266,6.033990849796257
1.7740863787375416,6.042674838671114
1.7940199335548175,6.050862602957618
1.8139534883720931,6.0585257614031365
1.8338870431893688,6.0656378823162695
1.8538205980066447,6.072174555876711
1.8737541528239203,6.078113459936537
1.893687707641196,6.083434419401247
1.9136212624584719,6.088119459279917
1.9335548172757475,6.09215285149144
1.9534883720930232,6.095521155509423
1.9734219269102993,6.098213252921244
1.993355481727575,6.100220375967808
2.0132890365448506,6.101536130120271
2.0332225913621262,6.1021565107380145
2.0531561461794023,6.102079913839267
2.073089700996678,6.101307141002522
2.0930232558139537,6.099841398402198
2.1129568106312293,6.097688289968487
2.132890365448505,6.094855804646499
2.1528239202657806,6.091354297716356
2.1727574750830567,6.087196466122461
2.1926910299003324,6.082397317747952
2.212624584717608,6.076974134559219
2.2325581395348837,6.0709464295356375
2.25249169435216,6.064335897292063
2.2724252491694354,6.057166358295794
2.292358803986711,6.049463696576757
2.312292358803987,6.041255790829056
2.332225913621263,6.032572438805301
2.352159468438538,6.023445274911209
2.3720930232558137,6.01390768091881
2.39202657807309,6.003994689730659
2.4119601328903655,5.993742882147568
2.431893687707641,5.983190276615922
2.4518272425249172,5.972376211960933
2.471760797342193,5.961341223146398
2.4916943521594686,5.95012691014319
2.511627906976744,5.9387758000341515
2.5315614617940203,5.9273312025362115
2.551495016611296,5.9158370591776475
2.5714285714285716,5.904337786432071
2.5913621262458477,5.892878113178888
2.611295681063123,5.881502912932577
2.6312292358803986,5.870257031359667
2.6511627906976742,5.859185109681697
2.6710963455149503,5.848331404643299
2.691029900332226,5.837739605806529
2.7109634551495017,5.827452651012943
2.7308970099667778,5.817512540933521
2.7508305647840534,5.807960153700502
2.770764119601329,5.798835060683569
2.7906976744186047,5.790175344533075
2.810631229235881,5.78201742066388
2.8305647840531565,5.774395863392719
2.850498338870432,5.767343237968078
2.870431893687708,5.760889939743125
2.8903654485049834,5.755064041737578
2.910299003322259,5.749891151812854
2.9302325581395348,5.745394280645545
2.950166112956811,5.741593721626757
2.9700996677740865,5.738506943739824
2.990033222591362,5.736148498376037
3.0099667774086383,5.7345299409395025
3.029900332225914,5.733659767968132
3.0498338870431896,5.733543370361511
3.0697674418604657,5.73418300315879
3.089700996677741,5.735577772154533
3.1096345514950166,5.737723637479569
3.129568106312292,5.7406134341112125
3.1495016611295683,5.744236909114588
3.169435215946844,5.7485807752588265
3.1893687707641196,5.753628780499685
3.2093023255813957,5.759361792678205
3.2292358803986714,5.7657578986540425
3.249169435215947,5.772792516975968
3.2691029900332227,5.780438523090454
3.289036544850499,5.788666386005275
3.3089700996677744,5.797444315258532
3.32890365448505,5.806738416994467
3.3488372093023258,5.816512857916824
3.3687707641196014,5.826730035877267
3.388704318936877,5.837350755858889
3.4086378737541527,5.848334410133785
3.428571428571429,5.859639161405671
3.4485049833887045,5.871222127793108
3.46843853820598,5.883039568564094
3.4883720930232562,5.895047069596498
3.508305647840532,5.907199727609348
3.5282392026578075,5.919452332285796
3.548172757475083,5.93175954548739
3.5681063122923593,5.94407607683973
3.588039867109635,5.956356855050638
3.60797342192691,5.968557194401214
3.6279069767441863,5.9806329559275815
3.647840531561462,5.992540702885068
3.6677740863787376,6.004237850156369
3.6877076411960132,6.0156828073304816
3.7076411960132893,6.026835115239043
3.727574750830565,6.037655575791326
3.7475083056478407,6.048106374997754
3.7674418604651168,6.05815119911503
3.787375415282392,6.067755343883255
3.807308970099668,6.076885816857209
3.8272425249169437,6.085511432860396
3.8471760797342194,6.093602902612032
3.867109634551495,6.101132914593321
3.887043189368771,6.108076210231681
3.9069767441860463,6.114409652489627
3.9269102990033224,6.12011228794881
3.9468438538205985,6.12516540248081
3.9667774086378738,6.129552570593901
3.98671096345515,6.13325969853979
4.0066445182724255,6.136275061257341
4.026578073089701,6.138589333220493
4.046511627906977,6.140195613246804
4.0664451827242525,6.141089443310271
4.086378737541528,6.141268821388654
4.106312292358805,6.140734208360869
4.1262458471760795,6.139488528955196
4.146179401993356,6.13753716673362
4.166112956810632,6.134887953082526
4.186046511627907,6.1315511501647775
4.205980066445183,6.127539427774135
4.225913621262459,6.122867834019044
4.245847176079734,6.1175537597507725
4.26578073089701,6.111616896639889
4.2857142857142865,6.105079188795928
4.305647840531561,6.097964777818255
4.325581395348838,6.090299941161731
4.345514950166113,6.082113023699187
4.365448504983389,6.0734343623645834
4.385382059800665,6.064296203765992
4.40531561461794,6.054732614667297
4.425249169435216,6.04477938525102
4.445182724252492,6.03447392509401
4.465116279069767,6.023855151811251
4.485049833887043,6.012963372352827
4.50498338870432,6.00184015697448
4.524916943521594,5.990528205943356
4.544850498338871,5.9790712090882785
4.5647840531561465,5.967513698357642
4.584717607973422,5.95590089360791
4.604651162790698,5.944278541911443
4.624584717607974,5.932692750744142
4.644518272425249,5.921189815489389
4.664451827242526,5.909816041776033
4.6843853820598005,5.898617563252041
4.704318936877076,5.887640155482191
4.724252491694353,5.876929046745678
4.7441860465116275,5.866528726596644
4.764119601328904,5.856482753135685
4.78405315614618,5.846833560021365
4.803986710963455,5.837622264326186
4.823920265780731,5.828888476408648
4.8438538205980075,5.820670113030709
4.863787375415282,5.813003214995617
4.883720930232559,5.805921770612902
4.9036544850498345,5.799457546313975
4.92358803986711,5.7936399257411235
4.943521594684386,5.788495758614203
4.963455149501661,5.784049220641555
4.983388704318937,5.780321685684823
5.003322259136213,5.777331611310915
5.023255813953488,5.775094438769132
5.043189368770764,5.77362250831861
5.063122923588041,5.77292499070181
5.083056478405315,5.7730078354163785
5.102990033222592,5.7738737362821215
5.122923588039868,5.775522114635085
5.142857142857143,5.777949120310258
5.162790697674419,5.781147650400366
5.182724252491695,5.785107385605178
5.20265780730897,5.789814843815945
5.222591362126246,5.795253450416981
5.242524916943522,5.801403624633336
5.262458471760797,5.808242881112931
5.282392026578074,5.81574594580612
5.3023255813953485,5.823884885096249
5.322259136212625,5.832629247043774
5.342192691029901,5.841946213534399
5.362126245847176,5.85180076206882
5.382059800664452,5.862155835897729
5.4019933554817285,5.872972521191219
5.421926910299003,5.884210229934098
5.44186046511628,5.895826887258306
5.4617940199335555,5.907779121957644
5.48172757475083,5.920022458977732
5.501661129568107,5.932511512732802
5.5215946843853825,5.945200180169052
5.541528239202658,5.958041832569754
5.561461794019934,5.970989505178044
5.5813953488372094,5.983996083797567
5.601328903654485,5.997014487617062
5.621262458471762,6.009997847591086
5.641196013289036,6.022899679793712
5.661129568106313,6.035674053244191
5.681063122923589,6.048275751782264
5.700996677740864,6.060660429644594
5.72093023255814,6.072784760463172
5.740863787375416,6.084606579469512
5.760797342192691,6.096085018746168
5.780730897009967,6.107180635418318
5.800664451827243,6.1178555327233095
5.820598006644518,6.128073473935272
5.840531561461795,6.137799989154802
5.8604651162790695,6.147002475001395
5.880398671096346,6.155650287268039
5.900332225913622,6.163714826614386
5.920265780730897,6.1711696173869255
5.940199335548173,6.177990379662338
5.960132890365449,6.184155094613977
5.980066445182724,6.189644063301297
6.0,6.194439958979237
6.0199335548172765,6.1985278730183015
6.039867109634551,6.2018953545176085
6.059800664451828,6.204532443682683
6.0797342192691035,6.206431699026978
6.099667774086379,6.207588218442364
6.119601328903655,6.207999654168444
6.139534883720931,6.207666221674464
6.159468438538206,6.206590702450894
6.179401993355482,6.2047784406905775
6.1993355481727574,6.202237333822377
6.219269102990033,6.198977816843116
6.23920265780731,6.195012840377575
6.259136212624584,6.190357842380443
6.279069767441861,6.1850307133800655
6.299003322259137,6.179051755150743
6.318936877076412,6.172443632689336
6.338870431893688,6.165231319363146
6.3588039867109645,6.1574420350897565
6.378737541528239,6.149105177406146
6.398671096345516,6.140252245284764
6.418604651162791,6.130916755558123
6.438538205980066,6.121134151821836
6.458471760797343,6.110941705699136
6.4784053156146175,6.10037841036824
6.498338870431894,6.089484866277748
6.51827242524917,6.078303159005387
6.538205980066445,6.066876729251507
6.558139534883721,6.055250235001995
6.578073089700998,6.043469405944841
6.598006644518272,6.03158089028172
6.617940199335549,6.019632094139438
6.6378737541528245,6.007671013856889
6.6578073089701,5.995746061500037
6.677740863787376,5.983905884040525
6.6976744186046515,5.972199176721446
6.717607973421927,5.960674491226517
6.737541528239203,5.9493800393642235
6.7574750830564785,5.938363493075818
6.777408637873754,5.927671781673348
6.797342192691031,5.917350887309559
6.8172757475083055,5.907445639773318
6.837209302325582,5.897999511790236
6.857142857142858,5.889054416085997
6.877076411960133,5.8806505055373535
6.897009966777409,5.872825977790526
6.9169435215946855,5.865616885766409
6.93687707641196,5.859056955495262
6.956810631229236,5.853177412727477
6.9767441860465125,5.8480068197514985
6.996677740863787,5.84357092381281
7.016611295681064,5.839892518469531
7.036544850498339,5.836991319139371
7.056478405315615,5.83488385399152
7.076411960132891,5.833583371214806
7.096345514950166,5.833099763553439
7.116279069767442,5.833439510844707
7.136212624584719,5.834605641122797
7.156146179401993,5.836597710671697
7.17607973421927,5.839411803222164
7.196013289036546,5.8430405482957015
7.21594684385382,5.847473158507212
7.235880398671097,5.852695485450052
7.2558139534883725,5.858690093607198
7.275747508305648,5.8654363515630425
7.295681063122924,5.872910539634874
7.3156146179402,5.88108597290444
7.335548172757475,5.889933138509666
7.355481727574752,5.8994198459567215
7.3754152823920265,5.909511389133726
7.395348837209303,5.920170718650156
7.415282392026579,5.93135862309041
7.435215946843854,5.943033917754844
7.45514950166113,5.955153639466856
7.475083056478406,5.9676732460475765
7.495016611295681,5.9805468190995
7.514950166112956,5.9937272687949426
7.5348837209302335,6.007166539431423
7.554817275747508,6.020815814593172
7.574750830564784,6.034625720842308
7.5946843853820605,6.048546528953425
7.614617940199336,6.062528351798912
7.634551495016611,6.0765213380877965
7.6544850498338874,6.090475861255358
7.674418604651163,6.104342702894491
7.694352159468439,6.11807323020941
7.714285714285715,6.131619567058044
7.73421926910299,6.144934758230263
7.754152823920266,6.157972926683396
7.774086378737542,6.170689423524912
7.794019933554818,6.18304097059376
7.813953488372093,6.19498579554649
7.83388704318937,6.206483759402098
7.853820598006645,6.2174964765406795
7.8737541528239205,6.227987427185487
7.893687707641197,6.237922062426157
7.913621262458472,6.247267901863089
7.9335548172757475,6.255994623969953
7.953488372093024,6.264074149282349
7.9734219269103,6.2714807165279245
7.9933554817275745,6.278190951815427
8.013289036544851,6.284183930998779
8.033222591362128,6.289441235327626
8.053156146179402,6.29394700048761
8.073089700996679,6.297687959123092
8.093023255813954,6.3006534769220695
8.11295681063123,6.302835582328394
8.132890365448505,6.30422898992937
8.152823920265782,6.304831117549563
8.172757475083056,6.304642097062396
8.192691029900331,6.303664778911906
8.21262458471761,6.301904730316896
8.232558139534884,6.299370227109733
8.252491694352159,6.296072239142568
8.272425249169435,6.292024409173789
8.292358803986712,6.287243025129612
8.312292358803987,6.281746985618074
8.332225913621263,6.275557758556856
8.352159468438538,6.268699332762665
8.372093023255815,6.261198162337823
8.392026578073091,6.2530831036813685
8.411960132890366,6.244385344945658
8.43189368770764,6.235138327757851
8.451827242524917,6.225377661027626
8.471760797342194,6.215141026669059
8.491694352159469,6.2044680770771885
8.511627906976745,6.1934003242169435
8.53156146179402,6.181981020206813
8.551495016611296,6.170255029310028
8.571428571428573,6.158268691284548
8.591362126245848,6.14606967608867
8.611295681063122,6.133706829992708
8.6312292358804,6.121230013209269
8.651162790697676,6.108689929224428
8.67109634551495,6.096137946090184
8.691029900332227,6.083625910024396
8.710963455149502,6.071205951757938
8.730897009966778,6.058930286167656
8.750830564784053,6.046851005839469
8.77076411960133,6.035019869315273
8.790697674418604,6.0234880848889185
8.81063122923588,6.012306090929874
8.830564784053157,6.001523333824515
8.850498338870432,5.991188044733093
8.870431893687707,5.981347016462418
8.890365448504983,5.972045381847425
8.91029900332226,5.963326395116668
8.930232558139535,5.955231217784012
8.950166112956811,5.9477987106600345
8.970099667774086,5.9410652336071585
8.990033222591363,5.935064454673723
9.00996677740864,5.92982717022726
9.029900332225914,5.925381137670886
9.049833887043189,5.921750922262265
9.069767441860467,5.918957759466416
9.089700996677742,5.917019434159459
9.109634551495017,5.915950177863333
9.129568106312293,5.915760585031293
9.14950166112957,5.916457549225962
9.169435215946844,5.918044219836171
9.189368770764121,5.920519979771653
9.209302325581396,5.923880444358346
9.22923588039867,5.928117481437153
9.249169435215949,5.933219252449177
9.269102990033224,5.9391702740749635
9.289036544850498,5.945951499789936
9.308970099667773,5.9535404205046305
9.328903654485051,5.961911183281964
9.348837209302326,5.971034726967538
9.368770764119601,5.980878933433222
9.388704318936878,5.991408793024323
9.408637873754152,6.002586582713844
9.428571428571429,6.014372055406673
9.448504983388705,6.026722638801488
9.46843853820598,6.039593642204847
9.488372093023255,6.052938469705193
9.508305647840533,6.066708838144724
9.528239202657808,6.08085499837892
9.548172757475083,6.095325958379945
9.56810631229236,6.110069706821203
9.588039867109636,6.125033435871397
9.60797342192691,6.140163762026822
9.627906976744187,6.155406943915615
9.647840531561462,6.1707090961163855
9.667774086378738,6.186016398144142
9.687707641196015,6.201275297863534
9.70764119601329,6.216432708696865
9.727574750830565,6.231436200094487
9.747508305647841,6.246234180832195
9.767441860465118,6.260776074789135
9.787375415282392,6.2750124889425765
9.807308970099669,6.288895373390002
9.827242524916944,6.302378173276488
9.84717607973422,6.31541597256343
9.867109634551497,6.3279656296260915
9.887043189368772,6.339985904709926
9.906976744186046,6.351437579311586
9.926910299003321,6.362283567578912
9.9468438538206,6.37248901984598
9.966777408637874,6.382021418434926
9.986710963455149,6.3908506658662265
10.006644518272426,6.398949165623743
10.026578073089702,6.406291895620999
10.046511627906977,6.412856474510919
10.066445182724253,6.418623220973126
10.086378737541528,6.423575206102132
10.106312292358805,6.427698299005083
10.126245847176081,6.430981205701647
10.146179401993356,6.43341550139966
10.16611295681063,6.434995656199925
10.186046511627907,6.435719054261643
10.205980066445184,6.435586006437145
10.225913621262459,6.43459975636093
10.245847176079735,6.43276647995386
10.26578073089701,6.430095278279139
10.285714285714286,6.426598163662472
10.305647840531563,6.42229003896532
10.325581395348838,6.4171886698770475
10.345514950166113,6.411314650070422
10.36544850498339,6.404691359044444
10.385382059800666,6.3973449124607615
10.40531561461794,6.38930410476383
10.425249169435217,6.380600343862492
10.445182724252492,6.371267577641373
10.465116279069768,6.361342212064997
10.485049833887045,6.3508630206372265
10.50498338870432,6.339871044983066
10.524916943521594,6.32840948633059
10.544850498338871,6.3165235876879935
10.564784053156147,6.304260506535145
10.584717607973422,6.291669177881555
10.604651162790697,6.278800167583677
10.624584717607974,6.26570551586427
10.64451827242525,6.2524385710365
10.664451827242525,6.239053813504686
10.684385382059801,6.225606670193137
10.704318936877076,6.212153319644257
10.724252491694353,6.198750488126224
10.74418604651163,6.185455237199485
10.764119601328904,6.1723247433080415
10.784053156146179,6.1594160700864204
10.803986710963457,6.146785934203315
10.823920265780732,6.134490465697474
10.843853820598007,6.122584963897737
10.863787375415283,6.111123650154875
10.88372093023256,6.100159418745164
10.903654485049834,6.089743587431302
10.923588039867111,6.07992564928222
10.943521594684386,6.070753027455901
