Frequency (Hz),Amplitude
0.0,1.4695908133834825
0.019823788546255508,1.4703539422891918
0.039647577092511016,1.4726378892501297
0.059471365638766524,1.4764264313640554
0.07929515418502203,1.4816928474941973
0.09911894273127755,1.4884003794991594
0.11894273127753305,1.4965028504766025
0.13876651982378857,1.5059454151116924
0.15859030837004406,1.5166654134236799
0.17841409691629956,1.528593297349521
0.1982378854625551,1.5416535996299954
0.2180616740088106,1.5557659161457815
0.2378854625550661,1.5708458758437998
0.25770925110132165,1.5868060762976355
0.27753303964757714,1.6035569673449195
0.29735682819383263,1.6210076697717404
0.31718061674008813,1.6390667203553335
0.3370044052863437,1.657642738508838
0.3568281938325991,1.6766450131483845
0.37665198237885467,1.6959840111531004
0.3964757709251102,1.7155718109053344
0.41629955947136565,1.7353224659158963
0.4361233480176212,1.755152304525632
0.4559471365638767,1.7749801722112408
0.4757709251101322,1.7947276231975748
0.49559471365638774,1.8143190679758792
0.5154185022026433,1.8336818830232096
0.5352422907488987,1.8527464885791713
0.5550660792951543,1.8714463998160844
0.5748898678414097,1.8897182561806367
0.5947136563876653,1.9075018331197258
0.6145374449339208,1.9247400398566712
0.6343612334801763,1.941378906367748
0.6541850220264318,1.9573675622364723
0.6740088105726874,1.9726582096362637
0.6938325991189428,1.9872060923147823
0.7136563876651982,2.0009694621226224
0.7334801762114539,2.0139095443449033
0.7533039647577093,2.0259905028509486
0.7731277533039648,2.0371794058723607
0.7929515418502204,2.0474461930490295
0.8127753303964759,2.05676364424101
0.8325991189427313,2.065107350488831
0.8524229074889869,2.072455687411717
0.8722466960352424,2.0787897912587434
0.8920704845814978,2.0840935377697085
0.9118942731277534,2.0883535239572093
0.931718061674009,2.091559052887652
0.9515418502202644,2.093702121513001
0.9713656387665199,2.094777411587454
0.9911894273127755,2.094782283689562
1.0110132158590308,2.0937167743618326
1.0308370044052866,2.091583596372729
1.0506607929515421,2.0883881421010093
1.0704845814977975,2.0841384900365916
1.090308370044053,2.078845414385715
1.1101321585903086,2.07252239775844
1.1299559471365639,2.0651856469037395
1.1497797356828194,2.056854111438265
1.1696035242290752,2.0475495054893096
1.1894273127753305,2.0372963321374242
1.209251101321586,2.0261219104986066
1.2290748898678416,2.0140564052260475
1.248898678414097,2.0011328581368306
1.2687224669603525,1.9873872215734198
1.288546255506608,1.972858392993695
1.3083700440528636,1.9575882501394597
1.3281938325991192,1.9416216859606479
1.3480176211453747,1.9250066422650995
1.36784140969163,1.9077941408182588
1.3876651982378856,1.8900383103297045
1.4074889867841411,1.8717964074305349
1.4273127753303965,1.853128829364491
1.4471365638766522,1.8340991156869229
1.4669603524229078,1.8147739357894601
1.4867841409691631,1.7952230585510907
1.5066079295154187,1.7755192998670668
1.5264317180616742,1.7557384432429053
1.5462555066079295,1.7359591280835147
1.5660792951541853,1.71626269979213
1.5859030837004409,1.6967330153609763
1.6057268722466962,1.6774561978430345
1.6255506607929517,1.658520333005401
1.6453744493392073,1.6400151016598994
1.6651982378854626,1.6220313417272
1.6850220264317182,1.6046605351072276
1.7048458149779737,1.5879942159793752
1.7246696035242293,1.5721232993089973
1.7444933920704848,1.557137331122543
1.7643171806167404,1.5431236655236915
1.7841409691629957,1.5301665773794462
1.8039647577092512,1.5183463239616044
1.8237885462555068,1.507738173350918
1.8436123348017623,1.4984114217891211
1.863436123348018,1.4904284260195786
1.8832599118942732,1.4838436795822154
1.9030837004405288,1.478702963620988
1.9229074889867843,1.4750426026860621
1.9427312775330399,1.4728888540506426
1.9625550660792954,1.4722574551627023
1.982378854625551,1.4731533481625823
2.002202643171806,1.475570593262086
2.0220264317180616,1.479492474718305
2.041850220264317,1.4848917947746785
2.061674008810573,1.4917313429519043
2.0814977973568287,1.4999645210738013
2.1013215859030843,1.5095360989066349
2.1211453744493394,1.520383071601444
2.140969162995595,1.5324355883782392
2.1607929515418505,1.5456179220104964
2.180616740088106,1.5598494504228946
2.2004405286343616,1.5750456247589397
2.220264317180617,1.5911189022040515
2.2400881057268722,1.6079796262562895
2.2599118942731278,1.6255368416500142
2.2797356828193833,1.6436990354559649
2.299559471365639,1.6623747997803615
2.319383259911895,1.6814734148259183
2.3392070484581504,1.7009053537925025
2.3590308370044055,1.7205827131773368
2.378854625550661,1.7404195735234695
2.3986784140969166,1.7603322966269344
2.418502202643172,1.780239765730558
2.4383259911894277,1.8000635753923675
2.4581497797356833,1.8197281776040495
2.4779735682819384,1.8391609904243886
2.497797356828194,1.8582924749503935
2.5176211453744495,1.8770561859281485
2.537444933920705,1.895388800747453
2.5572687224669606,1.913230131001844
2.577092511013216,1.9305231202507616
2.5969162995594717,1.9472138311079525
2.6167400881057272,1.963251424310508
2.6365638766519828,1.9785881319993925
2.6563876651982383,1.9931792270677235
2.676211453744494,2.0069829901053473
2.6960352422907494,2.0199606751863404
2.715859030837005,2.032076475504817
2.73568281938326,2.043297489661915
2.7555066079295156,2.0535936892367035
2.775330396475771,2.0629378881346465
2.7951541850220267,2.071305714092025
2.8149779735682823,2.0786755826231893
2.834801762114538,2.0850286736236057
2.854625550660793,2.0903489107840274
2.874449339207049,2.0946229439263084
2.8942731277533045,2.0978401343379587
2.91409691629956,2.099992543157032
2.9339207048458156,2.1010749228410277
2.953744493392071,2.1010847117405245
2.9735682819383262,2.1000220317890665
2.993392070484582,2.0978896893141847
3.0132158590308373,2.094693178968856
3.033039647577093,2.090440690776896
3.0528634361233484,2.0851431202787203
3.072687224669604,2.0788140817541327
3.092511013215859,2.0714699244848536
3.1123348017621146,2.063129752000063
3.1321585903083706,2.0538154442212844
3.151982378854626,2.0435516823874944
3.1718061674008817,2.0323659765936086
3.1916299559471373,2.020288695715076
3.2114537444933924,2.0073530994140225
3.231277533039648,1.9935953718257644
3.2511013215859035,1.9790546564054459
3.270925110132159,1.9637730912684552
3.2907488986784146,1.9477958441828849
3.31057268722467,1.931171146161458
3.3303964757709252,1.9139503223516356
3.350220264317181,1.8961878186316434
3.3700440528634363,1.8779412219836427
3.389867841409692,1.8592712723299833
3.4096916299559474,1.840241863087683
3.4295154185022034,1.820920027215742
3.4493392070484585,1.8013759050119014
3.469162995594714,1.781682689366082
3.4889867841409696,1.7619165436140398
3.508810572687225,1.74215648658328
3.5286343612334807,1.7224842389144808
3.5484581497797363,1.7029840243218943
3.5682819383259914,1.683742319179572
3.588105726872247,1.6648475437549024
3.6079295154185025,1.6463896886338008
3.627753303964758,1.6284598704774096
3.6475770925110136,1.6111498123057457
3.667400881057269,1.5945512450985455
3.6872246696035247,1.5787552296998517
3.7070484581497802,1.56385140084227
3.726872246696036,1.5499271385509983
3.7466960352422913,1.537066676168398
3.7665198237885464,1.5253501586012945
3.7863436123348024,1.5148526688982826
3.8061674008810575,1.5056432455980215
3.8259911894273135,1.4977839170732867
3.8458149779735686,1.4913287819229353
3.8656387665198246,1.4863231659370302
3.8854625550660797,1.4828028859552862
3.905286343612335,1.480793648846362
3.925110132158591,1.4803106098219672
3.9449339207048464,1.4813581085225875
3.964757709251102,1.4839295941280541
3.9845814977973575,1.4880077426794347
4.004405286343612,1.4935647614792245
4.024229074889869,1.5005628675280165
4.044052863436123,1.5089549200692496
4.06387665198238,1.5186851819350555
4.083700440528634,1.5296901808270915
4.103524229074891,1.5418996400355984
4.123348017621146,1.555237448318213
4.143171806167401,1.5696226404867883
4.162995594713657,1.584970363336926
4.182819383259912,1.601192805499944
4.2026431718061685,1.6182000741946148
4.222466960352423,1.6359010063440012
4.242290748898679,1.6542039058027957
4.262114537444934,1.673017202296669
4.28193832599119,1.6922500309702624
4.301762114537445,1.711812734113988
4.321585903083701,1.7316172886842942
4.3414096916299565,1.7515776646908305
4.361233480176212,1.7716101204610428
4.381057268722468,1.7916334412924242
4.400881057268723,1.8115691281513369
4.420704845814979,1.8313415429565199
4.440528634361234,1.8508780166721621
4.46035242290749,1.870108925992257
4.4801762114537445,1.8889677438784822
4.500000000000001,1.9073910686593318
4.5198237885462555,1.9253186358388286
4.539647577092512,1.9426933162220466
4.559471365638767,1.959461103457039
4.579295154185023,1.975571093625766
4.599118942731278,1.990975459097523
4.618942731277533,2.0056294184866448
4.63876651982379,2.0194912042317155
4.658590308370044,2.032522029033542
4.678414096916301,2.0446860521509165
4.6982378854625555,2.055950346351263
4.718061674008811,2.066284866145906
4.737885462555067,2.075662417800492
4.757709251101322,2.0840586314979404
4.777533039647578,2.091451935939679
4.797356828193833,2.0978235355979398
4.817180616740089,2.1031573907745806
4.837004405286344,2.1074402005775252
4.856828193832599,2.1106613888923045
4.876651982378855,2.1128130934009564
4.896475770925111,2.113890157682747
4.9162995594713665,2.113890126417547
4.936123348017622,2.1128132437040126
4.955947136563877,2.1106624544969823
4.975770925110133,2.1074434091631313
4.995594713656388,2.1031644711471786
5.015418502202644,2.0978367277336294
5.035242290748899,2.091474003877808
5.055066079295155,2.084092879065888
5.07488986784141,2.0757127071422516
5.094713656387666,2.0663556390148945
5.114537444933921,2.0560466481118684
5.134361233480177,2.0448135584129017
5.154185022026432,2.032687074817145
5.174008810572688,2.019700815528616
5.193832599118943,2.005891346041156
5.213656387665199,1.9912982141825957
5.2334801762114544,1.9759639855282591
5.25330396475771,1.9599342783138813
5.2731277533039655,1.9432577967635367
5.292951541850221,1.925986361494409
5.312775330396477,1.908174935364182
5.332599118942731,1.8898816427853977
5.352422907488988,1.8711677801417224
5.372246696035242,1.852097814504269
5.392070484581499,1.8327393673641557
5.4118942731277535,1.8131631795759626
5.43171806167401,1.7934430531578627
5.451541850220265,1.7736557650339482
5.47136563876652,1.753880947258999
5.491189427312777,1.7342009277690973
5.511013215859031,1.714700525299211
5.530837004405288,1.695466791856796
5.550660792951542,1.6765886961071772
5.570484581497798,1.6581567412890834
5.5903083700440535,1.6402625119228895
5.610132158590309,1.6229981446834683
5.6299559471365646,1.606455720463536
5.64977973568282,1.5907265769098464
5.669603524229076,1.57590054359883
5.689427312775331,1.562065105508316
5.709251101321586,1.5493045044499927
5.729074889867842,1.5376987924918404
5.748898678414098,1.527322855876063
5.768722466960353,1.5182454322077696
5.788546255506609,1.5105281473721388
5.808370044052864,1.5042246013296572
5.82819383259912,1.4993795332524675
5.848017621145375,1.4960280960853398
5.867841409691631,1.4941952683538544
5.887665198237886,1.493895426880949
5.907488986784142,1.495132098187802
5.927312775330397,1.4978978991156917
5.9471365638766525,1.5021746691416051
5.966960352422908,1.5079337886030655
5.986784140969164,1.5151366692512525
6.00660792951542,1.5237353968136764
6.026431718061675,1.5336735000372996
6.04625550660793,1.544886817291087
6.066079295154186,1.5573044303288812
6.085903083700441,1.5708496351540113
6.105726872246697,1.5854409218416277
6.125550660792952,1.6009929383105705
6.145374449339208,1.6174174169958988
6.1651982378854635,1.634624047756607
6.185022026431718,1.652521284804459
6.204845814977975,1.6710170796703319
6.224669603524229,1.6900195360241355
6.244493392070486,1.7094374854037124
6.264317180616741,1.7291809855286322
6.284140969162996,1.7491617448747738
6.303964757709252,1.769293478606549
6.323788546255507,1.78949220187249
6.3436123348017635,1.8096764669495045
6.363436123348018,1.829767550855293
6.3832599118942746,1.8496895999208731
6.403083700440529,1.8693697374979392
6.422907488986785,1.8887381405336978
6.44273127753304,1.9077280902278235
6.462555066079296,1.9262760014364522
6.482378854625551,1.9443214349329847
6.502202643171807,1.9618070961001821
6.5220264317180625,1.978678823124325
6.541850220264318,1.9948855673011714
6.561674008810574,2.0103793676482193
6.581497797356829,2.0251153216496256
6.601321585903085,2.039051553639396
6.62114537444934,2.05214918205173
6.640969162995596,2.0643722865300904
6.6607929515418505,2.0756878756887027
6.680616740088107,2.08606585615265
6.700440528634362,2.095479003365671
6.720264317180618,2.103902934542459
6.740088105726873,2.1113160840513756
6.759911894273129,2.117699681440927
6.779735682819384,2.1230377322665044
6.799559471365639,2.127317001829925
6.819383259911895,2.1305270019102025
6.83920704845815,2.132659980539569
6.859030837004407,2.133710914859849
6.8788546255506615,2.133677507081458
6.898678414096917,2.1325601835571018
6.918502202643173,2.130362096975178
6.938325991189428,2.1270891316709113
6.958149779735684,2.1227499120464883
6.977973568281939,2.1173558140825897
6.997797356828195,2.110920979912224
7.01762114537445,2.1034623354112654
7.037444933920705,2.0949996107382236
7.0572687224669615,2.085555363725706
7.077092511013216,2.075155005986188
7.096916299559473,2.0638268315434294
7.116740088105728,2.05160204773468
7.136563876651983,2.038514808045787
7.156387665198239,2.024602246438164
7.176211453744494,2.009904512599304
7.19603524229075,1.9944648073942353
7.215859030837005,1.9783294176101793
7.235682819383261,1.9615477488651458
7.255506607929516,1.9441723552914827
7.275330396475772,1.9262589643027055
7.295154185022027,1.9078664944028956
7.314977973568283,1.8890570636022508
7.334801762114538,1.8698959855595956
7.354625550660794,1.8504517500849136
7.374449339207049,1.830795984111887
7.394273127753305,1.8110033886999148
7.4140969162995605,1.7911516470696252
7.433920704845816,1.771321298139126
7.453744493392072,1.7515955695473877
7.473568281938327,1.7320601637719597
7.493392070484583,1.712802990729781
7.513215859030838,1.693913840259148
7.533039647577093,1.6754839881988959
7.552863436123348,1.6576057304885086
7.572687224669605,1.6403718408976824
7.59251101321586,1.6238749497270635
7.612334801762115,1.608206843159509
7.6321585903083715,1.5934576859025704
7.651982378854627,1.57971517331348
7.671806167400882,1.5670636232468185
7.691629955947137,1.5555830222339126
7.711453744493394,1.545348045044786
7.731277533039649,1.5364270708688403
7.751101321585904,1.5288812229010769
7.7709251101321595,1.522763460633739
7.790748898678416,1.5181177552556575
7.81057268722467,1.514978377951645
7.830396475770926,1.5133693284090837
7.850220264317182,1.5133039264801122
7.870044052863436,1.51478458391605
7.889867841409693,1.5178027657727837
7.909691629955948,1.5223391430194946
7.929515418502204,1.5283639297009481
7.9493392070484585,1.5358373903468894
7.969162995594715,1.5447104967740377
7.9889867841409705,1.5549257084296249
8.008810572687224,1.5664178472505708
8.02863436123348,1.5791150367302187
8.048458149779737,1.5929396753877172
8.068281938325994,1.6078094168651507
8.088105726872246,1.6236381320831788
8.107929515418503,1.6403368328690708
8.12775330396476,1.6578145408413856
8.147577092511014,1.6759790897459277
8.167400881057269,1.6947378536083697
8.187224669603525,1.7139983968006325
8.207048458149782,1.733669045288351
8.226872246696036,1.753659380881385
8.246696035242293,1.7738806622532683
8.266519823788547,1.794246177868786
8.286343612334802,1.81467153683102
8.306167400881058,1.8350749041120145
8.325991189427315,1.8553771867472186
8.345814977973568,1.8755021774351723
8.365638766519824,1.8953766616617334
8.38546255506608,1.9149304940246026
8.405286343612337,1.9340966489189961
8.42511013215859,1.9528112501984023
8.444933920704846,1.9710135838756466
8.464757709251103,1.9886460973990048
8.484581497797357,2.0056543885407847
8.504405286343614,2.0219871864802403
8.524229074889869,2.0375963272519235
8.544052863436125,2.0524367253682523
8.56387665198238,2.066466343107156
8.583700440528636,2.0796461586827766
8.60352422907489,2.0919401342832837
8.623348017621145,2.1033151847634843
8.643171806167402,2.1137411476149475
8.662995594713658,2.1231907547007403
8.682819383259913,2.1316396061306855
8.702643171806168,2.1390661465630276
8.722466960352424,2.1454516441467084
8.74229074889868,2.150780172262049
8.762114537444935,2.15503859417368
8.78193832599119,2.1582165506760087
8.801762114537446,2.160306450786671
8.821585903083701,2.161303465524685
8.841409691629957,2.161205524796496
8.861233480176212,2.160013317402861
8.881057268722468,2.1577302941716723
8.900881057268723,2.1543626742138344
8.92070484581498,2.1499194542921294
8.940528634361234,2.144412421282541
8.960352422907489,2.1378561676945442
8.980176211453745,2.1302681101991716
9.000000000000002,2.1216685110891187
9.019823788546258,2.1120805025629608
9.039647577092511,2.101530113682972
9.059471365638768,2.0900462998010636
9.079295154185024,2.0776609741774053
9.099118942731279,2.064409041428786
9.118942731277533,2.050328432335057
9.13876651982379,2.0354601393990497
9.158590308370046,2.0198482523943855
9.1784140969163,2.0035399929422724
9.198237885462555,1.9865857469295445
9.218061674008812,1.9690390933108275
9.237885462555067,1.9509568275259976
9.257709251101323,1.9323989774050072
9.27753303964758,1.9134288090277627
9.297356828193834,1.8941128195540966
9.317180616740089,1.8745207135451785
9.337004405286345,1.8547253587683716
9.356828193832602,1.8348027169270524
9.376651982378855,1.814831744204525
9.396475770925111,1.7948942559854344
9.416299559471367,1.7750747496561767
9.436123348017622,1.7554601790371618
9.455947136563877,1.7361396738224155
9.475770925110133,1.7172041974690542
9.49559471365639,1.6987461373663237
9.515418502202644,1.680858821908506
9.5352422907489,1.6636359603771875
9.555066079295155,1.647171003379227
9.57488986784141,1.6315564240338003
9.594713656387666,1.6168829231658528
9.614537444933923,1.6032385654023102
9.634361233480178,1.5907078571723783
9.654185022026432,1.5793707819988005
9.674008810572689,1.569301812870608
9.693832599118945,1.5605689255730035
9.713656387665198,1.5532326402362748
9.733480176211454,1.5473451206550475
9.75330396475771,1.5429493617593262
9.773127753303967,1.5400784947134243
9.792951541850222,1.5387552363381225
9.812775330396477,1.5389915049303404
9.832599118942733,1.54078821832115
9.852422907488988,1.5441352825772252
9.872246696035244,1.5490117716634035
9.892070484581499,1.5553862902776534
9.911894273127754,1.5632175045762604
9.93171806167401,1.5724548191855592
9.951541850220266,1.5830391741641228
9.971365638766521,1.594903932675897
9.991189427312776,1.607975829104773
10.011013215859032,1.6221759480554887
10.030837004405289,1.6374207068747588
10.050660792951543,1.6536228176324128
10.070484581497798,1.6706922085308806
10.090308370044054,1.6885368890792727
10.11013215859031,1.7070637477393527
10.129955947136565,1.7261792748580882
10.14977973568282,1.7457902073550169
10.169603524229077,1.7658040947215956
10.189427312775331,1.7861297883662204
10.209251101321588,1.8066778582117333
10.229074889867842,1.8273609417661552
10.248898678414099,1.848094031712145
10.268722466960353,1.8687947084765482
10.28854625550661,1.8893833243323441
10.308370044052865,1.9097831454293048
10.32819383259912,1.9299204578181144
10.348017621145376,1.9497246430849937
10.367841409691632,1.9691282286989267
10.387665198237887,1.9880669176298387
10.407488986784141,2.0064796012513004
10.427312775330398,2.0243083590171973
10.447136563876654,2.0414984479098086
10.466960352422909,2.057998284207295
10.486784140969164,2.0737594197138054
10.50660792951542,2.0887365142374392
10.526431718061675,2.102887305788953
10.546255506607931,2.1161725797043944
10.566079295154186,2.128556137664847
10.585903083700442,2.140004767392826
10.605726872246697,2.1504882136423107
10.625550660792953,2.1599791509658792
10.645374449339208,2.1684531586324733
10.665198237885463,2.175888697980978
