Time (s),Filtered Signal
0.0,0.07435800667228974
0.03337004405286344,0.1725379681029001
0.06674008810572687,0.23579137676033413
0.10011013215859031,0.242398765792332
0.13348017621145375,0.18994629602475308
0.16685022026431717,0.09598316788228013
0.20022026431718062,-0.008119375218895154
0.23359030837004408,-0.08765329486730719
0.2669603524229075,-0.11564475659642405
0.3003303964757709,-0.08089467999309384
0.33370044052863435,0.009297490053609102
0.3670704845814978,0.13211521227821876
0.40044052863436125,0.25652588927932296
0.43381057268722467,0.3524000924852246
0.46718061674008815,0.39871399194996343
0.5005506607929515,0.3886348620169673
0.533920704845815,0.33028415490611035
0.5672907488986785,0.24314036712510229
0.6006607929515418,0.15120679239648346
0.6340308370044053,0.07504851708671871
0.6674008810572687,0.0252946101861688
0.7007709251101322,-0.00014016195979761132
0.7341409691629956,-0.01413681767191863
0.767511013215859,-0.0346165403279066
0.8008810572687225,-0.07741355668342408
0.834251101321586,-0.15078523643514685
0.8676211453744493,-0.25365668713424827
0.9009911894273128,-0.3776919082663736
0.9343612334801763,-0.5112322870106384
0.9677312775330397,-0.6422756057774675
1.001101321585903,-0.7586403612747042
1.0344713656387665,-0.8457949464552007
1.06784140969163,-0.8850383753692618
1.1012114537444935,-0.8551753057951449
1.134581497797357,-0.7389190052904201
1.1679515418502202,-0.5319643097882965
1.2013215859030837,-0.2500946075128386
1.2346916299559472,0.07030741383638298
1.2680616740088106,0.38007056713528403
1.3014317180616741,0.6308813257824747
1.3348017621145374,0.7892817588279052
1.3681718061674009,0.8455044723164359
1.4015418502202643,0.8143681098689364
1.4349118942731278,0.7290553393388821
1.4682819383259913,0.6308927960174779
1.5016519823788548,0.5583722391901237
1.535022026431718,0.5374303167914194
1.5683920704845815,0.5740476726453426
1.601762114537445,0.6504374790526306
1.6351321585903085,0.7268822398177942
1.668502202643172,0.7511047088524146
1.7018722466960352,0.6748205069293787
1.7352422907488987,0.47329235765149186
1.7686123348017622,0.16035146504783196
1.8019823788546256,-0.20904979999341558
1.8353524229074891,-0.5528519407164075
1.8687224669603526,-0.7894838464782876
1.9020925110132159,-0.8688932775725767
1.9354625550660793,-0.7935545937163444
1.9688325991189428,-0.6190434584825798
2.002202643171806,-0.43247575329352217
2.0355726872246698,-0.31744814636251123
2.068942731277533,-0.32072735467691454
2.1023127753303967,-0.43520583429151
2.13568281938326,-0.6059181034127953
2.1690528634361232,-0.755279163658521
2.202422907488987,-0.8155340766558434
2.23579295154185,-0.7543509796999472
2.269162995594714,-0.5838162758722679
2.302533039647577,-0.35106097584016727
2.3359030837004404,-0.11642136385421462
2.369273127753304,0.07073436045837485
2.4026431718061674,0.18876849657465708
2.436013215859031,0.2475007516234828
2.4693832599118943,0.2789762528308235
2.5027533039647576,0.32028880447510427
2.5361233480176213,0.3959844299476043
2.5694933920704845,0.5070816406929592
2.6028634361233483,0.6307387159246018
2.6362334801762115,0.7302982954980082
2.6696035242290748,0.7713842070865605
2.7029735682819385,0.7373306215381004
2.7363436123348017,0.6373905457210494
2.7697136563876654,0.5039733479510775
2.8030837004405287,0.37968811579476697
2.8364537444933924,0.2994725990589977
2.8698237885462556,0.2755617505116139
2.903193832599119,0.2921425603250763
2.9365638766519826,0.3123679313807395
2.969933920704846,0.2947360181622993
3.0033039647577096,0.21139782726778578
3.036674008810573,0.0600150016522842
3.070044052863436,-0.13608298816846523
3.1034140969162998,-0.33903003980707913
3.136784140969163,-0.5130778091828351
3.1701541850220267,-0.6386241046920095
3.20352422907489,-0.7171550942453027
3.2368942731277532,-0.765429687217988
3.270264317180617,-0.8026255022287108
3.30363436123348,-0.8374487004224279
3.337004405286344,-0.8618374068499918
3.370374449339207,-0.8542171383758118
3.4037444933920704,-0.7903042241237742
3.437114537444934,-0.6557702039315396
3.4704845814977974,-0.45446470891292695
3.503854625550661,-0.20845686383351145
3.5372246696035243,0.04963865606274831
3.5705947136563876,0.28798882114984886
3.6039647577092513,0.48519179396501644
3.6373348017621145,0.6343186652892456
3.6707048458149782,0.7404645241218316
3.7040748898678415,0.8139479882896486
3.737444933920705,0.8628908651559966
3.7708149779735685,0.8885674832827757
3.8041850220264317,0.8851285214554832
3.8375550660792954,0.8431535902224786
3.8709251101321587,0.7549825350124207
3.9042951541850224,0.619387407911855
3.9376651982378856,0.44375295118871494
3.971035242290749,0.24309352253831457
4.004405286343612,0.03647707504504285
4.037775330396476,-0.15764156641968316
4.0711453744493395,-0.32535991372963
4.104515418502203,-0.45916535958199656
4.137885462555066,-0.5573475436150579
4.171255506607929,-0.6218283685291116
4.2046255506607935,-0.6559075636172288
4.237995594713657,-0.6631764943608734
4.27136563876652,-0.6478429149875261
4.304735682819383,-0.6155590649105481
4.3381057268722465,-0.5733093806899897
4.371475770925111,-0.5274187805663533
4.404845814977974,-0.4800997648160903
4.438215859030837,-0.4264040733661651
4.4715859030837,-0.35401795387228996
4.504955947136564,-0.24742639901808172
4.538325991189428,-0.09576300745082257
4.571696035242291,0.09878652210992575
4.605066079295154,0.31639169781473325
4.638436123348018,0.5221417293960721
4.671806167400881,0.6759862788934943
4.705176211453745,0.7465075396458498
4.738546255506608,0.7226664646489891
4.7719162995594715,0.6182433940312987
4.805286343612335,0.46697070370940935
4.838656387665198,0.310577052929999
4.872026431718062,0.1849103355349579
4.905396475770925,0.10964044376302587
4.938766519823789,0.08495040028420746
4.972136563876652,0.09544093806608935
5.005506607929515,0.11873412053441325
5.038876651982379,0.13491812888502575
5.072246696035243,0.13319686325214264
5.105616740088106,0.11354031258078415
5.138986784140969,0.08321627364967518
5.172356828193832,0.05017619523142995
5.2057268722466965,0.016642593087148307
5.23909691629956,-0.023748864183323004
5.272466960352423,-0.08347237441279128
5.305837004405286,-0.17412537953061127
5.3392070484581495,-0.29819011326763645
5.372577092511014,-0.44377190969156183
5.405947136563877,-0.5854181454557942
5.43931718061674,-0.6913485014524532
5.4726872246696034,-0.7343535496091651
5.506057268722468,-0.7017877757175567
5.539427312775331,-0.6004013157221011
5.572797356828194,-0.45401518426368936
5.606167400881057,-0.2950853675121095
5.639537444933921,-0.15358526196773095
5.672907488986785,-0.04741876914896746
5.706277533039648,0.022318304989519304
5.739647577092511,0.06986850847180663
5.7730176211453745,0.11796781567222936
5.806387665198238,0.1882123398322334
5.839757709251102,0.2920935579410284
5.873127753303965,0.42589421183061427
5.9064977973568284,0.5712466905163587
5.939867841409692,0.701050133837373
5.973237885462555,0.7884124805414727
6.006607929515419,0.8151869968484234
6.039977973568282,0.7769871550713641
6.073348017621146,0.6831188951489503
6.106718061674009,0.551948015340676
6.140088105726872,0.40394064723937007
6.173458149779736,0.25532414389127495
6.2068281938325995,0.11479476228568282
6.240198237885463,-0.015817611567991986
6.273568281938326,-0.13789908959337568
6.306938325991189,-0.2517723902736386
6.3403083700440535,-0.3542984749400526
6.373678414096917,-0.43964304173676066
6.40704845814978,-0.5025430152941254
6.440418502202643,-0.541886750379299
6.4737885462555065,-0.5622499181755468
6.507158590308371,-0.5722776359300041
6.540528634361234,-0.5806450902753658
6.573898678414097,-0.5916237758379116
6.60726872246696,-0.6023534413131888
6.640638766519824,-0.6029427915240161
6.674008810572688,-0.5792468478972432
6.707378854625551,-0.5172968310458533
6.740748898678414,-0.40809390840413856
6.774118942731278,-0.2515788171311434
6.807488986784141,-0.058751758314203414
6.840859030837005,0.14890906525975744
6.874229074889868,0.3431997008188509
6.9075991189427315,0.4958000866612071
6.940969162995595,0.5863070138398172
6.974339207048458,0.6091937745368552
7.007709251101322,0.5767991474497299
7.041079295154185,0.5162374517993831
7.074449339207049,0.46019716737630123
7.107819383259912,0.43436139522433836
7.141189427312775,0.4464024965086839
7.174559471365639,0.48180196421699745
7.207929515418503,0.5094248879859552
7.241299559471366,0.49547134569815043
7.274669603524229,0.4200821736147277
7.308039647577092,0.28885046185268015
7.3414096916299565,0.133187283227637
7.37477973568282,-0.001599704856352361
7.408149779735683,-0.07583409402688238
7.441519823788546,-0.07408472580649407
7.47488986784141,-0.014418610029784527
7.508259911894274,0.05620269884617998
7.541629955947137,0.07894549417940205
7.575,0.005894923190285776
7.608370044052863,-0.18034872320802126
7.641740088105728,-0.4578646818626374
7.675110132158591,-0.7706869842628712
7.708480176211454,-1.0460137326115764
7.741850220264317,-1.216797125857882
7.775220264317181,-1.2415025353750637
7.808590308370045,-1.114487501290909
7.841960352422908,-0.8645333537499813
7.875330396475771,-0.543576360697199
7.9087004405286345,-0.21063716440213048
7.942070484581498,0.08355462038153795
7.975440528634362,0.3071843364091762
8.008810572687224,0.4513262688764383
8.042180616740088,0.5273114788785624
8.075550660792953,0.5590157839602189
8.108920704845815,0.572696964014055
8.142290748898679,0.5876158977402925
8.175660792951541,0.6104162114714983
8.209030837004406,0.6349074913591761
8.24240088105727,0.6468470144417099
8.275770925110132,0.6313936784158277
8.309140969162996,0.5800032174633125
8.342511013215859,0.49404962465563274
8.375881057268723,0.3840857838456759
8.409251101321587,0.26557307820021697
8.44262114537445,0.15324145530314912
8.475991189427313,0.05649306822414454
8.509361233480176,-0.022512673365896626
8.54273127753304,-0.08777153758575956
8.576101321585904,-0.14625105207663144
8.609471365638766,-0.20418105550410776
8.64284140969163,-0.26433614763226965
8.676211453744493,-0.3252198276578964
8.709581497797357,-0.3822203403766605
8.742951541850221,-0.4300656858102595
8.776321585903084,-0.46548092060715585
8.809691629955948,-0.4889130791985941
8.84306167400881,-0.504484130884449
8.876431718061674,-0.5178737139329909
8.909801762114538,-0.5325624953281427
8.9431718061674,-0.545696869182393
8.976541850220265,-0.5455144283514042
9.009911894273127,-0.5123437974245358
9.043281938325991,-0.42422474719644837
9.076651982378856,-0.2661771290029227
9.110022026431718,-0.0398061498002308
9.143392070484582,0.23142628068491825
9.176762114537445,0.505108685710504
9.210132158590309,0.7315796657452056
9.243502202643173,0.8706249198938112
9.276872246696035,0.9060828093860982
9.3102422907489,0.8512531688606846
9.343612334801762,0.7418778397980701
9.376982378854626,0.6195845973755699
9.41035242290749,0.5138135914939218
9.443722466960352,0.43132403695854216
9.477092511013216,0.3584522049726085
9.510462555066079,0.27429484662667436
9.543832599118943,0.1668295187508711
9.577202643171807,0.04230904195713764
9.61057268722467,-0.07775728211762466
9.643942731277534,-0.17028097031617212
9.677312775330396,-0.22661462479766992
9.71068281938326,-0.2608611105022271
9.744052863436124,-0.3046403653614479
9.777422907488987,-0.3902813717090052
9.81079295154185,-0.5312733202157176
9.844162995594713,-0.7107691385745296
9.877533039647577,-0.8848514316562405
9.910903083700441,-0.9994665104763794
9.944273127753304,-1.0127925247121303
9.977643171806168,-0.9122280237850057
10.01101321585903,-0.7183575669636644
10.044383259911895,-0.4750917439637772
10.077753303964759,-0.2317402201734757
10.111123348017621,-0.025674989323318846
10.144493392070485,0.1274541283908315
10.177863436123348,0.233581784029085
10.211233480176212,0.31240224951090695
10.244603524229076,0.3865126582719365
10.277973568281938,0.4719454357916467
10.311343612334802,0.5726544263119627
10.344713656387665,0.6795395788772456
10.378083700440529,0.7734282137456397
10.411453744493393,0.8310362698748632
10.444823788546255,0.8326558274537236
10.47819383259912,0.7696817399359768
10.511563876651982,0.6493869824637253
10.544933920704846,0.49447932423172203
10.57830396475771,0.33660005994129627
10.611674008810573,0.20568879587338312
10.645044052863437,0.11956297475829299
10.678414096916299,0.07848448023690463
10.711784140969163,0.0672953244243875
10.745154185022027,0.06392248371737527
10.77852422907489,0.04978762849087784
10.811894273127754,0.016804507626978934
10.845264317180618,-0.032285593497286255
10.87863436123348,-0.08968303423573086
10.912004405286345,-0.15047081738204787
10.945374449339207,-0.21774292952983237
10.978744493392071,-0.30173385772991157
11.012114537444935,-0.4133005946657513
11.045484581497798,-0.5553429047657665
11.078854625550662,-0.716930415300071
11.112224669603524,-0.8735377804227543
11.145594713656388,-0.9937519384446204
11.178964757709252,-1.049716972946261
11.212334801762115,-1.0268613391769361
11.245704845814979,-0.928767684081652
11.279074889867841,-0.7751413904402512
11.312444933920705,-0.5937684532195158
11.34581497797357,-0.4099030686483135
11.379185022026432,-0.2376341079253632
11.412555066079296,-0.07694165360553255
11.445925110132158,0.08236875200077484
11.479295154185023,0.25186641254381126
11.512665198237887,0.43526589465793447
11.546035242290749,0.6235574531596692
11.579405286343613,0.7971776219488331
11.612775330396476,0.9342504122167794
11.64614537444934,1.0206434550420314
11.679515418502204,1.0564893966873934
11.712885462555066,1.0555669354419952
11.74625550660793,1.0375936906646825
11.779625550660793,1.0171296204679483
11.812995594713657,0.9945897606942636
11.846365638766521,0.9539891272286786
11.879735682819383,0.8689640682308581
11.913105726872248,0.7147787526297789
11.94647577092511,0.48116307158103855
11.979845814977974,0.180225417816735
12.013215859030838,-0.15434238934560385
12.0465859030837,-0.4768113477481006
12.079955947136565,-0.7438973772469233
12.113325991189427,-0.9281701841712913
12.146696035242291,-1.0249167699027355
12.180066079295155,-1.0500129202347732
12.213436123348018,-1.0303814093060588
12.246806167400882,-0.9916712919496529
12.280176211453744,-0.948490295182588
12.313546255506608,-0.9007765021752874
12.346916299559473,-0.8368611037356775
12.380286343612335,-0.7410652507976888
12.413656387665199,-0.6024002167751789
12.447026431718061,-0.4211980048283748
12.480396475770926,-0.21161796092791194
12.51376651982379,0.000766348468975487
12.547136563876652,0.18591251729688182
12.580506607929516,0.31909059023816533
12.613876651982379,0.3903624043451105
12.647246696035243,0.40971989361137806
12.680616740088107,0.4045728018590944
12.71398678414097,0.40916438578132364
12.747356828193833,0.4496083494556842
12.780726872246696,0.5313194158205387
12.81409691629956,0.635407881072623
12.847466960352424,0.7265806370058348
12.880837004405286,0.7691153626513126
12.91420704845815,0.7429292983152032
12.947577092511013,0.6514657628431297
12.980947136563877,0.5174729737295587
13.014317180616741,0.36936313253104225
13.047687224669604,0.2259374079992816
13.081057268722468,0.08796061138837442
13.11442731277533,-0.058928917055140285
13.147797356828194,-0.23182201343246803
13.181167400881058,-0.4356288568916802
13.21453744493392,-0.653860398926841
13.247907488986785,-0.8501868028997646
13.281277533039647,-0.9802594528944386
13.314647577092511,-1.0082220547639498
13.348017621145376,-0.9203168759723855
13.381387665198238,-0.7297586200553835
13.414757709251102,-0.4713919636857743
13.448127753303964,-0.18924569647958345
13.481497797356829,0.07720381967467042
13.514867841409693,0.30242506463232594
13.548237885462555,0.47685262965583114
13.58160792951542,0.6021106884684028
13.614977973568282,0.6829424350532973
13.648348017621146,0.7204219085511168
13.68171806167401,0.7099354803353353
13.715088105726872,0.644790773179398
13.748458149779736,0.5233820407536453
13.781828193832599,0.3559381824986866
13.815198237885463,0.16685534495116477
13.848568281938327,-0.009499540937648905
13.88193832599119,-0.13863337384402874
13.915308370044054,-0.1977339983164083
13.948678414096916,-0.18442150012213174
13.98204845814978,-0.11830163741323334
14.015418502202644,-0.03408464367213058
14.048788546255507,0.031193677109905577
14.08215859030837,0.05143277999773888
14.115528634361233,0.01937019144149776
14.148898678414097,-0.054231587133523024
14.182268722466961,-0.1491751291152935
14.215638766519824,-0.24733737146555565
14.249008810572688,-0.34082895809387215
14.28237885462555,-0.4324790298098286
14.315748898678414,-0.52865629228743
14.349118942731279,-0.6288572058988918
14.382488986784141,-0.7185733028527399
14.415859030837005,-0.7704631439627491
14.449229074889868,-0.7544582870571287
14.482599118942732,-0.6523690892188484
14.515969162995596,-0.4695134456621754
14.549339207048458,-0.23662677202781127
14.582709251101322,0.00027622774383131554
14.616079295154185,0.1983328787498514
14.649449339207049,0.33608453265691113
14.682819383259913,0.4223442913229402
14.716189427312775,0.49049770597896925
14.74955947136564,0.5801220942702833
14.782929515418502,0.7144129252275347
14.816299559471366,0.8845223958918672
14.84966960352423,1.0489825273028517
14.883039647577093,1.1492515486764396
14.916409691629957,1.1346607280106165
14.94977973568282,0.9855047902789781
14.983149779735683,0.7238299859541361
15.016519823788547,0.40705504172539636
15.04988986784141,0.10714709280535321
15.083259911894274,-0.11580006299208602
15.116629955947138,-0.23463943090960565
15.15,-0.2625406138801329
15.183370044052865,-0.2442465262212312
15.216740088105727,-0.23548036036374084
15.250110132158591,-0.27938128539044793
15.283480176211455,-0.3895989569173687
15.316850220264318,-0.5464416381159218
15.350220264317182,-0.7067964950326479
15.383590308370044,-0.8229096939969297
15.416960352422908,-0.8618483699186299
15.450330396475772,-0.8177506386080368
15.483700440528635,-0.7124397557274591
15.517070484581499,-0.5849943507829738
15.550440528634361,-0.47528035383865114
15.583810572687225,-0.4085032779302034
15.61718061674009,-0.3868370372162447
15.650550660792952,-0.3907300869492731
15.683920704845816,-0.3882138589310951
15.717290748898678,-0.34740975551138803
15.750660792951543,-0.24684881700809524
15.784030837004407,-0.0802781820282532
15.817400881057269,0.14400889119798368
15.850770925110133,0.4066877924023125
15.884140969162996,0.680836459057858
15.91751101321586,0.9343017418185989
15.950881057268724,1.1324615200310104
15.984251101321586,1.2436013858852522
16.01762114537445,1.2472074327014593
16.050991189427315,1.142126106584682
16.084361233480177,0.9495307275664655
16.11773127753304,0.7071584885021004
16.151101321585905,0.4559911769553413
16.184471365638768,0.22545876204710655
16.21784140969163,0.024819251825762494
16.251211453744492,-0.1547694139722384
16.284581497797358,-0.32896228329512645
16.31795154185022,-0.5062974214443957
16.351321585903083,-0.6793619050587577
16.38469162995595,-0.8256039954604519
16.41806167400881,-0.916945823693623
16.451431718061674,-0.9328652080945311
16.48480176211454,-0.8702468758241786
16.518171806167402,-0.7453523693720709
16.551541850220264,-0.587325943588244
16.584911894273127,-0.4266186594985585
16.618281938325993,-0.28379374933570417
16.651651982378855,-0.16362674437970712
16.685022026431717,-0.05669708736317809
16.718392070484583,0.05284070301850591
16.751762114537446,0.17727211584207153
16.785132158590308,0.31773074027699
16.818502202643174,0.46210889981238246
16.851872246696036,0.5888670488804436
16.8852422907489,0.674619981970053
16.91861233480176,0.7021640388751359
16.951982378854627,0.6659850572504789
16.98535242290749,0.5737379203976904
17.01872246696035,0.44384905460574925
17.052092511013218,0.3005539283426828
17.08546255506608,0.1680670249526005
17.118832599118942,0.06532958638212462
17.152202643171808,0.0022434892480970216
17.18557268722467,-0.022177636273537513
17.218942731277533,-0.01955623808468747
17.2523127753304,-0.009703467025791947
17.28568281938326,-0.016057898036734075
17.319052863436124,-0.059560631436906444
17.352422907488986,-0.15223043296411978
