Frequency (Hz),Amplitude
0.0,2.4168912390848925
0.04,2.4172195464863684
0.08,2.4182029959946414
0.12,2.419837179781982
0.16,2.422114785516954
0.19999999999999998,2.425025646900773
0.24,2.428556813362676
0.27999999999999997,2.4326926378952414
0.32,2.437414881769926
0.36,2.4427028346668243
0.39999999999999997,2.448533448585521
0.44,2.4548814837785455
0.48,2.461719664866542
0.52,2.4690188452543964
0.5599999999999999,2.476748177968344
0.6,2.484875291072268
0.64,2.4933664658929704
0.6799999999999999,2.5021868163842576
0.72,2.511300468082758
0.76,2.520670735249371
0.7999999999999999,2.53026029494313
0.84,2.5400313569345183
0.88,2.5499458285276875
0.9199999999999999,2.559965473521656
0.96,2.570052064695822
1.0,2.580167529352133
1.04,2.590274087582664
1.0799999999999998,2.60033438305583
1.1199999999999999,2.6103116062256833
1.1600000000000001,2.6201696099664686
1.2,2.629873017718632
1.24,2.6393873243031973
1.28,2.6486789896193565
1.3199999999999998,2.657715525486133
1.3599999999999999,2.666465575924068
1.4,2.6748989911979497
1.44,2.682986895957932
1.48,2.6907017518248777
1.52,2.6980174147676594
1.5599999999999998,2.7049091876162126
1.5999999999999999,2.711353868045563
1.64,2.717329792353403
1.68,2.722816875338024
1.72,2.7277966465650305
1.76,2.732252283290951
1.7999999999999998,2.7361686402899057
1.8399999999999999,2.7395322768064254
1.88,2.74233148083363
1.92,2.744556290891328
1.9599999999999997,2.7461985154536146
2.0,2.7472517501500215
2.0399999999999996,2.747711392838658
2.08,2.747574656623611
2.12,2.746840580862616
2.1599999999999997,2.745510040184219
2.2,2.7435857515065516
2.2399999999999998,2.7410722790221973
2.28,2.737976037085357
2.3200000000000003,2.7343052909087207
2.36,2.730070154947743
2.4,2.725282588819773
2.44,2.7199563905741777
2.48,2.7141071870978135
2.5199999999999996,2.7077524214074358
2.56,2.7009113365475415
2.6,2.6936049557785644
2.6399999999999997,2.6858560587067024
2.68,2.6776891529734606
2.7199999999999998,2.6691304410905885
2.76,2.6602077819751506
2.8,2.650950646711032
2.84,2.641390068037794
2.88,2.631558583046971
2.92,2.621490168550718
2.96,2.611220168579682
2.9999999999999996,2.6007852134678076
3.04,2.5902231299930825
3.08,2.5795728420671358
3.1199999999999997,2.5688742615047513
3.16,2.558168168458965
3.1999999999999997,2.5474960811802876
3.2399999999999998,2.5369001148512282
3.28,2.5264228293614983
3.32,2.5161070660255302
3.36,2.50599577340326
3.4,2.496131822566425
3.44,2.4865578123555947
3.4799999999999995,2.477315865394811
3.52,2.4684474158682623
3.5599999999999996,2.4599929903120508
3.5999999999999996,2.4519919829281656
3.64,2.4444824271803123
3.6799999999999997,2.437500765674244
3.7199999999999998,2.4310816205497376
3.76,2.425257566808366
3.7999999999999994,2.42005891116046
3.84,2.41551347908787
3.88,2.4116464128769963
3.9199999999999995,2.4084799833727804
3.96,2.4060334181335077
4.0,2.404322748525545
4.04,2.403360678086875
4.079999999999999,2.403156474211134
4.12,2.403715884865891
4.16,2.4050410816689656
4.199999999999999,2.4071306302161086
4.24,2.4099794880955203
4.28,2.413579030554538
4.319999999999999,2.4179171033164515
4.36,2.4229781015962746
4.4,2.4287430739473224
4.4399999999999995,2.435189849198465
4.4799999999999995,2.4422931844248477
4.5200000000000005,2.45002493164061
4.56,2.45835422071498
4.6,2.467247655895018
4.640000000000001,2.476669523267917
4.68,2.4865820065093285
4.72,2.496945408336171
4.76,2.507718375204927
4.8,2.518858122961213
4.84,2.5303206613441906
4.88,2.5420610154708565
4.92,2.5540334426616
4.96,2.5661916432111376
5.0,2.5784889639510618
5.039999999999999,2.59087859368498
5.08,2.603313749800096
5.12,2.6157478555656364
5.159999999999999,2.628134707816316
5.2,2.640428634886267
5.24,2.652584644804608
5.279999999999999,2.664558563888143
5.319999999999999,2.676307165970248
5.36,2.6877882925886656
5.3999999999999995,2.698960964520386
5.4399999999999995,2.709785485100511
5.48,2.7202235357959457
5.52,2.7302382645255716
5.56,2.7397943672282876
5.6,2.748858163180455
5.64,2.7573976645566027
5.68,2.765382640713195
5.72,2.77278467765596
5.76,2.7795772331282373
5.8,2.7857356877314774
5.84,2.791237392460712
5.879999999999999,2.7960617130078385
5.92,2.8001900711544794
5.96,2.8036059835445997
5.999999999999999,2.806295098094748
6.04,2.808245228267539
6.08,2.8094463854011344
6.119999999999999,2.809890809254623
6.16,2.809572996895745
6.2,2.808489730023484
6.239999999999999,2.806640100783181
6.279999999999999,2.804025536095976
6.32,2.800649820486961
6.359999999999999,2.7965191173572213
6.3999999999999995,2.7916419886035664
6.44,2.786029412445686
6.4799999999999995,2.779694799273404
6.52,2.77265400527619
6.56,2.7649253435627106
6.6,2.7565295924197324
6.64,2.747490000296657
6.68,2.737832287034466
6.72,2.7275846407854996
6.76,2.716777709993777
6.8,2.705444589724439
6.84,2.693620801546365
6.88,2.681344266084627
6.92,2.6686552672708883
6.959999999999999,2.6555964072317186
7.0,2.6422125506694862
7.04,2.6285507575110385
7.08,2.6146602025293677
7.119999999999999,2.600592080587209
7.16,2.586399496114222
7.199999999999999,2.572137335416795
7.239999999999999,2.557862120438135
7.28,2.543631842643099
7.32,2.529505775804628
7.359999999999999,2.515544266623952
7.3999999999999995,2.5018085023320573
7.4399999999999995,2.4883602547012647
7.4799999999999995,2.4752616002481957
7.52,2.462574616835012
7.5600000000000005,2.4503610573748587
7.599999999999999,2.438682001915674
7.64,2.427597490005864
7.68,2.4171661359228107
7.719999999999999,2.407444730052649
7.76,2.398487830423422
7.800000000000001,2.3903473490861704
7.839999999999999,2.383072138676834
7.88,2.376707585042269
7.92,2.3712952122404607
7.959999999999999,2.366872306495009
8.0,2.363471565767826
8.040000000000001,2.361120781489267
8.08,2.359842558638496
8.12,2.3596540797969254
8.159999999999998,2.360566918014267
8.2,2.362586902353361
8.24,2.3657140388514364
8.28,2.369942488396668
8.32,2.3752606017221396
8.36,2.3816510104205615
8.399999999999999,2.3890907716380307
8.44,2.397551562966367
8.48,2.406999923064922
8.52,2.417397532740013
8.56,2.4287015306155575
8.6,2.4408648571527847
8.639999999999999,2.4538366206185125
8.68,2.4675624786477734
8.72,2.4819850292757426
8.76,2.4970442056981486
8.8,2.5126776695257904
8.84,2.528821197894059
8.879999999999999,2.545409060438631
8.92,2.56237438282325
8.959999999999999,2.5796494941772132
9.0,2.597166256446499
9.040000000000001,2.6148563742654374
9.079999999999998,2.632651684502994
9.12,2.650484425120687
9.16,2.668287483394196
9.2,2.6859946238969354
9.24,2.7035406969237865
9.280000000000001,2.7208618282507007
9.32,2.737895591286857
9.36,2.7545811627868515
9.399999999999999,2.770859463357893
9.44,2.786673284027953
9.48,2.801967400141887
9.52,2.81668867382979
9.559999999999999,2.830786146250722
9.6,2.844211120760231
9.639999999999999,2.856917238086105
9.68,2.86886054452672
9.72,2.879999554113304
9.76,2.8902953056035248
9.8,2.899711415100856
9.84,2.908214125023438
9.879999999999999,2.915772350078538
9.92,2.9223577208349485
9.959999999999999,2.9279446254257255
10.0,2.9325102498580597
10.04,2.9360346173553156
10.079999999999998,2.9385006271082266
10.12,2.9398940927675
10.16,2.94020378096816
10.2,2.9394214501359786
10.24,2.937541889787886
10.280000000000001,2.9345629605002754
10.319999999999999,2.930485634680812
10.36,2.925314038239474
10.4,2.919055493212479
10.44,2.9117205613465456
10.48,2.9033230885998376
10.52,2.8938802504581997
10.559999999999999,2.8834125978991985
10.6,2.871944103760473
10.639999999999999,2.859502209180893
10.68,2.846117869681042
10.72,2.8318256003313764
10.76,2.816663519319921
10.799999999999999,2.800673389074124
10.84,2.7839006539115787
10.879999999999999,2.7663944729894716
10.92,2.748207747091496
10.96,2.7293971375323043
11.0,2.7100230751734586
11.04,2.69014975723196
11.08,2.6698451292260152
11.12,2.649180849046934
11.16,2.6282322297790652
11.2,2.6070781575219226
11.24,2.5858009801151254
11.28,2.5644863623469427
11.319999999999999,2.5432231029654084
11.36,2.522102908637161
11.4,2.501220119948308
11.44,2.480671384653985
11.48,2.4605552737016945
11.52,2.4409718361232793
11.559999999999999,2.4220220897541513
11.6,2.4038074459335323
11.64,2.3864290678915854
11.68,2.3699871644473096
11.72,2.3545802229095685
11.759999999999998,2.340304187647634
11.799999999999999,2.327251593597077
11.84,2.3155106668743195
11.879999999999999,2.3051644075348925
11.92,2.2962896721418287
11.96,2.288956276007319
11.999999999999998,2.283226136524531
12.04,2.2791524797256693
12.08,2.2767791319338113
12.12,2.2761399170277263
12.16,2.2772581773964022
12.200000000000001,2.280146433198607
12.239999999999998,2.284806190226407
12.28,2.291227901743843
12.32,2.2993910844340655
12.36,2.3092645833715086
12.4,2.3208069760672116
12.44,2.3339671014071754
12.479999999999999,2.348684695944358
12.52,2.364891117662244
12.559999999999999,2.3825101360606404
12.6,2.4014587671951446
12.64,2.421648133029674
12.68,2.4429843259804103
12.719999999999999,2.465369261649668
12.76,2.4887015052681916
12.799999999999999,2.5128770600889205
12.84,2.537790108731112
12.88,2.5633337011181836
12.92,2.589400385077818
12.959999999999999,2.615882777807312
12.999999999999998,2.6426740782107263
13.04,2.6696685215758036
13.08,2.6967617791870673
13.12,2.723851306292556
13.16,2.7508366423902237
13.2,2.777619668116376
13.239999999999998,2.804104823143938
13.28,2.830199289473377
13.32,2.8558131443596007
13.36,2.880859486897156
13.4,2.905254542010488
13.44,2.928917745288521
13.479999999999999,2.9517718117811866
13.52,2.973742791553627
13.559999999999999,2.994760114481526
13.6,3.0147566264756356
13.64,3.0336686190497852
13.68,3.051435853896873
13.719999999999999,3.068001583913229
13.76,3.0833125719131367
13.799999999999999,3.0973191081013893
13.84,3.109975027222007
13.88,3.1212377261730126
13.919999999999998,3.131068182769963
13.959999999999999,3.1394309762518673
14.0,3.146294310051051
14.04,3.1516300372913917
14.08,3.1554136894355533
14.120000000000001,3.1576245084696555
14.16,3.1582454829919513
14.2,3.1572633885588433
14.239999999999998,3.1546688326357963
14.28,3.1504563045008886
14.32,3.144624230453671
14.36,3.1371750346900673
14.399999999999999,3.1281152062139816
14.44,3.117455372166174
14.479999999999999,3.105210377958924
14.52,3.0913993746088986
14.56,3.076045913657514
14.6,3.059178050054942
14.64,3.0408284533564975
14.68,3.0210345275339403
14.719999999999999,2.999838539633165
14.76,2.9772877574067853
14.799999999999999,2.953434595906923
14.84,2.928336772829547
14.879999999999999,2.902057472145216
14.919999999999998,2.87466551521784
14.959999999999999,2.8462355381865896
15.0,2.8168481738481974
15.04,2.7865902356067775
15.079999999999998,2.755554900234159
15.120000000000001,2.723841885182867
15.159999999999998,2.6915576149944718
15.199999999999998,2.658815369929499
15.24,2.625735408299304
15.28,2.5924450521036766
15.319999999999999,2.559078723486854
15.36,2.5257779172588246
15.399999999999999,2.492691092363227
15.439999999999998,2.4599734628259737
15.48,2.427786666563596
15.52,2.396298288704971
15.559999999999999,2.3656812150923945
15.600000000000001,2.336112791753614
15.639999999999999,2.307773767806987
15.679999999999998,2.280847002933624
15.72,2.2555159266551272
15.76,2.231962745527216
15.799999999999999,2.2103664061403783
15.84,2.1909003363536677
15.879999999999999,2.1737300039245597
15.919999999999998,2.1590103496164055
15.96,2.146883169470902
16.0,2.137474536338201
16.04,2.1308923618721245
16.080000000000002,2.127224205022281
16.12,2.1265354300351516
16.16,2.1288678053574945
16.200000000000003,2.13423861492393
16.24,2.1426403265625464
16.279999999999998,2.154040831143872
16.319999999999997,2.1683842337784514
16.36,2.185592148164837
16.4,2.205565420076415
16.439999999999998,2.2281861881213403
16.48,2.253320180406715
16.52,2.2808191445514208
16.56,2.310523314615194
16.6,2.342263830264517
16.64,2.375865038878967
16.68,2.4111466283273053
16.72,2.4479255550869405
16.759999999999998,2.486017747932972
16.799999999999997,2.5252395807330354
16.84,2.565409118532805
16.88,2.606347149036748
16.919999999999998,2.6478780169656346
16.96,2.689830281947893
17.0,2.732037221989092
17.04,2.7743372045859607
17.080000000000002,2.8165739465992896
17.12,2.858596682409693
17.16,2.900260257923734
17.2,2.9414251658832344
17.24,2.9819575358085895
17.279999999999998,3.0217290898797344
17.32,3.0606170741899814
17.36,3.0985041731319627
17.4,3.1352784132051075
17.44,3.1708330612680853
17.48,3.205066521187101
17.52,3.2378822319350107
17.56,3.269188569458087
17.6,3.298898754027107
17.64,3.3269307643081745
17.68,3.353207259008496
17.72,3.377655506657245
17.759999999999998,3.400207323857637
17.799999999999997,3.420799022181176
17.84,3.439371363758479
17.88,3.4558695255446605
17.919999999999998,3.4702430721935786
17.96,3.4824459374590075
18.0,3.492436414046931
18.04,3.5001771518685763
18.080000000000002,3.5056351646853225
18.12,3.5087818451926887
18.159999999999997,3.5095929886595534
18.2,3.5080488253200057
18.24,3.50413406180827
18.279999999999998,3.497837932032326
18.32,3.489154257999257
18.36,3.4780815212361254
18.4,3.464622945595092
18.44,3.448786592391953
18.48,3.4305854690046553
18.52,3.410037652254214
18.560000000000002,3.3871664281065867
18.6,3.3620004494715015
18.64,3.3345739141347663
18.679999999999996,3.304926765144277
18.72,3.2731049162771915
18.759999999999998,3.2391605055442323
18.799999999999997,3.2031521800338063
18.84,3.1651454157561445
18.88,3.1252128765053215
18.919999999999998,3.0834348160969087
18.96,3.0398995286356056
19.0,2.9947038516821216
19.04,2.947953727268294
19.080000000000002,2.8997648255782322
19.119999999999997,2.850263235667237
19.159999999999997,2.7995862266889557
19.2,2.747883081556497
19.24,2.695316002529824
19.279999999999998,2.6420610845839083
19.32,2.588309347175668
19.36,2.5342678077156067
19.4,2.4801605701098977
19.44,2.4262298885753704
19.48,2.372737149969481
19.52,2.319963696694006
19.560000000000002,2.268211386748202
19.6,2.217802758304668
19.639999999999997,2.1690806349163916
19.68,2.1224069773852894
19.72,2.0781607647978406
19.759999999999998,2.036734678105255
19.8,1.9985303750899452
19.84,1.9639521971393017
19.88,1.9333992464209862
19.919999999999998,1.9072559223460654
19.96,1.8858812041642081
20.0,1.869597193007228
20.04,1.8586776458920549
20.08,1.853337397313516
20.119999999999997,1.853723620075348
20.159999999999997,1.859909789008917
20.2,1.8718929727824025
20.24,1.8895947227683267
20.279999999999998,1.9128654205405464
20.32,1.9414915688670358
20.36,1.9752052370037607
20.4,2.0136947409712005
20.44,2.056615655812191
20.48,2.1036013892998597
20.52,2.15427274721779
20.560000000000002,2.2082461400631366
20.599999999999998,2.265140281497335
20.639999999999997,2.3245813875385593
20.68,2.386206994709619
20.72,2.4496685782417686
20.759999999999998,2.5146331769835735
20.8,2.580784230707729
20.84,2.6478218181130475
20.88,2.7154624580203395
20.92,2.783438607765011
20.96,2.8514979652102403
21.0,2.919402656129923
21.04,2.9869283677888236
21.08,3.053863472505762
21.119999999999997,3.120008171543168
21.159999999999997,3.1851736793489875
21.2,3.249181460452965
21.24,3.3118625256759717
21.279999999999998,3.373056790293063
21.32,3.4326124940147706
21.36,3.4903856808051206
21.4,3.546239735392867
21.44,3.600044972663791
21.48,3.6516782758023907
21.52,3.7010227789724155
21.56,3.7479675904083622
21.599999999999998,3.7924075519760208
21.639999999999997,3.8342430315088727
21.68,3.873379744508912
21.72,3.9097286020963056
21.759999999999998,3.94320558238839
21.8,3.97373162277683
21.84,4.001232530847339
21.88,4.025638911946507
21.92,4.046886111644459
21.96,4.064914171570539
22.0,4.079667797312958
22.04,4.0910963372747915
22.08,4.099153771569205
22.119999999999997,4.103798710219589
22.16,4.1049944001076915
22.2,4.102708740288242
22.24,4.096914305465009
22.28,4.087588377604851
22.32,4.0747129858569275
22.36,4.058274955149028
22.4,4.03826596405724
22.44,4.014682612795817
22.48,3.987526502458841
22.519999999999996,3.956804326973843
22.56,3.9225279796116332
22.599999999999998,3.8847146763507308
22.639999999999997,3.8433870989369434
22.68,3.7985735611316045
22.72,3.750308202433702
22.759999999999998,3.698631214528158
22.8,3.6435891068998614
22.84,3.5852350195192932
22.88,3.523629092324997
22.92,3.4588389034962566
22.96,3.3909399913487337
23.0,3.3200164782549053
23.04,3.2461618194930417
23.08,3.1694797056251303
23.119999999999997,3.090085154231529
23.16,3.00810583601591
23.2,2.92368369197866
23.24,2.8369769132107496
23.28,2.748162373692821
23.32,2.657438630228616
23.36,2.565029633281197
23.400000000000002,2.471189328860221
23.44,2.376207375017955
23.479999999999997,2.280416245834317
23.519999999999996,2.1842000468391007
23.56,2.088005408371284
23.599999999999998,1.992354835652902
23.639999999999997,1.8978628340204686
23.68,1.8052549177834292
23.72,1.71538912087359
23.759999999999998,1.6292786546188014
23.8,1.5481126341368332
23.84,1.4732690687490568
23.88,1.406310615006248
23.92,1.3489498009803884
23.96,1.3029690509674414
23.999999999999996,1.270086242289299
24.04,1.2517729108083029
24.08,1.2490580352734835
24.119999999999997,1.2623727111335026
24.16,1.2914902132843367
24.2,1.3355836203706477
24.24,1.3933767021209393
24.28,1.4633335707719142
24.32,1.5438337440645473
24.36,1.6333018015166487
24.400000000000002,1.730285445094933
24.439999999999998,1.8334909262646217
24.479999999999997,1.9417896087012867
24.52,2.054208046121802
24.56,2.16991042378899
24.599999999999998,2.288178802485618
24.64,2.408394091369598
24.68,2.530019080238452
24.72,2.652583952224308
24.759999999999998,2.7756742312794405
24.8,2.8989209115208356
24.84,3.021992448462416
24.88,3.144588294649226
24.92,3.2664336949246855
24.959999999999997,3.3872754989997698
24.999999999999996,3.5068787912329418
25.04,3.6250241753418737
25.08,3.7415055838206848
25.119999999999997,3.8561285081742893
25.16,3.968708567324279
25.2,4.079070348484761
25.24,4.187046468235052
25.28,4.292476812123405
25.32,4.395207919505681
25.36,4.495092486928863
25.4,4.591988968591151
25.439999999999998,4.685761256546896
25.479999999999997,4.776278426610408
25.52,4.863414538531086
25.56,4.947048481105752
25.599999999999998,5.027063854574414
25.64,5.103348883999182
25.68,5.175796358420958
25.72,5.244303591477918
25.76,5.308772399895208
25.8,5.369109096849908
25.84,5.425224497704988
25.880000000000003,5.477033936011266
25.919999999999998,5.524457288014093
25.959999999999997,5.567419004184245
25.999999999999996,5.605848146531601
26.04,5.639678430663674
26.08,5.668848271726223
26.119999999999997,5.693300833516074
26.16,5.712984080191118
26.2,5.727850830124304
26.24,5.7378588115599305
26.28,5.7429707198358235
26.32,5.743154276036146
26.36,5.73838228704025
26.4,5.728632707035395
26.439999999999998,5.713888700668567
26.479999999999997,5.694138708128086
26.52,5.66937651257282
26.56,5.639601310469431
26.599999999999998,5.604817785561612
26.64,5.565036187384435
26.68,5.52027241546021
26.72,5.4705481105767655
26.76,5.415890754867444
26.8,5.356333782796468
26.84,5.291916705622525
26.88,5.222685252488787
26.919999999999998,5.148691531998594
26.959999999999997,5.06999421901923
27.0,4.986658772560676
27.04,4.898757691964752
27.08,4.806370820396809
27.119999999999997,4.709585706867243
27.16,4.608498040871978
27.2,4.503212177427094
27.24,4.393841775051151
27.28,4.280510575482129
27.32,4.163353362100916
27.36,4.042517144851559
27.4,3.9181626338419524
27.439999999999998,3.790466083084631
27.479999999999997,3.6596216118172435
27.52,3.5258441460687613
27.56,3.3893731711622177
27.599999999999998,3.250477551607199
27.64,3.1094617651452765
27.68,2.9666740217757863
27.72,2.822516908407863
27.76,2.6774614298821646
27.8,2.532065622280331
27.839999999999996,2.3869993023956226
27.88,2.2430769690868666
27.919999999999998,2.1013012959585775
27.959999999999997,1.962919782449119
28.0,1.8294963099812387
28.04,1.702996178818984
28.08,1.585875056643182
28.12,1.4811452993392469
28.16,1.3923646705510255
28.2,1.3234600583677003
28.240000000000002,1.2782961098828438
28.28,1.2599870208698447
28.32,1.2701491985643982
28.359999999999996,1.3084614039207678
28.4,1.3727982513302002
