Time (s),Filtered Signal
0.0,-0.0005049987693455123
0.0334075723830735,-0.3153201680635071
0.066815144766147,-0.5630610182336028
0.1002227171492205,-0.6893363952409195
0.133630289532294,-0.6637892183676563
0.1670378619153675,-0.4873372228202483
0.200445434298441,-0.19342775967754802
0.23385300668151449,0.15831827588381256
0.267260579064588,0.495995126810708
0.3006681514476615,0.7539255570335283
0.334075723830735,0.8901057031701636
0.3674832962138085,0.8960696474355437
0.400890868596882,0.7951239901885618
0.4342984409799555,0.6299574511208386
0.46770601336302897,0.44555937151587643
0.5011135857461025,0.2751562661005234
0.534521158129176,0.13440104402277084
0.5679287305122495,0.024055441350498412
0.601336302895323,-0.06281455322982132
0.6347438752783965,-0.13412211461881696
0.66815144766147,-0.19536109812131516
0.7015590200445435,-0.2491990946317198
0.734966592427617,-0.29595163316519774
0.7683741648106905,-0.33333300298619983
0.801781737193764,-0.35573460068420837
0.8351893095768375,-0.35469069381283275
0.868596881959911,-0.3219044407313959
0.9020044543429845,-0.25435821325838637
0.9354120267260579,-0.15897396567206035
0.9688195991091315,-0.053619303618775406
1.002227171492205,0.03730103151906346
1.0356347438752784,0.09154142287447731
1.069042316258352,0.0982127058773452
1.1024498886414256,0.06289944561704977
1.135857461024499,0.005797684986673136
1.1692650334075725,-0.04665730813322222
1.202672605790646,-0.07290716823572567
1.2360801781737194,-0.06490948511455548
1.269487750556793,-0.030277540694745208
1.3028953229398665,0.012849307068383543
1.33630289532294,0.045367992312764255
1.3697104677060135,0.056287589844334684
1.403118040089087,0.04688375247835641
1.4365256124721606,0.028219314270240207
1.469933184855234,0.013798893309698936
1.5033407572383075,0.011544572682676056
1.536748329621381,0.019426872221294637
1.5701559020044544,0.026962379819558596
1.603563474387528,0.02158709894194668
1.6369710467706016,-0.003641651335200623
1.670378619153675,-0.04515762210141785
1.7037861915367485,-0.08938501842134886
1.737193763919822,-0.11840435294957434
1.7706013363028954,-0.11803362626929713
1.804008908685969,-0.08450475421991924
1.8374164810690425,-0.026668861010949712
1.8708240534521159,0.037259574094912436
1.9042316258351895,0.08698878817320424
1.937639198218263,0.10826891755457509
1.9710467706013366,0.0982489580596669
2.00445434298441,0.06567978029430681
2.0378619153674835,0.02596335359385525
2.071269487750557,-0.006440548895741774
2.1046770601336307,-0.024427493302721606
2.138084632516704,-0.030351266863419123
2.1714922048997773,-0.03306328869715655
2.204899777282851,-0.041849844256325895
2.2383073496659245,-0.060731373484607325
2.271714922048998,-0.0861027904856644
2.3051224944320716,-0.10865226623831488
2.338530066815145,-0.1181787353617494
2.3719376391982183,-0.10862116017871132
2.405345211581292,-0.08086228636257785
2.4387527839643655,-0.04227927030756633
2.472160356347439,-0.0036242534935610176
2.5055679287305126,0.025228288202911238
2.538975501113586,0.03909265050093853
2.5723830734966593,0.039782583273639344
2.605790645879733,0.036376249249316026
2.6391982182628064,0.04316061320016091
2.67260579064588,0.0752454854447593
2.7060133630289536,0.14249481783227405
2.739420935412027,0.24350801127185065
2.7728285077951007,0.36231085536503005
2.806236080178174,0.47026580343510505
2.8396436525612474,0.5339449735777527
2.873051224944321,0.5268062096693658
2.9064587973273945,0.4399841190407122
2.939866369710468,0.2870790716567247
2.9732739420935417,0.10021257242086525
3.006681514476615,-0.0812180132394778
3.0400890868596884,-0.2240440467008944
3.073496659242762,-0.31114137931772473
3.1069042316258355,-0.3438749469387418
3.140311804008909,-0.3374014994407959
3.1737193763919826,-0.3122072977386393
3.207126948775056,-0.28603062152729297
3.2405345211581293,-0.26886717663870796
3.273942093541203,-0.26158304321485326
3.3073496659242765,-0.2573117917618786
3.34075723830735,-0.2447622658835568
3.3741648106904236,-0.21307665878960458
3.407572383073497,-0.1578197588176131
3.4409799554565703,-0.08656388508925018
3.474387527839644,-0.021060670047712646
3.5077951002227175,0.007303844106872164
3.541202672605791,-0.03008548859752892
3.5746102449888646,-0.14207756488009352
3.608017817371938,-0.30396653974445564
3.6414253897550113,-0.456155115464631
3.674832962138085,-0.5206535792146891
3.7082405345211584,-0.43229784781169445
3.7416481069042318,-0.17240115271802697
3.7750556792873056,0.21182477928209759
3.808463251670379,0.6146491089159939
3.8418708240534527,0.9068281870562404
3.875278396436526,0.9852231883483374
3.9086859688195994,0.815526128069471
3.942093541202673,0.4484780179141253
3.9755011135857465,0.0017093884442252025
4.00890868596882,-0.3849427217440206
4.042316258351893,-0.6010299778717203
4.075723830734967,-0.6022503891761319
4.109131403118041,-0.4186007907806262
4.142538975501114,-0.13369468226627013
4.1759465478841875,0.15277870388432155
4.209354120267261,0.3621005595498336
4.242761692650334,0.45867750015518016
4.276169265033408,0.45154572874898785
4.309576837416482,0.37896129214506463
4.342984409799555,0.28589529517787576
4.3763919821826285,0.20504392958654077
4.409799554565702,0.14825337023364257
4.443207126948775,0.10949016919930192
4.476614699331849,0.07533560965498415
4.510022271714923,0.03633530495918827
4.543429844097996,-0.006903102645371816
4.5768374164810695,-0.04567625528897851
4.610244988864143,-0.07147981892001191
4.643652561247216,-0.0851852190331452
4.67706013363029,-0.10071603310243701
4.710467706013364,-0.13949156519298636
4.743875278396437,-0.2171437251874996
4.77728285077951,-0.32921190450894033
4.810690423162584,-0.4446187533795209
4.844097995545657,-0.5129699792346296
4.877505567928731,-0.4849239436625225
4.910913140311805,-0.3373476417272878
4.944320712694878,-0.0908884774413899
4.977728285077951,0.19033447324033156
5.011135857461025,0.4194045875831526
5.044543429844098,0.5201748654979909
5.077951002227172,0.4591760047179446
5.111358574610246,0.26097011203226705
5.144766146993319,-0.0009427296500469518
5.178173719376392,-0.23432622492974675
5.211581291759466,-0.3661371721586916
5.244988864142539,-0.37099728667240045
5.278396436525613,-0.27751018815230266
5.311804008908687,-0.15037177470955382
5.34521158129176,-0.057696725958706924
5.378619153674833,-0.039540369349667454
5.412026726057907,-0.09212647656880164
5.445434298440981,-0.17391002163188032
5.478841870824054,-0.22885843152068494
5.512249443207128,-0.21462624365385471
5.545657015590201,-0.12207080312094225
5.579064587973274,0.022203244237078115
5.612472160356348,0.16995496422233106
5.645879732739422,0.27409206129826263
5.679287305122495,0.30891674520982165
5.712694877505569,0.2789034769688766
5.746102449888642,0.21327025245311895
5.779510022271715,0.15038803813344787
5.812917594654789,0.12019017199202311
5.846325167037863,0.13260374922027046
5.879732739420936,0.17628366358155922
5.91314031180401,0.22681593365340466
5.946547884187083,0.2595285589221517
5.979955456570156,0.26065422542020084
6.01336302895323,0.23203493102158637
6.046770601336304,0.18790945285415692
6.080178173719377,0.14602394654734893
6.1135857461024505,0.1177714866609535
6.146993318485524,0.10226708121476032
6.180400890868597,0.08716024571786876
6.213808463251671,0.055609420670540456
6.247216035634745,-0.004146342625163538
6.280623608017818,-0.09132876061278153
6.3140311804008915,-0.1908223362277193
6.347438752783965,-0.2778515301431574
6.380846325167038,-0.3270785624650512
6.414253897550112,-0.3223374321197294
6.447661469933186,-0.2631598049858504
6.481069042316259,-0.16563790536081507
6.5144766146993325,-0.05737196297327487
6.547884187082406,0.03151674850061455
6.581291759465479,0.07786538866965315
6.614699331848553,0.07193554877871249
6.648106904231627,0.018780098774670212
6.6815144766147,-0.06533100695130374
6.7149220489977735,-0.15932954047105832
6.748329621380847,-0.24379546501918228
6.78173719376392,-0.3052524974235282
6.815144766146994,-0.3375258825482108
6.848552338530068,-0.34068433135660053
6.881959910913141,-0.318777121038536
6.915367483296214,-0.2775827030505747
6.948775055679288,-0.22314826947809752
6.982182628062361,-0.161310750349255
7.015590200445435,-0.09785321024892998
7.048997772828509,-0.03860539467689703
7.082405345211582,0.011220792633236403
7.115812917594655,0.04875175490993421
7.149220489977729,0.07571859149510918
7.182628062360802,0.09992101034644563
7.216035634743876,0.13424400852998972
7.24944320712695,0.19232110423380686
7.282850779510023,0.2816748517311782
7.316258351893096,0.3971134009171195
7.34966592427617,0.5180866666066959
7.383073496659243,0.6126889660873903
7.416481069042317,0.6481520301965162
7.449888641425391,0.6042637718101805
7.4832962138084635,0.4839598650460874
7.516703786191537,0.315714287720013
7.550111358574611,0.145457565647267
7.583518930957685,0.020363575989662687
7.616926503340758,-0.029145698818554062
7.650334075723832,-0.0014758740266312225
7.683741648106905,0.07546346079519109
7.717149220489978,0.155524187216713
7.750556792873052,0.1927629342566428
7.783964365256126,0.15922428074894426
7.817371937639199,0.05477185130983152
7.850779510022273,-0.09468081593398481
7.884187082405346,-0.24934040181448794
7.917594654788419,-0.37289866469349153
7.951002227171493,-0.4479993109676075
7.984409799554567,-0.4833439522559161
8.01781737193764,-0.5089252559359213
8.051224944320714,-0.5604555521952695
8.084632516703786,-0.6588998019836996
8.118040089086861,-0.7941406261720132
8.151447661469934,-0.9213354104721692
8.184855233853007,-0.9738785198167413
8.218262806236082,-0.8895170742575965
8.251670378619155,-0.6393171654667635
8.285077951002227,-0.2464201331185618
8.318485523385302,0.21512394936606977
8.351893095768375,0.6426700527921476
8.385300668151448,0.9399112721045348
8.418708240534523,1.049849574143114
8.452115812917596,0.9721311868732222
8.485523385300668,0.7584750020848471
8.518930957683743,0.4898222478829472
8.552338530066816,0.24614834823734738
8.585746102449889,0.0814047742311528
8.619153674832964,0.01199434859822839
8.652561247216036,0.02039653620533125
8.68596881959911,0.06954241720907077
8.719376391982184,0.12056490928276409
8.752783964365257,0.1469889522591906
8.78619153674833,0.14119448132723622
8.819599109131405,0.11248786638306511
8.853006681514477,0.0790436780159619
8.88641425389755,0.05762586303690528
8.919821826280625,0.05520454205531389
8.953229398663698,0.06553547932532
8.98663697104677,0.07186022474200364
9.020044543429846,0.05466084760402629
9.053452115812918,0.0014837669990300818
9.086859688195991,-0.08517696297178394
9.120267260579066,-0.18562803187112384
9.153674832962139,-0.26823262622580674
9.187082405345212,-0.30108528912810745
9.220489977728286,-0.26589958687812415
9.25389755011136,-0.16808801687116381
9.287305122494432,-0.03777647045399753
9.320712694877507,0.07994202590741761
9.35412026726058,0.14217583058392783
9.387527839643653,0.1254671244850241
9.420935412026727,0.03508511714695953
9.4543429844098,-0.09814038042264131
9.487750556792873,-0.23191290502441902
9.521158129175948,-0.3305186489474906
9.55456570155902,-0.3780467602016189
9.587973273942094,-0.38083663108741633
9.621380846325168,-0.3590639658130956
9.654788418708241,-0.3329174071316065
9.688195991091314,-0.31103287546843045
9.721603563474389,-0.28681746945211295
9.755011135857462,-0.2435503883524262
9.788418708240535,-0.16456620930243335
9.82182628062361,-0.042812010586787456
9.855233853006682,0.11471502998811306
9.888641425389755,0.28888033340499714
9.92204899777283,0.45467289178197356
9.955456570155903,0.5882918769476203
9.988864142538976,0.6721578152073958
10.02227171492205,0.6968808321047356
10.055679287305123,0.6610718839336956
10.089086859688196,0.5705794304663164
10.12249443207127,0.4380676687704707
10.155902004454344,0.28250720952802977
10.189309576837417,0.12723493814222916
10.222717149220491,-0.004419982462034576
10.256124721603564,-0.09539577115292652
10.289532293986637,-0.14070008030970368
10.322939866369712,-0.14968259476921614
10.356347438752785,-0.1428065311497522
10.389755011135858,-0.14349319616965406
10.423162583518932,-0.16823070236113627
10.456570155902005,-0.2193065361689451
10.489977728285078,-0.2835393993897401
10.523385300668153,-0.33775983254051634
10.556792873051226,-0.3588523094236513
10.590200445434299,-0.3342473871420996
10.623608017817373,-0.26852373066615876
10.657015590200446,-0.18318640736108124
10.69042316258352,-0.10919308926937907
10.723830734966594,-0.07463934571419985
10.757238307349667,-0.0922735726538408
10.790645879732741,-0.15222676159427945
10.824053452115814,-0.2238507257794272
10.857461024498887,-0.2670205699496115
10.890868596881962,-0.24893279369612126
10.924276169265035,-0.15933176350475473
10.957683741648108,-0.017018032170151715
10.991091314031182,0.1360927386189528
11.024498886414255,0.251524772543914
11.057906458797328,0.2944781849035455
11.091314031180403,0.25874364455456433
11.124721603563476,0.1693994426101634
11.158129175946549,0.07181703113200508
11.191536748329623,0.011780100785845115
11.224944320712696,0.015726220380315938
11.25835189309577,0.08017613337516713
11.291759465478844,0.17512533146012102
11.325167037861917,0.259464006528081
11.35857461024499,0.3006499792442781
11.391982182628064,0.2889133168675888
11.425389755011137,0.2393064224984883
11.45879732739421,0.181341817872788
11.492204899777285,0.14232407690196364
11.525612472160358,0.13339114031364763
11.55902004454343,0.145309928663127
11.592427616926505,0.15549595890474266
11.625835189309578,0.14170691729757895
11.659242761692651,0.09463144860740816
11.692650334075726,0.022709521309967444
11.726057906458799,-0.05289914061243877
11.759465478841872,-0.10992239715221243
11.792873051224946,-0.13665027647003683
11.82628062360802,-0.1375926131290299
11.859688195991092,-0.13056544416192165
11.893095768374167,-0.13716612896269345
11.92650334075724,-0.17170407441589627
11.959910913140313,-0.23395813951064903
11.993318485523387,-0.30880289394173466
12.02672605790646,-0.37222719159371725
12.060133630289533,-0.4004220680351191
12.093541202672608,-0.37777391283769973
12.12694877505568,-0.3009368788741442
12.160356347438753,-0.1786484796157197
12.193763919821828,-0.02898334665157798
12.227171492204901,0.12387766269876564
12.260579064587974,0.2525318993759764
12.293986636971049,0.3297139011630109
12.327394209354122,0.3334644855912829
12.360801781737194,0.2541336673588849
12.39420935412027,0.10089459809658298
12.427616926503342,-0.09609792652792266
12.461024498886415,-0.29091902737511777
12.49443207126949,-0.43417094276795176
12.527839643652563,-0.4881337729505727
12.561247216035635,-0.4385068036380269
12.59465478841871,-0.29786693835056094
12.628062360801783,-0.10002514105014411
12.661469933184856,0.1113720204048467
12.69487750556793,0.29487129086905756
12.728285077951004,0.42001232213920614
12.761692650334076,0.47183755876734595
12.795100222717151,0.45208620714113157
12.828507795100224,0.3780960826112452
12.861915367483297,0.27921493234162187
12.895322939866372,0.18986876890867152
12.928730512249444,0.1395959776296118
12.962138084632517,0.14279890957412356
12.995545657015592,0.19270523657651423
13.028953229398665,0.26322353548117144
13.062360801781738,0.31889652251023615
13.095768374164813,0.3289118991840915
13.129175946547885,0.27882171278371043
13.162583518930958,0.17481466533055942
13.195991091314033,0.03937390358131245
13.229398663697106,-0.09855747658487207
13.262806236080179,-0.21371691682510388
13.296213808463254,-0.2908231502115199
13.329621380846326,-0.3258628167053962
13.3630289532294,-0.3239104609374897
13.396436525612474,-0.2959176015224751
13.429844097995547,-0.2559405601022086
13.46325167037862,-0.21873658360810727
13.496659242761694,-0.19696990893329325
13.530066815144767,-0.1979006286674707
13.56347438752784,-0.22064434289289814
13.596881959910915,-0.25567570806824813
13.630289532293988,-0.287545790770699
13.66369710467706,-0.3001825011669776
13.697104677060135,-0.282707818150862
13.730512249443208,-0.23333896924603548
13.763919821826281,-0.1598094842614965
13.797327394209356,-0.07630004951685275
13.830734966592429,0.0017135516678862775
13.864142538975502,0.06262163884049472
13.897550111358576,0.10201723026550108
13.93095768374165,0.12325079256034634
13.964365256124722,0.13529118043539626
13.997772828507797,0.14879886685300076
14.03118040089087,0.17174493890397188
14.064587973273943,0.2059855328074075
14.097995545657017,0.2459980152206732
14.13140311804009,0.2804753127512424
14.164810690423163,0.2966014799122095
14.198218262806238,0.2857179911730967
14.23162583518931,0.24815523074841622
14.265033407572384,0.1948232849085804
14.298440979955458,0.1441246717987155
14.331848552338531,0.11473576234845852
14.365256124721604,0.11701637702308929
14.398663697104679,0.1470719955061358
14.432071269487752,0.18686503223050513
14.465478841870825,0.21118961119098092
14.4988864142539,0.19885224077160105
14.532293986636972,0.14281682393949344
14.565701559020045,0.05395588861270621
14.59910913140312,-0.04416085277449472
14.632516703786193,-0.12744356652453057
14.665924276169266,-0.18437453206624227
14.69933184855234,-0.2227483811246098
14.732739420935413,-0.26546845015725534
14.766146993318486,-0.3363960074489742
14.79955456570156,-0.4430184751348002
14.832962138084634,-0.565461911867182
14.866369710467707,-0.6591849157256288
14.899777282850781,-0.672119056623304
14.933184855233854,-0.5691697280165168
14.966592427616927,-0.35211704797856924
15.0,-0.0641617832103454
