Frequency (Hz),Amplitude
0.0,1.7826545077911802
0.020066889632107024,1.781920868090377
0.04013377926421405,1.7797210741119165
0.060200668896321065,1.7760585033611573
0.0802675585284281,1.7709387921720674
0.10033444816053512,1.7643698466093867
0.12040133779264213,1.7563618580643963
0.14046822742474915,1.7469273238852605
0.1605351170568562,1.7360810734927379
0.1806020066889632,1.7238403005507288
0.20066889632107024,1.7102246018924507
0.22073578595317725,1.6952560240484327
0.24080267558528426,1.678959118386213
0.2608695652173913,1.6613610060557462
0.2809364548494983,1.6424914541439324
0.3010033444816054,1.622382964679086
0.3210702341137124,1.6010708783966365
0.34113712374581934,1.5785934954844572
0.3612040133779264,1.554992215874288
0.3812709030100334,1.5303117020380386
0.4013377926421405,1.504600067686419
0.42140468227424743,1.4779090962519494
0.4414715719063545,1.4502944935650972
0.4615384615384615,1.4218161796897026
0.4816053511705685,1.3925386254521552
0.5016722408026756,1.3625312397413627
0.5217391304347826,1.3318688141156558
0.5418060200668896,1.3006320315367688
0.5618729096989966,1.268908046020867
0.5819397993311036,1.2367911394470057
0.6020066889632107,1.2043834603958241
0.6220735785953176,1.1717958472833918
0.6421404682274248,1.139148733623447
0.6622073578595318,1.1065731262135667
0.6822742474916387,1.0742116363879783
0.7023411371237458,1.0422195289807636
0.7224080267558528,1.0107657319170713
0.7424749163879598,0.9800337200711101
0.7625418060200668,0.9502221493560276
0.7826086956521738,0.9215450713426118
0.802675585284281,0.8942315078747781
0.8227424749163879,0.8685241160406583
0.8428093645484949,0.8446766391515528
0.862876254180602,0.8229498386816726
0.882943143812709,0.8036056609475731
0.903010033444816,0.7868995369160144
0.923076923076923,0.7730709599286248
0.9431438127090299,0.7623328240415702
0.963210702341137,0.754860383210428
0.983277591973244,0.7507810118827393
1.0033444816053512,0.7501660896988206
1.0234113712374582,0.7530261987433893
1.0434782608695652,0.759310391183027
1.0635451505016722,0.7689096465724957
1.0836120401337792,0.7816639655985229
1.1036789297658862,0.7973720291202613
1.1237458193979932,0.8158021116018708
1.1438127090301002,0.8367029928721631
1.1638795986622072,0.8598138846758139
1.1839464882943145,0.8848727592347198
1.2040133779264215,0.9116228270102049
1.2240802675585283,0.9398171919695552
1.2441471571906353,0.9692218916454443
1.2642140468227423,0.9996176150158145
1.2842809364548495,1.0308004080020117
1.3043478260869565,1.0625816508291444
1.3244147157190636,1.0947875455514688
1.3444816053511706,1.1272583007419374
1.3645484949832773,1.1598471523782588
1.3846153846153846,1.1924193193620454
1.4046822742474916,1.224850959965473
1.4247491638795986,1.2570281712915734
1.4448160535117056,1.2888460563370336
1.4648829431438126,1.3202078710655196
1.4849498327759196,1.3510242557372403
1.5050167224080266,1.3812125495080374
1.5250836120401337,1.4106961841491414
1.5451505016722407,1.439404150998894
1.5652173913043477,1.467270534465901
1.5852842809364547,1.4942341052222405
1.605351170568562,1.5202379664204926
1.625418060200669,1.5452292466804318
1.6454849498327757,1.569158834114163
1.6655518394648827,1.5919811462234958
1.6856187290969897,1.6136539310686087
1.705685618729097,1.634138095646379
1.725752508361204,1.653397557917391
1.745819397993311,1.6713991193758404
1.765886287625418,1.6881123554652289
1.7859531772575248,1.7035095215060543
1.806020066889632,1.7175654721230629
1.826086956521739,1.7302575924424153
1.846153846153846,1.741565739577971
1.866220735785953,1.7514721931445782
1.8862876254180598,1.7599616137291858
1.9063545150501673,1.7670210084208744
1.926421404682274,1.7726397026528633
1.9464882943143813,1.7768093177452544
1.966555183946488,1.7795237536603734
1.9866220735785953,1.780779176595397
2.0066889632107023,1.7805740111415584
2.026755852842809,1.778908936838259
2.0468227424749164,1.7757868890457076
2.0668896321070234,1.7712130641532962
2.0869565217391304,1.765194929234447
2.1070234113712374,1.7577422363548671
2.1270903010033444,1.7488670418405867
2.1471571906354514,1.7385837309187464
2.1672240802675584,1.7269090482579916
2.1872909698996654,1.7138621350605747
2.2073578595317724,1.6994645734961187
2.2274247491638794,1.683740439421111
2.2474916387959865,1.6667163645006875
2.267558528428094,1.6484216090442045
2.2876254180602005,1.6288881470858823
2.3076923076923075,1.6081507654911193
2.3277591973244145,1.5862471791500894
2.3478260869565215,1.5632181646374768
2.367892976588629,1.539107715071813
2.3879598662207355,1.5139632193024823
2.408026755852843,1.4878356689844967
2.4280936454849495,1.4607798975663828
2.4481605351170566,1.4328548557039114
2.468227424749164,1.4041239281012126
2.4882943143812706,1.3746552972375865
2.508361204013378,1.344522359807972
2.5284280936454846,1.313804201904801
2.548494983277592,1.2825861388724764
2.568561872909699,1.250960325190096
2.5886287625418056,1.2190264384198117
2.608695652173913,1.1868924388287738
2.6287625418060196,1.1546754022468693
2.648829431438127,1.122502417391086
2.668896321070234,1.0905115294127328
2.688963210702341,1.0588526977702173
2.709030100334448,1.0276887175417972
2.7290969899665547,0.9971960278684553
2.749163879598662,0.9675652986500994
2.769230769230769,0.939001647212491
2.789297658862876,0.911724292672857
2.809364548494983,0.8859654126559924
2.82943143812709,0.8619679350081102
2.849498327759197,0.8399819920292538
2.869565217391304,0.8202598073982451
2.8896321070234112,0.8030488987393045
2.9096989966555182,0.7885836772986994
2.9297658862876252,0.7770758068916447
2.9498327759197323,0.7687040113057123
2.9698996655518393,0.763604319063217
2.9899665551839463,0.7618619072902316
3.0100334448160533,0.7635056605118643
3.0301003344481603,0.7685062567248958
3.0501672240802673,0.776778079437734
3.0702341137123748,0.7881846591885974
3.0903010033444813,0.8025468336083333
3.1103678929765888,0.8196525104183326
3.1304347826086953,0.8392668706968196
3.1505016722408024,0.8611420219220619
3.1705685618729094,0.885025409918679
3.1906354515050164,0.9106666262043899
3.210702341137124,0.9378225284810469
3.2307692307692304,0.9662607910823475
3.250836120401338,0.995762115382258
3.270903010033445,1.0261213730660954
3.2909698996655514,1.0571479501335879
3.311036789297659,1.0886655274869501
3.3311036789297654,1.12051149081079
3.351170568561873,1.1525361183682734
3.3712374581939795,1.1846016558393122
3.391304347826087,1.2165813546797348
3.411371237458194,1.2483585249915818
3.4314381270903005,1.279825634859777
3.451505016722408,1.3108834744227562
3.471571906354515,1.341440393449109
3.491638795986622,1.3714116148464743
3.511705685618729,1.4007186224763957
3.531772575250836,1.429288619215604
3.551839464882943,1.4570540498854234
3.5719063545150496,1.4839521830960534
3.591973244147157,1.509924745958197
3.612040133779264,1.5349176058161287
3.632107023411371,1.5588804935288012
3.652173913043478,1.58176676328447
3.672240802675585,1.603533184425843
3.692307692307692,1.6241397612518687
3.712374581939799,1.6435495772297564
3.732441471571906,1.6617286604847021
3.752508361204013,1.6786458678305451
3.7725752508361197,1.6942727849611987
3.7926421404682276,1.7085836407405535
3.8127090301003346,1.7215552338114013
3.832775919732441,1.7331668699935905
3.852842809364548,1.7434003091628403
3.872909698996655,1.7522397204971882
3.8929765886287626,1.759671645151259
3.9130434782608696,1.7656849655735496
3.933110367892976,1.7702708808201597
3.953177257525083,1.7734228873441817
3.9732441471571907,1.7751367648545389
3.9933110367892977,1.7754105669445182
4.013377926421405,1.7742446162901289
4.033444816053511,1.7716415043144018
4.053511705685618,1.7676060953069461
4.073578595317726,1.7621455350809625
4.093645484949833,1.7552692643440313
4.113712374581939,1.7469890370560643
4.133779264214047,1.7373189441501746
4.153846153846153,1.7262754431008336
4.173913043478261,1.7138773939420897
4.193979933110368,1.7001461024672022
4.214046822742475,1.6851053714837
4.234113712374581,1.6687815611557384
4.254180602006689,1.6512036596420447
4.274247491638796,1.6324033654347394
4.294314381270903,1.6124151830245983
4.314381270903009,1.5912765337639074
4.334448160535117,1.5690278840708258
4.354515050167224,1.5457128934193847
4.374581939799331,1.5213785848862114
4.394648829431437,1.4960755413750337
4.414715719063545,1.4698581310049315
4.434782608695651,1.4427847655145596
4.454849498327759,1.4149181958789632
4.474916387959866,1.386325849622114
4.494983277591973,1.3570802144818126
4.5150501672240795,1.3272592730634287
4.535117056856188,1.2969469927868333
4.555183946488294,1.266233874620709
4.575250836120401,1.2352175625772315
4.595317725752508,1.204003513392139
4.615384615384615,1.1727057218202899
4.635451505016722,1.1414474909945436
4.655518394648829,1.1103622286607677
4.6755852842809364,1.079594238042074
4.695652173913043,1.049299455794235
4.71571906354515,1.0196460683031634
4.735785953177258,0.9908149111594089
4.7558528428093645,0.9629995256179964
4.775919732441471,0.936405712370552
4.795986622073578,0.9112503916265399
4.816053511705686,0.887759557268745
4.8361204013377925,0.8661651135066477
4.856187290969899,0.8467004199997836
4.8762541806020065,0.8295944613372662
4.896321070234113,0.8150647093671697
4.916387959866221,0.8033089591017831
4.936454849498328,0.794496665826354
4.956521739130435,0.788760542027643
4.976588628762541,0.7861893186798085
4.996655518394649,0.7868225693611568
5.016722408026756,0.7906483024788574
5.036789297658863,0.7976036673694094
5.056856187290969,0.8075786735982496
5.076923076923077,0.8204224018202342
5.096989966555184,0.8359508917006585
5.117056856187291,0.853955782821559
5.137123745819398,0.8742128525092303
5.157190635451505,0.8964897872557281
5.177257525083611,0.9205527705362192
5.197324414715719,0.9461717065274126
5.217391304347826,0.9731240870502903
5.237458193979933,1.0011976335383228
5.257525083612039,1.0301919109351458
5.277591973244148,1.05991912966838
5.297658862876254,1.0902043410448643
5.317725752508361,1.1208852043727604
5.337792642140468,1.151811470948402
5.357859531772575,1.1828442971382171
5.377926421404682,1.2138554695526207
5.397993311036789,1.2447266011180003
5.418060200668896,1.2753483378354695
5.438127090301003,1.3056196016593595
5.458193979933109,1.3354468844625662
5.478260869565218,1.3647436006728237
5.498327759197324,1.393429501130699
5.518394648829431,1.4214301474236561
5.538461538461538,1.4486764439041047
5.558528428093646,1.4751042234297949
5.578595317725752,1.5006538822947797
5.598662207357859,1.525270059646804
5.618729096989966,1.5489013567691416
5.638795986622073,1.5715000918406263
5.65886287625418,1.593022086109247
5.678929765886288,1.613426477775583
5.698996655518394,1.6326755602535343
5.719063545150501,1.6507346418379614
5.739130434782608,1.6675719241518825
5.759197324414716,1.6831583970632775
5.7792642140468224,1.6974677480517455
5.799331103678929,1.710476284267297
5.8193979933110365,1.7221628657593824
5.839464882943144,1.7325088485652027
5.8595317725752505,1.7414980365351347
5.879598662207358,1.7491166409419687
5.8996655518394645,1.7553532470724496
5.919732441471571,1.76019878713641
5.9397993311036785,1.7636465189531143
5.959866220735786,1.765692009988605
5.9799331103678925,1.7663331264234527
5.999999999999999,1.7655700270298693
6.020066889632107,1.7634051617319229
6.040133779264214,1.759843274814671
6.060200668896321,1.754891412838932
6.080267558528428,1.748558937409652
6.100334448160535,1.7408575430392461
6.120401337792642,1.7318012804441547
6.1404682274247495,1.721406585715171
6.160535117056856,1.7096923159110051
6.180602006688963,1.696679791742077
6.200668896321069,1.6823928481392485
6.2207357859531776,1.666857893641443
6.240802675585284,1.6501039796888632
6.260869565217391,1.6321628810756368
6.280936454849498,1.6130691889985378
6.301003344481605,1.592860418337112
6.321070234113712,1.571577131014597
6.341137123745819,1.5492630775164928
6.361204013377926,1.5259653588801307
6.381270903010033,1.5017346117072448
6.40133779264214,1.4766252189797577
6.421404682274248,1.45069554965905
6.441471571906354,1.4240082301930612
6.461538461538461,1.3966304511035421
6.481605351170568,1.368634311720561
6.501672240802676,1.3400972057929768
6.521739130434782,1.3111022500202114
6.54180602006689,1.281738756374276
6.561872909698996,1.252102747210245
6.581939799331103,1.2222975093423931
6.60200668896321,1.1924341791656163
6.622073578595318,1.1626323451360412
6.642140468227424,1.1330206460424308
6.662207357859531,1.1037373330347724
6.682274247491639,1.0749307499233223
6.702341137123746,1.0467596696170063
6.722408026755852,1.0193934049627884
6.742474916387959,0.9930115906723553
6.762541806020066,0.9678035116752131
6.782608695652174,0.943966835995067
6.80267558528428,0.9217056030374093
6.822742474916388,0.9012273289618492
6.842809364548494,0.8827391287581443
6.862876254180601,0.8664428280439154
6.882943143812709,0.8525291503238775
6.903010033444816,0.8411712123763442
6.9230769230769225,0.8325177233956441
6.94314381270903,0.8266864303755947
6.963210702341137,0.8237584417721322
6.983277591973244,0.8237740552048038
7.0033444816053505,0.8267305926067081
7.023411371237458,0.8325825185368116
7.0434782608695645,0.8412438280364748
7.063545150501672,0.8525924040451944
7.083612040133779,0.8664758245881031
7.103678929765886,0.8827179878841854
7.123745819397993,0.901125926993437
7.143812709030099,0.92149628218128
7.1638795986622075,0.9436210494104422
7.183946488294314,0.9672923864166538
7.204013377926421,0.9923064025904883
7.224080267558528,1.0184659684114805
7.2441471571906355,1.0455826503050911
7.264214046822742,1.073477911971512
7.2842809364548495,1.1019837319898647
7.304347826086956,1.1309427789902287
7.324414715719063,1.1602082677366647
7.34448160535117,1.1896435978380846
7.364548494983278,1.219121855221577
7.384615384615384,1.24852523704017
7.404682274247491,1.277744444254984
7.424749163879598,1.3066780729056537
7.444816053511706,1.3352320248313139
7.464882943143812,1.3633189509074986
7.48494983277592,1.3908577342521884
7.505016722408026,1.4177730168797744
7.525083612040134,1.4439947705562197
7.545150501672239,1.4694579108113626
7.565217391304348,1.494101951942629
7.585284280936455,1.5178707002017784
7.605351170568561,1.5407119820475796
7.625418060200669,1.5625774042635812
7.645484949832775,1.5834221428034212
7.665551839464882,1.6032047573809811
7.685618729096991,1.6218870290303204
7.705685618729096,1.6394338180936565
7.725752508361204,1.6558129403378337
7.74581939799331,1.670995059138478
7.765886287625418,1.6849535918999954
7.785953177257525,1.6976646290946296
7.806020066889631,1.7091068645026624
7.826086956521739,1.7192615354193537
7.846153846153847,1.7281123717608788
7.866220735785952,1.735645553154414
7.88628762541806,1.7418496732363264
7.906354515050166,1.7467157105095745
7.926421404682274,1.7502370052281913
7.946488294314381,1.7524092418847508
7.966555183946488,1.7532304369772393
7.986622073578595,1.7527009318270188
8.006688963210701,1.7508233903099546
8.02675585284281,1.7476028014507485
8.046822742474916,1.7430464869164708
8.066889632107022,1.737164113531148
8.08695652173913,1.7299677110199878
8.107023411371236,1.7214716952801992
8.127090301003344,1.711692897567778
8.147157190635452,1.7006506000850166
8.167224080267557,1.688366578555161
8.187290969899665,1.6748651524774854
8.207357859531772,1.6601732438696315
8.227424749163879,1.6443204454244376
8.247491638795987,1.6273390991350871
8.267558528428093,1.6092643865748992
8.2876254180602,1.5901344321540336
8.307692307692307,1.5699904208116437
8.327759197324415,1.5488767317338459
8.347826086956522,1.526841089806371
8.367892976588628,1.5039347366057723
8.387959866220736,1.4802126227868686
8.408026755852843,1.4557336237144824
8.42809364548495,1.4305607800828064
8.448160535117056,1.4047615650223266
8.468227424749163,1.3784081787551863
8.488294314381271,1.3515778711495317
8.508361204013378,1.3243532914429932
8.528428093645484,1.2968228628319771
8.548494983277592,1.2690811774024482
8.568561872909697,1.2412294038265266
8.588628762541806,1.2133756961581612
8.608695652173914,1.1856355867081922
8.628762541806019,1.1581323391551512
8.648829431438127,1.1309972296048956
8.668896321070234,1.1043697132387942
8.68896321070234,1.0783974227262876
8.709030100334449,1.053235932368966
8.729096989966555,1.0290482102298784
8.749163879598662,1.0060036713112503
8.769230769230768,0.9842767411297046
8.789297658862875,0.964044844650089
8.809364548494983,0.9454857548814313
8.82943143812709,0.9287742726531897
8.849498327759196,0.9140782666720104
8.869565217391303,0.9015541799201928
8.889632107023411,0.8913421984725136
8.909698996655518,0.8835613691900065
8.929765886287624,0.8783050252755494
8.949832775919733,0.8756369130230517
8.96989966555184,0.875588392636793
8.989966555183946,0.8781570043354333
9.010033444816054,0.8833065563658541
9.030100334448159,0.8909687268156863
9.050167224080267,0.9010460078514398
9.070234113712376,0.913415690420918
9.09030100334448,0.9279345112247139
9.110367892976589,0.9444435688128955
9.130434782608695,0.9627731544572146
9.150501672240802,0.9827472187327018
9.17056856187291,1.0041872861169427
9.190635451505017,1.0269157194986054
9.210702341137123,1.050758312115985
9.23076923076923,1.075546240317053
9.250836120401337,1.1011174460503035
9.270903010033445,1.1273175358922878
9.290969899665551,1.1540002879311968
9.311036789297658,1.1810278533613878
9.331103678929765,1.2082707299983546
9.351170568561873,1.235607572980909
9.37123745819398,1.2629248956437138
9.391304347826086,1.2901167021027937
9.411371237458194,1.3170840830995234
9.4314381270903,1.3437347983062335
9.451505016722408,1.3699828615783396
9.471571906354516,1.3957481403847753
9.49163879598662,1.420955976646216
9.511705685618729,1.4455368332346723
9.531772575250837,1.4694259682296922
9.551839464882942,1.4925631375032014
9.57190635451505,1.5148923251651978
9.591973244147155,1.5363615007235836
9.612040133779264,1.5569224013968945
9.632107023411372,1.576530337794534
9.652173913043477,1.595144021088623
9.672240802675585,1.6127254098030699
9.692307692307692,1.62923957440782
9.712374581939798,1.6446545780071506
9.732441471571907,1.658941371534506
9.752508361204013,1.6720737020010699
9.77257525083612,1.6840280324844914
9.792642140468226,1.6947834726813749
9.812709030100335,1.704321718980819
9.832775919732441,1.7126270031431616
9.852842809364548,1.719686048788407
9.872909698996656,1.7254880350115192
9.89297658862876,1.7300245665475815
9.91304347826087,1.733289650009017
9.933110367892976,1.7352796758102804
9.953177257525082,1.7359934054835076
9.97324414715719,1.7354319641724383
9.993311036789297,1.7335988381721306
10.013377926421404,1.7304998774596603
10.033444816053512,1.7261433032365612
10.053511705685617,1.7205397205783641
10.073578595317725,1.7137021363605847
10.093645484949834,1.7056459827043446
10.113712374581938,1.6963891462593506
10.133779264214047,1.685952003716741
10.153846153846153,1.6743574640199668
10.17391304347826,1.6616310178174691
10.193979933110368,1.6478007947763191
10.214046822742475,1.6328976294488566
10.234113712374581,1.616955136453745
10.254180602006688,1.6000097957947952
10.274247491638796,1.5821010491909269
10.294314381270903,1.563271408323295
10.31438127090301,1.5435665759113673
10.334448160535118,1.52303558049834
10.354515050167223,1.5017309257418352
10.37458193979933,1.4797087548493173
10.394648829431437,1.457029030543412
10.414715719063544,1.4337557305582493
10.434782608695652,1.4099570581132705
10.454849498327757,1.385705666036372
10.474916387959865,1.3610788921521892
10.494983277591974,1.3361590021448648
10.515050167224079,1.311033434265469
10.535117056856187,1.2857950378989564
10.555183946488295,1.260542295046608
10.5752508361204,1.2353795101497704
10.595317725752508,1.2104169493390102
10.615384615384615,1.1857709051675125
10.635451505016722,1.1615636573074253
10.65551839464883,1.1379232938400483
10.675585284280936,1.1149833521599122
10.695652173913043,1.0928822339257056
10.71571906354515,1.071762346040003
10.735785953177256,1.0517689207677121
10.755852842809364,1.0330484745006399
10.775919732441471,1.0157468780785497
10.795986622073578,1.0000070333952178
