Frequency (Hz),Amplitude
0.0,0.8537769776306283
0.04,0.8538802623036754
0.08,0.8541897112724712
0.12,0.8547041118099982
0.16,0.855421450752575
0.19999999999999998,0.8563389264608994
0.24,0.8574529653464407
0.27999999999999997,0.8587592427508043
0.32,0.8602527079143694
0.36,0.8619276127255603
0.39999999999999997,0.863777543904449
0.44,0.8657954582449583
0.48,0.8679737205184705
0.52,0.870304143628789
0.5599999999999999,0.8727780306036621
0.6,0.875386218010999
0.64,0.8781191203979651
0.6799999999999999,0.8809667753673631
0.72,0.8839188889275945
0.76,0.8869648807782946
0.7999999999999999,0.8900939292233648
0.84,0.8932950154348412
0.88,0.8965569668242719
0.9199999999999999,0.8998684993121562
0.96,0.9032182583194867
1.0,0.9065948583380609
1.04,0.9099869209675876
1.0799999999999998,0.9133831113366618
1.1199999999999999,0.9167721728518676
1.1600000000000001,0.9201429602436946
1.2,0.9234844708998294
1.24,0.9267858744957145
1.28,0.9300365409485418
1.3199999999999998,0.9332260667351264
1.3599999999999999,0.9363442996251663
1.4,0.9393813618908868
1.44,0.9423276720608035
1.48,0.9451739652905414
1.52,0.9479113124267833
1.5599999999999998,0.9505311378423311
1.5999999999999999,0.9530252361205306
1.64,0.9553857876665446
1.68,0.9576053733211929
1.72,0.9596769880504872
1.76,0.9615940537805647
1.7999999999999998,0.9633504314439189
1.8399999999999999,0.9649404322983871
1.88,0.9663588285756435
1.92,0.9676008635108732
1.9599999999999997,0.9686622607999781
2.0,0.969539233525236
2.0399999999999996,0.9702284925845251
2.08,0.9707272546536169
2.12,0.971033249704825
2.1599999999999997,0.9711447280994616
2.2,0.9710604672650808
2.2399999999999998,0.970779777962251
2.28,0.9703025101389169
2.3200000000000003,0.9696290583636331
2.36,0.9687603668219239
2.4,0.9676979338526673
2.44,0.9664438159938913
2.48,0.9650006314992492
2.5199999999999996,0.9633715632783116
2.56,0.9615603612049928
2.6,0.9595713437293194
2.6399999999999997,0.9574093987183945
2.68,0.9550799834422423
2.7199999999999998,0.9525891236101817
2.76,0.9499434113525361
2.8,0.9471500020317463
2.84,0.9442166097557648
2.88,0.9411515014555272
2.92,0.9379634893772725
2.96,0.934661921829908
2.9999999999999996,0.9312566720173133
3.04,0.9277581247765418
3.08,0.9241771610348634
3.1199999999999997,0.9205251397922931
3.16,0.9168138774324883
3.1999999999999997,0.913055624163328
3.2399999999999998,0.9092630373907938
3.28,0.9054491518356611
3.32,0.9016273462133113
3.36,0.8978113063129487
3.4,0.8940149843346576
3.44,0.8902525543713994
3.4799999999999995,0.8865383639590079
3.52,0.882886881660846
3.5599999999999996,0.8793126407051792
3.5999999999999996,0.875830178752767
3.64,0.8724539739391766
3.6799999999999997,0.8691983774104844
3.7199999999999998,0.8660775426513663
3.76,0.8631053519895523
3.7999999999999994,0.8602953407488395
3.84,0.8576606196116936
3.88,0.8552137958395573
3.9199999999999995,0.8529668940814825
3.96,0.8509312775761279
4.0,0.8491175706155427
4.04,0.8475355831880688
4.079999999999999,0.8461942387489796
4.12,0.8451015060788064
4.16,0.8442643361778712
4.199999999999999,0.8436886051109164
4.24,0.8433790636564259
4.28,0.8433392945324939
4.319999999999999,0.8435716778659496
4.36,0.8440773654468157
4.4,0.8448562641691169
4.4399999999999995,0.845907028906251
4.4799999999999995,0.8472270649091725
4.5200000000000005,0.8488125396537306
4.56,0.8506584039051224
4.6,0.8527584216175025
4.640000000000001,0.8551052081498112
4.68,0.8576902761592827
4.72,0.8605040884342652
4.76,0.8635361168507816
4.8,0.8667749065831273
4.84,0.8702081446683818
4.88,0.8738227320169106
4.92,0.8776048579740229
4.96,0.8815400765700939
5.0,0.8856133836444271
5.039999999999999,0.8898092940892197
5.08,0.8941119185308799
5.12,0.8985050388435699
5.159999999999999,0.9029721819713472
5.2,0.9074966916176138
5.24,0.9120617974421273
5.279999999999999,0.9166506814837175
5.319999999999999,0.9212465416002682
5.36,0.925832651785142
5.3999999999999995,0.9303924192797676
5.4399999999999995,0.9349094384561273
5.48,0.9393675414889924
5.52,0.9437508458772866
5.56,0.9480437989060096
5.6,0.9522312191664019
5.64,0.9562983352714616
5.68,0.9602308219189177
5.72,0.9640148334633166
5.76,0.9676370351646066
5.8,0.9710846322828204
5.84,0.9743453971875186
5.879999999999999,0.9774076946476479
5.92,0.9802605054620507
5.96,0.9828934485843083
5.999999999999999,0.9852968018875954
6.04,0.9874615217065441
6.08,0.9893792612836066
6.119999999999999,0.9910423882376151
6.16,0.9924440011621616
6.2,0.9935779454510006
6.239999999999999,0.9944388284374321
6.279999999999999,0.995022033923909
6.32,0.9953237361677245
6.359999999999999,0.9953409133778007
6.3999999999999995,0.9950713607666632
6.44,0.9945137031905739
6.4799999999999995,0.9936674073991227
6.52,0.9925327939035127
6.56,0.9911110484599291
6.6,0.9894042331507911
6.64,0.9874152970319214
6.68,0.985148086297897
6.72,0.9826073539002839
6.76,0.9797987685346864
6.8,0.9767289228914605
6.84,0.9734053410421095
6.88,0.9698364848080966
6.92,0.9660317589311008
6.959999999999999,0.9620015148335728
7.0,0.957757052725331
7.04,0.9533106217766013
7.08,0.948675418039612
7.119999999999999,0.9438655797603709
7.16,0.9388961796800572
7.199999999999999,0.9337832138815952
7.239999999999999,0.9285435866928454
7.28,0.9231950911145593
7.32,0.9177563841995702
7.359999999999999,0.912246956772619
7.3999999999999995,0.9066870968490202
7.4399999999999995,0.9010978460880181
7.4799999999999995,0.895500948606709
7.52,0.889918791485494
7.5600000000000005,0.8843743363207879
7.599999999999999,0.8788910412285849
7.64,0.8734927727779408
7.68,0.8682037074401862
7.719999999999999,0.8630482222812524
7.76,0.8580507748031742
7.800000000000001,0.8532357720585863
7.839999999999999,0.8486274294175036
7.88,0.8442496196572999
7.92,0.8401257133687521
7.959999999999999,0.8362784120156815
8.0,0.8327295753420835
8.040000000000001,0.8295000451746329
8.08,0.8266094680036903
8.12,0.8240761190243066
8.159999999999998,0.8219167305600429
8.2,0.8201463279589803
8.24,0.8187780761249173
8.28,0.8178231398142789
8.32,0.8172905606820818
8.36,0.817187153795493
8.399999999999999,0.8175174259560198
8.44,0.8182835176929447
8.48,0.8194851702295592
8.52,0.8211197181056634
8.56,0.8231821074919939
8.6,0.8256649395869763
8.639999999999999,0.8285585378728362
8.68,0.8318510374555583
8.72,0.8355284942439988
8.76,0.8395750113561378
8.8,0.8439728798842948
8.84,0.8487027310102885
8.879999999999999,0.853743696431908
8.92,0.8590735741346133
8.959999999999999,0.8646689967029414
9.0,0.8705055995979952
9.040000000000001,0.8765581871117458
9.079999999999998,0.8828008940277481
9.12,0.889207341353048
9.16,0.8957507848228827
9.2,0.9024042552044408
9.24,0.9091406897291578
9.280000000000001,0.9159330542570358
9.32,0.9227544560168394
9.36,0.9295782469706342
9.399999999999999,0.9363781180198979
9.44,0.9431281844041796
9.48,0.9498030627453217
9.52,0.9563779402629365
9.559999999999999,0.9628286367344867
9.6,0.9691316597992478
9.639999999999999,0.9752642542138085
9.68,0.9812044456605737
9.72,0.986931079693932
9.76,0.9924238563832615
9.8,0.9976633611811617
9.84,1.0026310925105613
9.879999999999999,1.0073094865278072
9.92,1.0116819394815137
9.959999999999999,1.015732828050338
10.0,1.019447528007128
10.04,1.0228124315231997
10.079999999999998,1.0258149633949265
10.12,1.0284435964454348
10.16,1.0306878663275838
10.2,1.0325383859299275
10.24,1.0339868595653596
10.280000000000001,1.0350260971024206
10.319999999999999,1.0356500281811274
10.36,1.0358537166393382
10.4,1.0356333752605462
10.44,1.0349863809405182
10.48,1.0339112903571328
10.52,1.032407856214985
10.559999999999999,1.0304770441235844
10.6,1.0281210501543634
10.639999999999999,1.0253433191071513
10.68,1.022148563500211
10.72,1.0185427832791976
10.76,1.014533286218025
10.799999999999999,1.0101287089588848
10.84,1.0053390386071515
10.879999999999999,1.0001756347600863
10.92,0.994651251803913
10.96,0.988780061261098
11.0,0.9825776739076205
11.04,0.9760611613061947
11.08,0.9692490763158806
11.12,0.9621614720383569
11.16,0.9548199185464378
11.2,0.9472475166091444
11.24,0.9394689074797417
11.28,0.9315102776487563
11.319999999999999,0.9233993572832893
11.36,0.915165410879719
11.4,0.9068392184527301
11.44,0.8984530453747003
11.48,0.8900405987744912
11.52,0.8816369682148079
11.559999999999999,0.8732785482063224
11.6,0.8650029400035794
11.64,0.856848830083532
11.68,0.8488558427577395
11.72,0.8410643645415586
11.759999999999998,0.8335153382263549
11.799999999999999,0.8262500251021987
11.84,0.8193097344811683
11.879999999999999,0.8127355205910824
11.92,0.8065678480481459
11.96,0.8008462284600245
11.999999999999998,0.7956088322213529
12.04,0.7908920811801006
12.08,0.786730229488504
12.12,0.7831549414960787
12.16,0.7801948768668983
12.200000000000001,0.7778752940749646
12.239999999999998,0.7762176839234605
12.28,0.7752394446420999
12.32,0.7749536093782808
12.36,0.7753686355012982
12.4,0.7764882631338889
12.44,0.7783114478231046
12.479999999999999,0.7808323694260554
12.52,0.7840405163155005
12.559999999999999,0.7879208411191181
12.6,0.792453981599716
12.64,0.7976165381327578
12.68,0.8033813976648525
12.719999999999999,0.8097180931052113
12.76,0.8165931868132394
12.799999999999999,0.8239706671479113
12.84,0.8318123478446763
12.88,0.8400782611637816
12.92,0.8487270371803531
12.959999999999999,0.8577162631351409
12.999999999999998,0.8670028183248529
13.04,0.8765431814916794
13.08,0.8862937090086433
13.12,0.8962108833088679
13.16,0.9062515319534132
13.2,0.9163730184721156
13.239999999999998,0.9265334066561299
13.28,0.9366916003495634
13.32,0.9468074610060608
13.36,0.9568419053709091
13.4,0.9667569856467828
13.44,0.9765159544261113
13.479999999999999,0.986083316546083
13.52,0.9954248698623404
13.559999999999999,1.004507736757961
13.6,1.0133003880180658
13.64,1.0217726605147297
13.68,1.029895769968649
13.719999999999999,1.0376423198872853
13.76,1.0449863076260049
13.799999999999999,1.0519031283812326
13.84,1.0583695778023177
13.88,1.0643638538022708
13.919999999999998,1.069865558055335
13.959999999999999,1.0748556975912935
14.0,1.0793166868306219
14.04,1.0832323503506356
14.08,1.0865879266287979
14.120000000000001,1.0893700729748708
14.16,1.0915668718370963
14.2,1.0931678386482284
14.239999999999998,1.0941639313643872
14.28,1.094547561842258
14.32,1.0943126091974984
14.36,1.0934544352890594
14.399999999999999,1.09196990247921
14.44,1.0898573938276186
14.479999999999999,1.087116835888696
14.52,1.083749724294612
14.56,1.07975915232066
14.6,1.0751498426452195
14.64,1.0699281825317561
14.68,1.0641022626747731
14.719999999999999,1.0576819199640284
14.76,1.0506787844300456
14.799999999999999,1.0431063306371797
14.84,1.034979933785928
14.879999999999999,1.0263169307704079
14.919999999999998,1.017136686406688
14.959999999999999,1.0074606649973046
15.0,0.9973125073216326
15.04,0.9867181130329432
15.079999999999998,0.9757057282918257
15.120000000000001,0.9643060382617754
15.159999999999998,0.9525522638228665
15.199999999999998,0.9404802615088659
15.24,0.9281286252248143
15.28,0.9155387877378265
15.319999999999999,0.9027551192343041
15.36,0.8898250193833646
15.399999999999999,0.8767989983241163
15.439999999999998,0.8637307407942773
15.48,0.850677146242635
15.52,0.8376983362391118
15.559999999999999,0.8248576188615718
15.600000000000001,0.8122213980830705
15.639999999999999,0.7998590146393085
15.679999999999998,0.7878425036148454
15.72,0.7762462533023602
15.76,0.7651465500811573
15.799999999999999,0.7546209954958999
15.84,0.7447477847786067
15.879999999999999,0.7356048410894291
15.919999999999998,0.7272688069758572
15.96,0.7198139039626966
16.0,0.7133106824526272
16.04,0.7078246964901487
16.080000000000002,0.7034151502279058
16.12,0.7001335735679206
16.16,0.6980225916754967
16.200000000000003,0.6971148552360996
16.24,0.6974321942740361
16.279999999999998,0.6989850477220246
16.319999999999997,0.7017722043969143
16.36,0.7057808703007928
16.4,0.7109870547038635
16.439999999999998,0.7173562460721591
16.48,0.7248443311559878
16.52,0.7333986983338824
16.56,0.7429594605049132
16.6,0.7534607332964033
16.64,0.764831910107252
16.68,0.7769988850036916
16.72,0.7898851860148065
16.759999999999998,0.803412993358551
16.799999999999997,0.8175040283218448
16.84,0.8320803080947317
16.88,0.84706476940717
16.919999999999998,0.8623817692618312
16.96,0.8779574745604136
17.0,0.8937201542860406
17.04,0.9096003884868944
17.080000000000002,0.9255312079594913
17.12,0.9414481775676384
17.16,0.9572894348114181
17.2,0.9729956937755548
17.24,0.9885102230782498
17.279999999999998,1.0037788050026724
17.32,1.0187496816787094
17.36,1.0333734930211027
17.4,1.0476032101288573
17.44,1.0613940670071886
17.48,1.0747034927744006
17.52,1.0874910459472094
17.56,1.099718351941618
17.6,1.1113490445664558
17.64,1.1223487120060809
17.68,1.1326848475754046
17.72,1.142326805369892
17.759999999999998,1.151245760817171
17.799999999999997,1.1594146760549984
17.84,1.166808270006459
17.88,1.1734029929912835
17.919999999999998,1.1791770056972792
17.96,1.1841101623346626
18.0,1.1881839978058917
18.04,1.1913817187416196
18.080000000000002,1.1936881982792384
18.12,1.195089974491961
18.159999999999997,1.1955752524134224
18.2,1.1951339096454014
18.24,1.193757505583688
18.279999999999998,1.1914392943503516
18.32,1.1881742415800818
18.36,1.1839590452745734
18.4,1.1787921610136467
18.44,1.1726738318958518
18.48,1.165606123676964
18.52,1.1575929656838755
18.560000000000002,1.1486401982065153
18.6,1.1387556272146484
18.64,1.127949087413107
18.679999999999996,1.116232514842491
18.72,1.1036200304571258
18.759999999999998,1.0901280363736083
18.799999999999997,1.0757753267876982
18.84,1.060583215910967
18.88,1.0445756856889676
18.919999999999998,1.0277795565362153
18.96,1.0102246848665741
19.0,0.9919441918151568
19.04,0.9729747282398005
19.080000000000002,0.9533567818505516
19.119999999999997,0.9331350331261937
19.159999999999997,0.912358767500612
19.2,0.8910823520721375
19.24,0.8693657856925292
19.279999999999998,0.8472753315479971
19.32,0.8248842409677478
19.36,0.802273575756967
19.4,0.7795331332164931
19.44,0.756762472273548
19.48,0.734072029552895
19.52,0.7115842991112857
19.560000000000002,0.6894350268982277
19.6,0.6677743385321127
19.639999999999997,0.6467676746883697
19.68,0.6265963515332881
19.72,0.6074574964611801
19.759999999999998,0.5895630398292651
19.8,0.5731373882851672
19.84,0.5584133930318674
19.88,0.5456262960811316
19.919999999999998,0.535005530614507
19.96,0.5267645920252435
20.0,0.5210896614988337
20.04,0.5181281592570139
20.08,0.5179787650845339
20.119999999999997,0.5206844871423904
20.159999999999997,0.5262299809922582
20.2,0.5345435753065899
20.24,0.5455035716515346
20.279999999999998,0.558947644737015
20.32,0.5746837940733078
20.36,0.5925013383229997
20.4,0.6121807928733259
20.44,0.6335019503849213
20.48,0.6562499340752976
20.52,0.6802193236314207
20.560000000000002,0.7052166427158938
20.599999999999998,0.7310615680440462
20.639999999999997,0.75758721228914
20.68,0.7846397837065202
20.72,0.8120778613264599
20.759999999999998,0.8397714619654306
20.8,0.8676010218487139
20.84,0.8954563736603415
20.88,0.9232357687952454
20.92,0.9508449727130548
20.96,0.9781964465302683
21.0,1.0052086184561
21.04,1.0318052428408164
21.08,1.0579148412873007
21.119999999999997,1.0834702186205583
21.159999999999997,1.1084080459119403
21.2,1.1326685028010623
21.24,1.156194971773907
21.279999999999998,1.1789337776606714
21.32,1.2008339662987133
21.36,1.221847116996164
21.4,1.2419271840904664
21.44,1.2610303635032092
21.48,1.2791149807385913
21.52,1.2961413972566462
21.56,1.312071932575684
21.599999999999998,1.326870799826185
21.639999999999997,1.3405040527961067
21.68,1.3529395427808333
21.72,1.3641468837856126
21.759999999999998,1.3740974248292936
21.8,1.3827642282704242
21.84,1.3901220532242475
21.88,1.3961473432655844
21.92,1.4008182177213322
21.96,1.4041144659496012
22.0,1.4060175440835883
22.04,1.4065105737879284
22.08,1.405578342636725
22.119999999999997,1.4032073057757692
22.16,1.3993855885792548
22.2,1.3941029900536888
22.24,1.38735098678078
22.28,1.3791227372269939
22.32,1.3694130862816916
22.36,1.3582185699194254
22.4,1.3455374199156553
22.44,1.331369568580486
22.48,1.315716653513384
22.519999999999996,1.2985820224247617
22.56,1.2799707381202965
22.599999999999998,1.2598895838033757
22.639999999999997,1.2383470689243912
22.68,1.2153534358973892
22.72,1.1909206681221345
22.759999999999998,1.1650624999026171
22.8,1.137794429055191
22.84,1.1091337332704738
22.88,1.079099491661288
22.92,1.0477126134359485
22.96,1.0149958763438316
23.0,0.9809739785421907
23.04,0.9456736089725524
23.08,0.909123543436024
23.119999999999997,0.8713547766754944
23.16,0.832400705486852
23.2,0.7922973851513063
23.24,0.7510838929382259
23.28,0.7088028509239166
23.32,0.6655011910342491
23.36,0.6212312975780588
23.400000000000002,0.5760527549578625
23.44,0.5300350975758277
23.479999999999997,0.4832622825863668
23.519999999999996,0.4358402551361316
23.56,0.3879103505402036
23.599999999999998,0.3396743781366308
23.639999999999997,0.29144473284208083
23.68,0.243752457724311
23.72,0.1976009030835287
23.759999999999998,0.1551068961492602
23.8,0.12107675834871648
23.84,0.10507257737115303
23.88,0.11563123939541249
23.92,0.14765060735955826
23.96,0.19094375791515808
23.999999999999996,0.23969558555629872
24.04,0.291321687820417
24.08,0.3446208571419904
24.119999999999997,0.39896959258227005
24.16,0.4540052867768263
24.2,0.5094938684978203
24.24,0.5652696474896566
24.28,0.6212057418241373
24.32,0.6771985262011025
24.36,0.7331589778336041
24.400000000000002,0.7890076287003533
24.439999999999998,0.8446715047285324
24.479999999999997,0.9000822102580136
24.52,0.9551746990664166
24.56,1.0098864713469495
24.599999999999998,1.0641570430891005
24.64,1.1179275944323792
24.68,1.1711407384950523
24.72,1.2237403731033942
24.759999999999998,1.2756715907261296
24.8,1.3268806300438336
24.84,1.3773148578249237
24.88,1.4269227732305607
24.92,1.4756540289858735
24.959999999999997,1.523459465434586
24.999999999999996,1.570291154589771
25.04,1.6161024520646246
25.08,1.6608480553182583
25.119999999999997,1.7044840670501673
25.16,1.7469680628696824
25.2,1.7882591625845858
25.24,1.8283181046169403
25.28,1.867107323179495
25.32,1.9045910279433553
25.36,1.9407352860035982
25.4,1.975508106010797
25.439999999999998,2.0088795243853395
25.479999999999997,2.0408216935722354
25.52,2.071308972327431
25.56,2.100318018055029
25.599999999999998,2.1278278812384666
25.64,2.153820102028548
25.68,2.1782788090677045
25.72,2.2011908206427178
25.76,2.222545748267479
25.8,2.2423361028033315
25.84,2.2605574032249547
25.880000000000003,2.277208288136387
25.919999999999998,2.2922906301308985
25.959999999999997,2.3058096530710053
25.999999999999996,2.3177740523376698
26.04,2.3281961180601227
26.08,2.3370918612862415
26.119999999999997,2.3444811429864543
26.16,2.350387805697608
26.2,2.354839807504294
26.24,2.3578693579188155
26.28,2.359513055053654
26.32,2.3598120232754223
26.36,2.3588120502828107
26.4,2.356563722255375
26.439999999999998,2.3531225553707884
26.479999999999997,2.3485491215774528
26.52,2.3429091660340995
26.56,2.336273713081715
26.599999999999998,2.3287191569956542
26.64,2.3203273330762566
26.68,2.3111855638815193
26.72,2.3013866745945766
26.76,2.2910289706728157
26.8,2.280216170070731
26.84,2.2690572815079166
26.88,2.2576664195187064
26.919999999999998,2.2461625464429957
26.959999999999997,2.234669131182342
27.0,2.2233137145534534
27.04,2.2122273715350222
27.08,2.2015440617427697
27.119999999999997,2.1913998611978065
27.16,2.1819320709754515
27.2,2.1732782017032677
27.24,2.165574837134238
27.28,2.1589563850973894
27.32,2.1535537298769936
27.36,2.149492806242197
27.4,2.146893121586634
27.439999999999998,2.1458662584927186
27.479999999999997,2.146514394994703
27.52,2.1489288833483813
27.56,2.1531889297356677
27.599999999999998,2.159360416664459
27.64,2.167494906668689
27.68,2.1776288602952354
27.72,2.1897830935553704
27.76,2.2039624905229624
27.8,2.220155976269611
27.839999999999996,2.2383367446351223
27.88,2.2584627252488394
27.919999999999998,2.280477265469014
27.959999999999997,2.304309996054686
28.0,2.329877844772454
