Time (s),Filtered Signal
0.0,0.027425027020643943
0.03337004405286344,0.33134086213165537
0.06674008810572687,0.6600789919001677
0.10011013215859031,1.0013658110368524
0.13348017621145375,1.294060297017794
0.16685022026431717,1.4511050863586215
0.20022026431718062,1.405772588946746
0.23359030837004408,1.1545823059905762
0.2669603524229075,0.7707058303034319
0.3003303964757709,0.37778320103171276
0.33370044052863435,0.0965109589006434
0.3670704845814978,-0.008160030633630456
0.40044052863436125,0.04810355359174874
0.43381057268722467,0.18362971094824423
0.46718061674008815,0.29509121971655644
0.5005506607929515,0.30728979272784834
0.533920704845815,0.20360960032131378
0.5672907488986785,0.02473524253000111
0.6006607929515418,-0.15963539087996756
0.6340308370044053,-0.28881449267293796
0.6674008810572687,-0.33919188806871486
0.7007709251101322,-0.329971081314769
0.7341409691629956,-0.30639772844937113
0.767511013215859,-0.3111734158241853
0.8008810572687225,-0.35955964292899933
0.834251101321586,-0.4308098065524418
0.8676211453744493,-0.4798200008825661
0.9009911894273128,-0.46259864945903284
0.9343612334801763,-0.36227782532107744
0.9677312775330397,-0.20219766095717742
1.001101321585903,-0.039072845589485206
1.0344713656387665,0.06089716283003357
1.06784140969163,0.051768677430488394
1.1012114537444935,-0.0705848744397389
1.134581497797357,-0.2652026873147542
1.1679515418502202,-0.4625175611055841
1.2013215859030837,-0.5928302833394758
1.2346916299559472,-0.6136077617232669
1.2680616740088106,-0.5234031065734732
1.3014317180616741,-0.3570340928293953
1.3348017621145374,-0.16586552166607466
1.3681718061674009,0.006165869168563853
1.4015418502202643,0.1392016648177434
1.4349118942731278,0.24016528298411383
1.4682819383259913,0.3324915281679935
1.5016519823788548,0.4397161581940742
1.535022026431718,0.5712127716247701
1.5683920704845815,0.7157360981428874
1.601762114537445,0.8441337493666267
1.6351321585903085,0.919073866783234
1.668502202643172,0.9079463501842046
1.7018722466960352,0.7948758773955377
1.7352422907488987,0.5882820140452083
1.7686123348017622,0.32137317798679993
1.8019823788546256,0.044645316928717
1.8353524229074891,-0.18799924614350796
1.8687224669603526,-0.33519376381512017
1.9020925110132159,-0.380357842933827
1.9354625550660793,-0.3355283040069439
1.9688325991189428,-0.23540258819186952
2.002202643171806,-0.12434736438882923
2.0355726872246698,-0.04190897657991768
2.068942731277533,-0.0124626667927516
2.1023127753303967,-0.04212695563375041
2.13568281938326,-0.12229395072186162
2.1690528634361232,-0.23605373997500542
2.202422907488987,-0.36313001745613255
2.23579295154185,-0.48118093311581916
2.269162995594714,-0.5651092681296036
2.302533039647577,-0.5886516617374319
2.3359030837004404,-0.5316058969181472
2.369273127753304,-0.3915603281583651
2.4026431718061674,-0.19375470876149342
2.436013215859031,0.009205331121148446
2.4693832599118943,0.15226810925550804
2.5027533039647576,0.18386169267126226
2.5361233480176213,0.09142606961173812
2.5694933920704845,-0.0870930199818394
2.6028634361233483,-0.27388247941633975
2.6362334801762115,-0.38123033629850117
2.6696035242290748,-0.3477709852419026
2.7029735682819385,-0.1642538706486638
2.7363436123348017,0.12293366067496128
2.7697136563876654,0.4314409152531749
2.8030837004405287,0.67600024830662
2.8364537444933924,0.7996577663610089
2.8698237885462556,0.7901883725871054
2.903193832599119,0.6766700477967741
2.9365638766519826,0.5105927084537939
2.969933920704846,0.342094087198789
3.0033039647577096,0.20237349138766378
3.036674008810573,0.09860115186865188
3.070044052863436,0.02077913316608138
3.1034140969162998,-0.045362278505895574
3.136784140969163,-0.10699817807930599
3.1701541850220267,-0.15982147922955414
3.20352422907489,-0.1918415013153815
3.2368942731277532,-0.19239547240097313
3.270264317180617,-0.16102669167332545
3.30363436123348,-0.11113454898167784
3.337004405286344,-0.06595857183037751
3.370374449339207,-0.048367633398906595
3.4037444933920704,-0.06933042790869007
3.437114537444934,-0.12113619063514065
3.4704845814977974,-0.17958217289878844
3.503854625550661,-0.21507359755796726
3.5372246696035243,-0.2078794480781267
3.5705947136563876,-0.16009053616228072
3.6039647577092513,-0.09772108717206007
3.6373348017621145,-0.06070226343567567
3.6707048458149782,-0.08432239848859623
3.7040748898678415,-0.18023237895686287
3.737444933920705,-0.3261536508350503
3.7708149779735685,-0.4701388315912598
3.8041850220264317,-0.5489065158006908
3.8375550660792954,-0.5132375123150752
3.8709251101321587,-0.34975369246363014
3.9042951541850224,-0.0893921525333648
3.9376651982378856,0.20180344106315132
3.971035242290749,0.4465643043855259
4.004405286343612,0.5855848574772324
4.037775330396476,0.6000466337268493
4.0711453744493395,0.5178997988625375
4.104515418502203,0.4009030039577267
4.137885462555066,0.31750862899126153
4.171255506607929,0.31282187552366497
4.2046255506607935,0.38837276466099546
4.237995594713657,0.5005759999725952
4.27136563876652,0.5789899632081387
4.304735682819383,0.5569501199651016
4.3381057268722465,0.40149610552754406
4.371475770925111,0.12945255054678198
4.404845814977974,-0.19754908021522574
4.438215859030837,-0.49690451206024777
4.4715859030837,-0.6970583859878249
4.504955947136564,-0.7636560395788156
4.538325991189428,-0.7089827701609415
4.571696035242291,-0.5818226871108543
4.605066079295154,-0.4435859055983028
4.638436123348018,-0.3420361720481637
4.671806167400881,-0.2940606245797259
4.705176211453745,-0.2840015157033365
4.738546255506608,-0.2765729353502569
4.7719162995594715,-0.23682894943675828
4.805286343612335,-0.14709113175981486
4.838656387665198,-0.013269261539241132
4.872026431718062,0.14093071549331632
4.905396475770925,0.28718806226209276
4.938766519823789,0.40526491449921453
4.972136563876652,0.48862464998102434
5.005506607929515,0.5409937139933633
5.038876651982379,0.567163964872493
5.072246696035243,0.5644779708297348
5.105616740088106,0.5209018916211687
5.138986784140969,0.42169688944079714
5.172356828193832,0.26148156696924696
5.2057268722466965,0.05475476902819208
5.23909691629956,-0.1620526087683765
5.272466960352423,-0.3398824492368724
5.305837004405286,-0.43452870416693606
5.3392070484581495,-0.42440892065978625
5.372577092511014,-0.32014361325948404
5.405947136563877,-0.16130255135303706
5.43931718061674,-0.0017690261747410941
5.4726872246696034,0.10976890094847554
5.506057268722468,0.1460699667361414
5.539427312775331,0.10835932320636327
5.572797356828194,0.022508593761049696
5.606167400881057,-0.07295980535922802
5.639537444933921,-0.14192586182009664
5.672907488986785,-0.16346018154702363
5.706277533039648,-0.13843843293165456
5.739647577092511,-0.08819594616540653
5.7730176211453745,-0.04570871192396858
5.806387665198238,-0.041996016061695424
5.839757709251102,-0.09227736967252877
5.873127753303965,-0.18719312216613
5.9064977973568284,-0.29331014345824125
5.939867841409692,-0.36395030775251824
5.973237885462555,-0.35701782123743814
6.006607929515419,-0.25291059089551304
6.039977973568282,-0.06478503607171857
6.073348017621146,0.16381813988383037
6.106718061674009,0.3737533632404774
6.140088105726872,0.5118628679416446
6.173458149779736,0.5506825591559094
6.2068281938325995,0.49805090158419246
6.240198237885463,0.39240775941181255
6.273568281938326,0.2855976251922181
6.306938325991189,0.22053884142293553
6.3403083700440535,0.21351982261581087
6.373678414096917,0.2487159595885323
6.40704845814978,0.28671783255428396
6.440418502202643,0.2824191483067522
6.4737885462555065,0.20384873656076613
6.507158590308371,0.04410315466848746
6.540528634361234,-0.17736296150248115
6.573898678414097,-0.4227222383725647
6.60726872246696,-0.6481805012659504
6.640638766519824,-0.8154243528844282
6.674008810572688,-0.8987402368286086
6.707378854625551,-0.887308635582929
6.740748898678414,-0.7841836319682172
6.774118942731278,-0.6038612564048899
6.807488986784141,-0.3695826628612818
6.840859030837005,-0.11059263204638228
6.874229074889868,0.1409065071032274
6.9075991189427315,0.353413364095966
6.940969162995595,0.5005297161965934
6.974339207048458,0.5658356942974134
7.007709251101322,0.5472881132483084
7.041079295154185,0.45954385785434865
7.074449339207049,0.33261545571070866
7.107819383259912,0.20625711618441903
7.141189427312775,0.12101915192108526
7.174559471365639,0.10808247614576526
7.207929515418503,0.1802443329717083
7.241299559471366,0.3260664036837862
7.274669603524229,0.5088838305508929
7.308039647577092,0.6722200491972394
7.3414096916299565,0.7524207513389198
7.37477973568282,0.6972046622934162
7.408149779735683,0.48556422901807605
7.441519823788546,0.14165027772559355
7.47488986784141,-0.2648825628216448
7.508259911894274,-0.6358144554166472
7.541629955947137,-0.875364536397664
7.575,-0.9247995322270559
7.608370044052863,-0.7864891280461542
7.641740088105728,-0.5257658818041944
7.675110132158591,-0.24745218404153504
7.708480176211454,-0.05503528500296405
7.741850220264317,-0.009086447182841743
7.775220264317181,-0.10316352994664203
7.808590308370045,-0.26859384146314524
7.841960352422908,-0.4067781313061102
7.875330396475771,-0.43479841143519843
7.9087004405286345,-0.3234693364380227
7.942070484581498,-0.11008544211977174
7.975440528634362,0.12020465334438618
8.008810572687224,0.27564550533867227
8.042180616740088,0.3020866051364258
8.075550660792953,0.2088502135541379
8.108920704845815,0.06359497295554577
8.142290748898679,-0.041461265814445016
8.175660792951541,-0.03544128952778854
8.209030837004406,0.09583649058648806
8.24240088105727,0.302508318423386
8.275770925110132,0.4946551875330528
8.309140969162996,0.5851851863573444
8.342511013215859,0.5300577688482266
8.375881057268723,0.3466165830217683
8.409251101321587,0.10287112158071089
8.44262114537445,-0.11465426778938334
8.475991189427313,-0.23748689470973966
8.509361233480176,-0.2394522560891631
8.54273127753304,-0.14026509517964503
8.576101321585904,0.009041984552461727
8.609471365638766,0.14902031221758846
8.64284140969163,0.23221126729901012
8.676211453744493,0.23448651301582946
8.709581497797357,0.15667212335171699
8.742951541850221,0.01980981466145294
8.776321585903084,-0.1420679383572557
8.809691629955948,-0.2897486916032396
8.84306167400881,-0.3873715403274908
8.876431718061674,-0.41189219702422375
8.909801762114538,-0.36167252000548467
8.9431718061674,-0.2600882420173663
8.976541850220265,-0.14996994004531555
9.009911894273127,-0.07809887517141868
9.043281938325991,-0.07463963842684587
9.076651982378856,-0.13692018351737928
9.110022026431718,-0.2268574136926349
9.143392070484582,-0.28549747207515774
9.176762114537445,-0.2592157936086304
9.210132158590309,-0.12520402278872222
9.243502202643173,0.09661228874053697
9.276872246696035,0.3513691295158352
9.3102422907489,0.5726280977211853
9.343612334801762,0.7091729777866039
9.376982378854626,0.7419604172017282
9.41035242290749,0.6841428452748122
9.443722466960352,0.5667975796640583
9.477092511013216,0.4204497103525306
9.510462555066079,0.26342868094042754
9.543832599118943,0.1023945106950124
9.577202643171807,-0.05806367693756456
9.61057268722467,-0.20558425659173454
9.643942731277534,-0.31833713385084145
9.677312775330396,-0.3738509473990129
9.71068281938326,-0.363182573459079
9.744052863436124,-0.30098794308319965
9.777422907488987,-0.22377783036361676
9.81079295154185,-0.17537468178884003
9.844162995594713,-0.18633430398991
9.877533039647577,-0.25822087392709664
9.910903083700441,-0.3615697873688758
9.944273127753304,-0.44918262188263536
9.977643171806168,-0.4781267701415388
10.01101321585903,-0.429181965791666
10.044383259911895,-0.3141211671412853
10.077753303964759,-0.1681009317034618
10.111123348017621,-0.032454432414276695
10.144493392070485,0.062355663255795044
10.177863436123348,0.10531481586995789
10.211233480176212,0.1026509922185404
10.244603524229076,0.06901472547112332
10.277973568281938,0.019138779195920566
10.311343612334802,-0.03499770908667936
10.344713656387665,-0.08158712791279223
10.378083700440529,-0.10539992491413387
10.411453744493393,-0.08812615892771988
10.444823788546255,-0.014248275483203147
10.47819383259912,0.1205100304849054
10.511563876651982,0.3034676671542022
10.544933920704846,0.5058729701244662
10.57830396475771,0.6902955331512545
10.611674008810573,0.8208991920298263
10.645044052863437,0.8722096100093748
10.678414096916299,0.8339753149900943
10.711784140969163,0.7123634965896141
10.745154185022027,0.5287717596048741
10.77852422907489,0.31651508760856384
10.811894273127754,0.11427666019602514
10.845264317180618,-0.04424910389448428
10.87863436123348,-0.14214359340138233
10.912004405286345,-0.18690133305426548
10.945374449339207,-0.20813823719170615
10.978744493392071,-0.2438688646136483
11.012114537444935,-0.3205990398700114
11.045484581497798,-0.4373200100676485
11.078854625550662,-0.5627927591852463
11.112224669603524,-0.6490667844523033
11.145594713656388,-0.6554413458524064
11.178964757709252,-0.5709864084720281
11.212334801762115,-0.42375437155033624
11.245704845814979,-0.2710492210674524
11.279074889867841,-0.1744624316475931
11.312444933920705,-0.17119379817031505
11.34581497797357,-0.2555414219459592
11.379185022026432,-0.38001327872446466
11.412555066079296,-0.47619949028739783
11.445925110132158,-0.4858003254415076
11.479295154185023,-0.38695415019943696
11.512665198237887,-0.20311568947554023
11.546035242290749,0.009655000510435777
11.579405286343613,0.19032192088057198
11.612775330396476,0.3013201304153498
11.64614537444934,0.34358202228752743
11.679515418502204,0.3511672307376995
11.712885462555066,0.369334050928854
11.74625550660793,0.42842378972329875
11.779625550660793,0.5275365361836335
11.812995594713657,0.6358926061912304
11.846365638766521,0.7096912004433351
11.879735682819383,0.7141747677765022
11.913105726872248,0.6390049089696013
11.94647577092511,0.5002180062259209
11.979845814977974,0.33010595385854363
12.013215859030838,0.1622626433663705
12.0465859030837,0.019778275320656104
12.079955947136565,-0.08916676714427617
12.113325991189427,-0.16898111221296613
12.146696035242291,-0.23110947044712193
12.180066079295155,-0.28836073614616875
12.213436123348018,-0.35012705530157573
12.246806167400882,-0.41816298062124013
12.280176211453744,-0.48327342510396
12.313546255506608,-0.5249729356148656
12.346916299559473,-0.5166888427662754
12.380286343612335,-0.43694678536325493
12.413656387665199,-0.28292736453119277
12.447026431718061,-0.07941524015612735
12.480396475770926,0.12372289318672287
12.51376651982379,0.26774893796658544
12.547136563876652,0.30976816298426685
12.580506607929516,0.24461759052631052
12.613876651982379,0.11178367286049339
12.647246696035243,-0.01875016113315745
12.680616740088107,-0.07733086433634252
12.71398678414097,-0.028228998525900204
12.747356828193833,0.1108888693544957
12.780726872246696,0.27456234644081007
12.81409691629956,0.37886948819316857
12.847466960352424,0.360875241836013
12.880837004405286,0.20907512503362183
12.91420704845815,-0.029910978776573092
12.947577092511013,-0.271280803460399
12.980947136563877,-0.4286413046894754
13.014317180616741,-0.4500312465418332
13.047687224669604,-0.33765499275583105
13.081057268722468,-0.14412566092826576
13.11442731277533,0.05130434956429824
13.147797356828194,0.17520608865682347
13.181167400881058,0.1876106328133324
13.21453744493392,0.09466063618446276
13.247907488986785,-0.05718451609996649
13.281277533039647,-0.2017965194081565
13.314647577092511,-0.28032246658201804
13.348017621145376,-0.2642305342250231
13.381387665198238,-0.16600046156345566
13.414757709251102,-0.03341539476974295
13.448127753303964,0.07067424301547512
13.481497797356829,0.09550703031901797
13.514867841409693,0.025452515485309867
13.548237885462555,-0.11128393891506197
13.58160792951542,-0.25297176455300197
13.614977973568282,-0.32996906458696385
13.648348017621146,-0.29458482556950516
13.68171806167401,-0.1417917087013506
13.715088105726872,0.08841232462229653
13.748458149779736,0.3275518382892634
13.781828193832599,0.5061780114635868
13.815198237885463,0.5802296625021557
13.848568281938327,0.5458079940825358
13.88193832599119,0.43768023437751347
13.915308370044054,0.3134960478723925
13.948678414096916,0.2305929374383217
13.98204845814978,0.22413577038559943
14.015418502202644,0.2941821919180206
14.048788546255507,0.40582460801268333
14.08215859030837,0.5019959217236906
14.115528634361233,0.5242524608627266
14.148898678414097,0.43421125617630946
14.182268722466961,0.2281784981090455
14.215638766519824,-0.06009538220471845
14.249008810572688,-0.3694763632303376
14.28237885462555,-0.6308168903129232
14.315748898678414,-0.7888626472051071
14.349118942731279,-0.8189921139574602
14.382488986784141,-0.7329369871218612
14.415859030837005,-0.5717861162129131
14.449229074889868,-0.38957230118099107
14.482599118942732,-0.23447046784909098
14.515969162995596,-0.135220512179763
14.549339207048458,-0.09734077625696047
14.582709251101322,-0.10855051050657777
14.616079295154185,-0.14848711199109632
14.649449339207049,-0.19680766917795003
14.682819383259913,-0.23646987443150239
14.716189427312775,-0.2532451446592404
14.74955947136564,-0.23515576940103167
14.782929515418502,-0.1747000680540728
14.816299559471366,-0.07331703281189242
14.84966960352423,0.055536180788250344
14.883039647577093,0.1884203772185911
14.916409691629957,0.2996501460864501
14.94977973568282,0.37125867300251614
14.983149779735683,0.3998111358986901
15.016519823788547,0.39635815351503173
15.04988986784141,0.3798667537727503
15.083259911894274,0.36806023274652283
15.116629955947138,0.37042600268871956
15.15,0.3860114206174329
15.183370044052865,0.40540133715693466
15.216740088105727,0.41436883791084783
15.250110132158591,0.3971920900438638
15.283480176211455,0.33954347480587477
15.316850220264318,0.23208434246958848
15.350220264317182,0.07511044290644747
15.383590308370044,-0.11757112411266028
15.416960352422908,-0.3187906950649701
15.450330396475772,-0.4943807004764453
15.483700440528635,-0.6144914490419852
15.517070484581499,-0.664868755163513
15.550440528634361,-0.6518054205410495
15.583810572687225,-0.596983495424626
15.61718061674009,-0.5237421405524443
15.650550660792952,-0.4415558810712227
15.683920704845816,-0.3375937518783248
15.717290748898678,-0.18164140383900232
15.750660792951543,0.055668669654260095
15.784030837004407,0.37859164773934745
15.817400881057269,0.7479058308468867
15.850770925110133,1.0799375080695162
15.884140969162996,1.2682621755505281
15.91751101321586,1.2232099338490756
15.950881057268724,0.914273265001681
15.984251101321586,0.39575167550107376
16.01762114537445,-0.19977886226419111
16.050991189427315,-0.7026046679095905
16.084361233480177,-0.9676621880559584
16.11773127753304,-0.9314382021571868
16.151101321585905,-0.6383484677636287
16.184471365638768,-0.2233775537529013
16.21784140969163,0.14282482025813104
16.251211453744492,0.32305612781572407
16.284581497797358,0.2669573181209785
16.31795154185022,0.025925281063504935
16.351321585903083,-0.2757162673762463
16.38469162995595,-0.4989928920166442
16.41806167400881,-0.5512619646017692
16.451431718061674,-0.42330732478269156
16.48480176211454,-0.18795390488990302
16.518171806167402,0.036754747992517156
16.551541850220264,0.14177890357194176
16.584911894273127,0.07459236169467269
16.618281938325993,-0.13956263294605667
16.651651982378855,-0.40995618024865826
16.685022026431717,-0.6192747305101183
16.718392070484583,-0.6719571133666344
16.751762114537446,-0.5320532402785402
16.785132158590308,-0.23593446994804032
16.818502202643174,0.1241718656200903
16.851872246696036,0.4381038440161981
16.8852422907489,0.6210896574996162
16.91861233480176,0.6447195178356228
16.951982378854627,0.5434190611149228
16.98535242290749,0.39489919901005316
17.01872246696035,0.2841474066820629
17.052092511013218,0.26719772576583184
17.08546255506608,0.3502080097010677
17.118832599118942,0.49176362463025675
17.152202643171808,0.625586076487289
17.18557268722467,0.6920835832499092
17.218942731277533,0.664265576078516
17.2523127753304,0.5571889974235564
17.28568281938326,0.4180160143183483
