Time (s),Filtered Signal
0.0,-0.025165484453121785
0.03337004405286344,-0.45514455154157935
0.06674008810572687,-0.8423094084222414
0.10011013215859031,-1.1471727692550393
0.13348017621145375,-1.3371184793191733
0.16685022026431717,-1.3917774584605316
0.20022026431718062,-1.3089551132037436
0.23359030837004408,-1.1088751042704357
0.2669603524229075,-0.8337966395375994
0.3003303964757709,-0.5407677489814292
0.33370044052863435,-0.28769070878221636
0.3670704845814978,-0.11629805214885876
0.40044052863436125,-0.03837872512916481
0.43381057268722467,-0.03176490433125142
0.46718061674008815,-0.04933128579032889
0.5005506607929515,-0.038602066350452324
0.533920704845815,0.03578788086370529
0.5672907488986785,0.1765749332046562
0.6006607929515418,0.3523602738809992
0.6340308370044053,0.5108117068552427
0.6674008810572687,0.60047189869414
0.7007709251101322,0.5913230287230503
0.7341409691629956,0.4853541644224734
0.767511013215859,0.3135548424508634
0.8008810572687225,0.1222394120307968
0.834251101321586,-0.04390053380004348
0.8676211453744493,-0.15425265826243384
0.9009911894273128,-0.19613195206499015
0.9343612334801763,-0.1712119707705834
0.9677312775330397,-0.08942927172958713
1.001101321585903,0.0348273204366058
1.0344713656387665,0.1828467881293001
1.06784140969163,0.33060761969604885
1.1012114537444935,0.4506225645521786
1.134581497797357,0.5183221952015884
1.1679515418502202,0.5205918930525143
1.2013215859030837,0.4613879324143744
1.2346916299559472,0.3602927382830772
1.2680616740088106,0.2439586087626489
1.3014317180616741,0.13483018698447824
1.3348017621145374,0.04324338154651026
1.3681718061674009,-0.03317820225599359
1.4015418502202643,-0.10342657952790059
1.4349118942731278,-0.1747433662944016
1.4682819383259913,-0.24722535742495033
1.5016519823788548,-0.3142414222115894
1.535022026431718,-0.36767119792525316
1.5683920704845815,-0.4040862628600738
1.601762114537445,-0.4275767885158886
1.6351321585903085,-0.4470422549922939
1.668502202643172,-0.4691895772822129
1.7018722466960352,-0.49136893969510154
1.7352422907488987,-0.4990998720635612
1.7686123348017622,-0.4710821218687664
1.8019823788546256,-0.39046497378572625
1.8353524229074891,-0.25716134991429274
1.8687224669603526,-0.09428303350830412
1.9020925110132159,0.056356376446754376
1.9354625550660793,0.14972361696361566
1.9688325991189428,0.15814552601962475
2.002202643171806,0.0872746021341544
2.0355726872246698,-0.0215043584830149
2.068942731277533,-0.10540866978975409
2.1023127753303967,-0.10616269288511355
2.13568281938326,0.00424613052994279
2.1690528634361232,0.21043137358675956
2.202422907488987,0.45956958827760375
2.23579295154185,0.6832780953254214
2.269162995594714,0.824350305475667
2.302533039647577,0.8556518697305572
2.3359030837004404,0.7837295798751728
2.369273127753304,0.6383483155083308
2.4026431718061674,0.4560036286936726
2.436013215859031,0.2667863469056273
2.4693832599118943,0.08981847092012758
2.5027533039647576,-0.06382654744723314
2.5361233480176213,-0.18603589321942082
2.5694933920704845,-0.26954397865268703
2.6028634361233483,-0.3102299586059863
2.6362334801762115,-0.3111542323351287
2.6696035242290748,-0.2841498736632406
2.7029735682819385,-0.24668970747814886
2.7363436123348017,-0.2153894315523831
2.7697136563876654,-0.2001157935346176
2.8030837004405287,-0.20237990786328547
2.8364537444933924,-0.2187337446752124
2.8698237885462556,-0.2463243488718067
2.903193832599119,-0.28611229044696723
2.9365638766519826,-0.340813400163326
2.969933920704846,-0.4084972739101812
3.0033039647577096,-0.47639030029494583
3.036674008810573,-0.5201799009306761
3.070044052863436,-0.511206898016058
3.1034140969162998,-0.42904512100730435
3.136784140969163,-0.273185729150881
3.1701541850220267,-0.06729184829026419
3.20352422907489,0.14703222373437957
3.2368942731277532,0.32481816061252133
3.270264317180617,0.4344250908773502
3.30363436123348,0.46908167984698335
3.337004405286344,0.4483169012251126
3.370374449339207,0.40873746156109103
3.4037444933920704,0.3881627859817264
3.437114537444934,0.4098552502195684
3.4704845814977974,0.4733138026772005
3.503854625550661,0.5550232959503619
3.5372246696035243,0.6181997383168863
3.5705947136563876,0.6270084486718733
3.6039647577092513,0.5594193793728529
3.6373348017621145,0.4140020940261459
3.6707048458149782,0.20871760022247848
3.7040748898678415,-0.02702567263603742
3.737444933920705,-0.26314550958216787
3.7708149779735685,-0.4774127336578149
3.8041850220264317,-0.6577028112929476
3.8375550660792954,-0.797286658077653
3.8709251101321587,-0.8868186724433763
3.9042951541850224,-0.9094704997401539
3.9376651982378856,-0.8445332575210008
3.971035242290749,-0.6795928245602912
4.004405286343612,-0.42491756178459583
4.037775330396476,-0.12039794050473819
4.0711453744493395,0.1718397736814437
4.104515418502203,0.38817013325375355
4.137885462555066,0.4883242286325344
4.171255506607929,0.4717623496821249
4.2046255506607935,0.3767822825726808
4.237995594713657,0.26243528252805703
4.27136563876652,0.18211682746501953
4.304735682819383,0.16163414654566396
4.3381057268722465,0.1918028779797015
4.371475770925111,0.23802936763805974
4.404845814977974,0.2610189672945069
4.438215859030837,0.23777566949439083
4.4715859030837,0.17250692931070027
4.504955947136564,0.09239019708180364
4.538325991189428,0.03080598051163498
4.571696035242291,0.007092119954267485
4.605066079295154,0.014014430552641639
4.638436123348018,0.02057221651186005
4.671806167400881,-0.010267141459090547
4.705176211453745,-0.09790694219093167
4.738546255506608,-0.22787541282103962
4.7719162995594715,-0.35338371398616053
4.805286343612335,-0.41578876459445974
4.838656387665198,-0.37434136920779104
4.872026431718062,-0.2296243085677363
4.905396475770925,-0.027584579359979815
4.938766519823789,0.15904763915280348
4.972136563876652,0.2632350254618273
5.005506607929515,0.2538456844780905
5.038876651982379,0.14850444951196518
5.072246696035243,0.0029270765668983744
5.105616740088106,-0.11738564494059064
5.138986784140969,-0.16842383770679087
5.172356828193832,-0.14621919058059188
5.2057268722466965,-0.08409246791631635
5.23909691629956,-0.03133871218234596
5.272466960352423,-0.025491420681368962
5.305837004405286,-0.07285112259285821
5.3392070484581495,-0.14663708503356512
5.372577092511014,-0.20230509913698383
5.405947136563877,-0.2008825886153262
5.43931718061674,-0.1280519729057266
5.4726872246696034,-9.641453020667957e-05
5.506057268722468,0.14483285597909887
5.539427312775331,0.26447013770478217
5.572797356828194,0.32993408745679026
5.606167400881057,0.3349688437516368
5.639537444933921,0.2939472914037286
5.672907488986785,0.23154632889445065
5.706277533039648,0.17062152059579574
5.739647577092511,0.12443108082116407
5.7730176211453745,0.09566387339519276
5.806387665198238,0.08035552011520938
5.839757709251102,0.07256744998038794
5.873127753303965,0.06671795583784237
5.9064977973568284,0.057334834557606636
5.939867841409692,0.03822784802967712
5.973237885462555,0.0030783028144102903
6.006607929515419,-0.052306978141495784
6.039977973568282,-0.12752424092231718
6.073348017621146,-0.21656250324376086
6.106718061674009,-0.30877628824084774
6.140088105726872,-0.3910134029859061
6.173458149779736,-0.44963367902793955
6.2068281938325995,-0.47178775028978975
6.240198237885463,-0.44633420906947274
6.273568281938326,-0.36533455969494466
6.306938325991189,-0.22679279385386572
6.3403083700440535,-0.038318027833845976
6.373678414096917,0.17987399368043236
6.40704845814978,0.39505852598422464
6.440418502202643,0.5672694308736088
6.4737885462555065,0.6597720668534943
6.507158590308371,0.6516839630856419
6.540528634361234,0.547297329050289
6.573898678414097,0.37688097250533703
6.60726872246696,0.18713475218702028
6.640638766519824,0.02453422299968585
6.674008810572688,-0.08126871595889547
6.707378854625551,-0.1264156169508268
6.740748898678414,-0.13019365439517014
6.774118942731278,-0.12257193408162875
6.807488986784141,-0.1286041435897394
6.840859030837005,-0.15763804970206186
6.874229074889868,-0.20220172494764732
6.9075991189427315,-0.24583797359828194
6.940969162995595,-0.27431415622834454
6.974339207048458,-0.2833317353742768
7.007709251101322,-0.27870403770203256
7.041079295154185,-0.27002738977563917
7.074449339207049,-0.262877636775628
7.107819383259912,-0.25502087427640885
7.141189427312775,-0.23893125759160447
7.174559471365639,-0.2083856336796856
7.207929515418503,-0.16416906198232864
7.241299559471366,-0.11472595169724147
7.274669603524229,-0.07118007013813402
7.308039647577092,-0.03994476607076305
7.3414096916299565,-0.01764638233679772
7.37477973568282,0.008461966151034176
7.408149779735683,0.05472613714100836
7.441519823788546,0.13296749308968203
7.47488986784141,0.2439329448200437
7.508259911894274,0.37510589108862175
7.541629955947137,0.5035542653109
7.575,0.6026114748888405
7.608370044052863,0.6500824902901821
7.641740088105728,0.6352649477541498
7.675110132158591,0.5622916545089155
7.708480176211454,0.44835505757606015
7.741850220264317,0.3173219375723773
7.775220264317181,0.19136571118693116
7.808590308370045,0.08425009257639177
7.841960352422908,-0.0009953069656467195
7.875330396475771,-0.06956282425621299
7.9087004405286345,-0.12936762156122814
7.942070484581498,-0.18549999751441829
7.975440528634362,-0.23716855717833704
8.008810572687224,-0.2782899613117936
8.042180616740088,-0.30125495947200703
8.075550660792953,-0.30211595901503574
8.108920704845815,-0.2848163988229488
8.142290748898679,-0.2622389570306529
8.175660792951541,-0.25281858635400284
8.209030837004406,-0.27316468659779725
8.24240088105727,-0.3291653047809818
8.275770925110132,-0.4095466039047019
8.309140969162996,-0.485799476453228
8.342511013215859,-0.5202561360789273
8.375881057268723,-0.48050230982338743
8.409251101321587,-0.3548383203698566
8.44262114537445,-0.16194256457932932
8.475991189427313,0.05070940446663341
8.509361233480176,0.22097851367239152
8.54273127753304,0.2946480206032437
8.576101321585904,0.24794245803557002
8.609471365638766,0.10025260719168992
8.64284140969163,-0.08955407533995872
8.676211453744493,-0.24327577980587997
8.709581497797357,-0.2926666166655244
8.742951541850221,-0.20591909122995708
8.776321585903084,7.875072662125428e-05
8.809691629955948,0.26722924517234087
8.84306167400881,0.5201818002960761
8.876431718061674,0.6959349028554007
8.909801762114538,0.7657612392789087
8.9431718061674,0.7401453259057842
8.976541850220265,0.6560122528722628
9.009911894273127,0.554212141290064
9.043281938325991,0.45942545521690004
9.076651982378856,0.3723280505980829
9.110022026431718,0.27660463918826894
9.143392070484582,0.155361189899591
9.176762114537445,0.006890231201594343
9.210132158590309,-0.14927921182380346
9.243502202643173,-0.27940358403738014
9.276872246696035,-0.3517336027983538
9.3102422907489,-0.35312699201884745
9.343612334801762,-0.29723553923249113
9.376982378854626,-0.22002927536996672
9.41035242290749,-0.1649182050473225
9.443722466960352,-0.16459139031384884
9.477092511013216,-0.2276652038163084
9.510462555066079,-0.3354466868055179
9.543832599118943,-0.44953846072474896
9.577202643171807,-0.5268887961604304
9.61057268722467,-0.5365048875297499
9.643942731277534,-0.47160515829353095
9.677312775330396,-0.35233730555819204
9.71068281938326,-0.2172749726850127
9.744052863436124,-0.10633009637349529
9.777422907488987,-0.042030712380010396
9.81079295154185,-0.017986230308027446
9.844162995594713,-0.001012750088624021
9.877533039647577,0.052770263177606185
9.910903083700441,0.17464086227845985
9.944273127753304,0.3637406244157924
9.977643171806168,0.5811969199386239
10.01101321585903,0.7618153738229954
10.044383259911895,0.8391840910582061
10.077753303964759,0.773604118409787
10.111123348017621,0.5704645956785753
10.144493392070485,0.2805034967665571
10.177863436123348,-0.018674757968251673
10.211233480176212,-0.25195961231519576
10.244603524229076,-0.37413518628427705
10.277973568281938,-0.3835958364719007
10.311343612334802,-0.3173390824247736
10.344713656387665,-0.23098445128450348
10.378083700440529,-0.17392665808161195
10.411453744493393,-0.17070366166672324
10.444823788546255,-0.2154050643200184
10.47819383259912,-0.27929561031375283
10.511563876651982,-0.3263178057621627
10.544933920704846,-0.32898684444790266
10.57830396475771,-0.278493847587322
10.611674008810573,-0.18615633059106113
10.645044052863437,-0.07695013786107342
10.678414096916299,0.021476927032992414
10.711784140969163,0.08969225207274782
10.745154185022027,0.12299705419828812
10.77852422907489,0.13112497436872667
10.811894273127754,0.13152509500998397
10.845264317180618,0.13955202221379118
10.87863436123348,0.16049908298512178
10.912004405286345,0.18765834098193276
10.945374449339207,0.20753897814450492
10.978744493392071,0.20944676233088835
11.012114537444935,0.19393346054551755
11.045484581497798,0.17479983379714922
11.078854625550662,0.17258143113069987
11.112224669603524,0.20227989385243628
11.145594713656388,0.26193853451752364
11.178964757709252,0.3290964984859284
11.212334801762115,0.3684582977518637
11.245704845814979,0.3480035355569074
11.279074889867841,0.2556676768477418
11.312444933920705,0.1077223861907749
11.34581497797357,-0.05621052616588757
11.379185022026432,-0.18998810308743316
11.412555066079296,-0.26207605800362227
11.445925110132158,-0.27079516824280275
11.479295154185023,-0.2454642742554226
11.512665198237887,-0.23132007364330964
11.546035242290749,-0.264223545159256
11.579405286343613,-0.3477416884129808
11.612775330396476,-0.4462061070685149
11.64614537444934,-0.5006327951532422
11.679515418502204,-0.4619705338220414
11.712885462555066,-0.32446259883747924
11.74625550660793,-0.1386628809011023
11.779625550660793,0.007304802207456844
11.812995594713657,0.03194460014240952
11.846365638766521,-0.09257772379269087
11.879735682819383,-0.3175419358326731
11.913105726872248,-0.5343116856582673
11.94647577092511,-0.6242772724411269
11.979845814977974,-0.516777043163995
12.013215859030838,-0.22448729392726333
12.0465859030837,0.16234990236602148
12.079955947136565,0.5194191842178203
12.113325991189427,0.7463427739800574
12.146696035242291,0.8092734975948748
12.180066079295155,0.7474934987466777
12.213436123348018,0.643150400728884
12.246806167400882,0.5724073406232636
12.280176211453744,0.5648586334313743
12.313546255506608,0.592130029511825
12.346916299559473,0.589957345773179
12.380286343612335,0.4999067030827893
12.413656387665199,0.30685297690814983
12.447026431718061,0.051412532395357
12.480396475770926,-0.18927991152107174
12.51376651982379,-0.3416368426455921
12.547136563876652,-0.374493044585439
12.580506607929516,-0.3155892725975762
12.613876651982379,-0.23658790805291594
12.647246696035243,-0.21430714036408724
12.680616740088107,-0.2884535388622697
12.71398678414097,-0.4381242609954745
12.747356828193833,-0.5897882200825348
12.780726872246696,-0.6532667714428152
12.81409691629956,-0.5677692529760606
12.847466960352424,-0.3348078539990106
12.880837004405286,-0.02149983843765281
12.91420704845815,0.2672662340775512
12.947577092511013,0.4339984809034016
12.980947136563877,0.42945528963423185
13.014317180616741,0.2707119137586636
13.047687224669604,0.029823236916886958
13.081057268722468,-0.19950599607823535
13.11442731277533,-0.3405666167662114
13.147797356828194,-0.36031671754729183
13.181167400881058,-0.27418635381557993
13.21453744493392,-0.13019528423211224
13.247907488986785,0.017276795069260113
13.281277533039647,0.1305764214236982
13.314647577092511,0.1988627657312358
13.348017621145376,0.2331551239166175
13.381387665198238,0.25193188226944174
13.414757709251102,0.26655219562487126
13.448127753303964,0.27421008522401835
13.481497797356829,0.2609053733515438
13.514867841409693,0.21130206257259057
13.548237885462555,0.11932715235962364
13.58160792951542,-0.0059553885354611475
13.614977973568282,-0.14137735531343584
13.648348017621146,-0.25621337409861766
13.68171806167401,-0.32094829908602274
13.715088105726872,-0.3152372726294308
13.748458149779736,-0.23348772848014124
13.781828193832599,-0.0876799556245051
13.815198237885463,0.09282758153452003
13.848568281938327,0.26532392991315695
13.88193832599119,0.38254675298599244
13.915308370044054,0.4059102599987975
13.948678414096916,0.3201082734701313
13.98204845814978,0.14329090308719863
14.015418502202644,-0.07359156644906163
14.048788546255507,-0.26149426305286505
14.08215859030837,-0.35869367269538693
14.115528634361233,-0.3367249961973161
14.148898678414097,-0.213942739271703
14.182268722466961,-0.04818080434324829
14.215638766519824,0.08974652832996496
14.249008810572688,0.1492714667184652
14.28237885462555,0.12308479350118404
14.315748898678414,0.04793321227392765
14.349118942731279,-0.0169150421674628
14.382488986784141,-0.02167990908060467
14.415859030837005,0.048487086486637486
14.449229074889868,0.16733578436659233
14.482599118942732,0.2823612147701578
14.515969162995596,0.3412929861499632
14.549339207048458,0.31580466656723905
14.582709251101322,0.21122991725125068
14.616079295154185,0.05985310414987974
14.649449339207049,-0.095915452778295
14.682819383259913,-0.220371663095055
14.716189427312775,-0.2937637570078658
14.74955947136564,-0.31259178538064614
14.782929515418502,-0.2850254291398139
14.816299559471366,-0.22672064391134214
14.84966960352423,-0.1591924698776859
14.883039647577093,-0.10849032577809417
14.916409691629957,-0.10015714295871345
14.94977973568282,-0.14915686266786785
14.983149779735683,-0.24879640674067613
15.016519823788547,-0.3663527558270056
15.04988986784141,-0.45155420392126255
15.083259911894274,-0.4572098486535641
15.116629955947138,-0.3630129612900145
15.15,-0.18931248669001777
15.183370044052865,0.009017568984691249
15.216740088105727,0.1683913076424194
15.250110132158591,0.2500688794340426
15.283480176211455,0.2630879590574199
15.316850220264318,0.2618285282514812
15.350220264317182,0.3164746034799644
15.383590308370044,0.47035301300331583
15.416960352422908,0.7073194067188698
15.450330396475772,0.9488608668636334
15.483700440528635,1.0854909106027155
15.517070484581499,1.0283852672318685
15.550440528634361,0.7554186851084057
15.583810572687225,0.3275409594463989
15.61718061674009,-0.13390049736772627
15.650550660792952,-0.4984290055001334
15.683920704845816,-0.6813493171717131
15.717290748898678,-0.6758798704528275
15.750660792951543,-0.548171537936486
15.784030837004407,-0.39976533695904404
15.817400881057269,-0.3175988731380535
15.850770925110133,-0.33609320278845045
15.884140969162996,-0.4277729664575774
15.91751101321586,-0.5235990256370052
15.950881057268724,-0.5501836676537926
15.984251101321586,-0.4650181240589135
16.01762114537445,-0.27442892538745656
16.050991189427315,-0.028827774865691165
16.084361233480177,0.19972191874098352
16.11773127753304,0.34617877760813387
16.151101321585905,0.37539776424306265
16.184471365638768,0.2913940456471272
16.21784140969163,0.13167344565518027
16.251211453744492,-0.04879411064555825
16.284581497797358,-0.19628390022296274
16.31795154185022,-0.27264830752526353
16.351321585903083,-0.2617402336301506
16.38469162995595,-0.16861530592037777
16.41806167400881,-0.014678521208662752
16.451431718061674,0.16835873257182396
16.48480176211454,0.34483219805370985
16.518171806167402,0.4822882564867906
16.551541850220264,0.5592260911403429
16.584911894273127,0.5710237792274516
16.618281938325993,0.530389363416872
16.651651982378855,0.46025635564850664
16.685022026431717,0.38119507984942436
16.718392070484583,0.29957300459045627
16.751762114537446,0.20373556547538044
16.785132158590308,0.0719485628791657
16.818502202643174,-0.1107841806253314
16.851872246696036,-0.33589091599812565
16.8852422907489,-0.564748726433423
16.91861233480176,-0.7384378882766837
16.951982378854627,-0.8011682209307093
16.98535242290749,-0.7268403293840093
17.01872246696035,-0.5352303913875678
17.052092511013218,-0.28833779798395465
17.08546255506608,-0.06683351136823555
17.118832599118942,0.0633606798280131
17.152202643171808,0.07881396962717556
17.18557268722467,0.007241666346886228
17.218942731277533,-0.0873423138676748
17.2523127753304,-0.13592411563393778
