Frequency (Hz),Amplitude
0.0,0.400264625590525
0.04,0.41389783930503615
0.08,0.4522905504667838
0.12,0.5097519079741554
0.16,0.5804609491785635
0.19999999999999998,0.6599450183560734
0.24,0.7451422534299535
0.27999999999999997,0.834022167567785
0.32,0.9252262751795857
0.36,1.0178203485174004
0.39999999999999997,1.1111388208082897
0.44,1.2046892764148331
0.48,1.2980935367420552
0.52,1.3910507207342515
0.5599999999999999,1.4833136002882106
0.6,1.5746731346726932
0.64,1.6649481396885335
0.6799999999999999,1.7539782494845304
0.72,1.8416190343093217
0.76,1.927738558301891
0.7999999999999999,2.0122149172916144
0.84,2.094934455224882
0.88,2.1757904581177328
0.9199999999999999,2.254682189014767
0.96,2.331514169767063
1.0,2.406195643658832
1.04,2.47864017201939
1.0799999999999998,2.5487653310874516
1.1199999999999999,2.6164924845445188
1.1600000000000001,2.6817466135932633
1.2,2.74445619107281
1.24,2.8045530894397284
1.28,2.8619725148820736
1.3199999999999998,2.9166529616341696
1.3599999999999999,2.9685361819019622
1.4,3.017567167818638
1.44,3.0636941426165563
1.48,3.1068685587883906
1.52,3.1470451014631236
1.5599999999999998,3.184181695574717
1.5999999999999999,3.2182395156776304
1.64,3.249182997481428
1.68,3.2769798503507834
1.72,3.3016010701567677
1.76,3.323020951978588
1.7999999999999998,3.341217102247642
1.8399999999999999,3.3561704500024017
1.88,3.367865256987021
1.92,3.37628912638106
1.9599999999999997,3.3814330099951078
2.0,3.3832912138087647
2.0399999999999996,3.38186140176505
2.08,3.3771445977702856
2.12,3.369145185881815
2.1599999999999997,3.357870908698735
2.2,3.343332864004174
2.2399999999999998,3.3255454997426224
2.28,3.304526607453525
2.3200000000000003,3.2802973143241485
2.36,3.252882074072122
2.4,3.2223086569228476
2.44,3.18860813901141
2.48,3.1518148916156212
2.5199999999999996,3.1119665707197486
2.56,3.06910410752216
2.6,3.023271700640263
2.6399999999999997,2.974516810940643
2.68,2.92289016014135
2.7199999999999998,2.868445734610514
2.76,2.8112407961390318
2.8,2.75133590191969
2.84,2.6887949365540296
2.88,2.6236851596779704
2.92,2.5560772738111734
2.96,2.486045518383113
2.9999999999999996,2.413667797697113
3.04,2.3390258530434185
3.08,2.262205492525084
3.1199999999999997,2.1832968967993223
3.16,2.1023950254292747
3.1999999999999997,2.019600157739988
3.2399999999999998,1.9350186152766087
3.28,1.8487637321822252
3.32,1.760957168205017
3.36,1.6717307016548344
3.4,1.5812287046603413
3.44,1.4896116041064162
3.4799999999999995,1.3970607915434934
3.52,1.3037857034332323
3.5599999999999996,1.2100342178595034
3.5999999999999996,1.1161082264477324
3.64,1.0223874561169286
3.6799999999999997,0.9293667134806727
3.7199999999999998,0.8377153408341342
3.76,0.7483737173768904
3.7999999999999994,0.6627107040036608
3.84,0.5827748047199962
3.88,0.5116594087569861
3.9199999999999995,0.45388988936103164
3.96,0.4153623721297933
4.0,0.4018393005729995
4.04,0.4158419371735998
4.079999999999999,0.45480573063858604
4.12,0.5129628820147031
4.16,0.5844394056431732
4.199999999999999,0.6647356062962859
4.24,0.7507772448064705
4.28,0.840528032783239
4.319999999999999,0.9326264025118547
4.36,1.026136143578809
4.4,1.120390144737187
4.4399999999999995,1.2148946114292325
4.4799999999999995,1.3092700366964114
4.5200000000000005,1.403214212112332
4.56,1.496478561648164
4.6,1.5888526669430627
4.640000000000001,1.6801539329862503
4.68,1.7702205491362566
4.72,1.85890660738966
4.76,1.9460786613594332
4.8,2.0316132656245633
4.84,2.1153951939156896
4.88,2.197316134959411
4.92,2.2772737294217
4.96,2.3551708537416745
5.0,2.4309150848731784
5.039999999999999,2.5044182990630515
5.08,2.575596370927817
5.12,2.6443689482414023
5.159999999999999,2.710659284306155
5.2,2.774394114395816
5.24,2.8355035660959977
5.279999999999999,2.893921095806385
5.319999999999999,2.949583445469207
5.36,3.0024306149306548
5.3999999999999995,3.0524058463517236
5.4399999999999995,3.0994556178514547
5.48,3.1435296441522027
5.52,3.1845808824493984
5.56,3.222565542080518
5.6,3.257443096844127
5.64,3.2891762990382145
5.68,3.31773119446085
5.72,3.343077137755994
5.76,3.365186807600535
5.8,3.3840362213213155
5.84,3.3996047486076915
5.879999999999999,3.411875124049524
5.92,3.4208334582851276
5.96,3.4264692475911867
5.999999999999999,3.4287753817882574
6.04,3.427748150373455
6.08,3.4233872468268065
6.119999999999999,3.4156957710713307
6.16,3.404680230099869
6.2,3.3903505368152835
6.239999999999999,3.3727200071658308
6.279999999999999,3.351805355695575
6.32,3.3276266896718414
6.359999999999999,3.300207501999561
6.3999999999999995,3.2695746631876776
6.44,3.235758412697956
6.4799999999999995,3.1987923500842204
6.52,3.1587134264241663
6.56,3.1155619366607104
6.6,3.069381513611654
6.64,3.0202191245830297
6.68,2.968125071743153
6.72,2.9131529976950414
6.76,2.855359898042846
6.8,2.7948061432083557
6.84,2.731555512350394
6.88,2.6656752430197974
6.92,2.5972361012108394
6.959999999999999,2.526312477836814
7.0,2.452982519492325
7.04,2.377328303851466
7.08,2.299436073455858
7.119999999999999,2.2193965463601235
7.16,2.1373053287031594
7.199999999999999,2.0532634636322493
7.239999999999999,1.9673781644506219
7.28,1.8797637994429532
7.32,1.7905432247903523
7.359999999999999,1.6998496054895762
7.3999999999999995,1.6078289306627744
7.4399999999999995,1.5146435330491577
7.4799999999999995,1.4204770863978897
7.52,1.325541819513484
7.5600000000000005,1.2300891228548338
7.599999999999999,1.1344254588559017
7.64,1.0389367455786584
7.68,0.9441265634203125
7.719999999999999,0.850677310969755
7.76,0.7595497933561579
7.800000000000001,0.672146369929492
7.839999999999999,0.5905725380148118
7.88,0.5180197205996747
7.92,0.4591742182963031
7.959999999999999,0.42015522755453827
8.0,0.4069235147314772
8.040000000000001,0.4220097065560394
8.08,0.4626411542494336
8.12,0.5227987702592282
8.159999999999998,0.5964421996457557
8.2,0.6789887811630331
8.24,0.7673267968533504
8.28,0.8594026012276158
8.32,0.9538456177309204
8.36,1.049714091554049
8.399999999999999,1.1463368431517678
8.44,1.2432166598862326
8.48,1.3399709116207879
8.52,1.4362944026604605
8.56,1.5319356317841946
8.6,1.6266812822118761
8.639999999999999,1.7203458701899617
8.68,1.8127646979095453
8.72,1.9037889683280897
8.76,1.9932823432281814
8.8,2.0811184830918723
8.84,2.1671792666812233
8.879999999999999,2.251353488830476
8.92,2.3335358997071216
8.959999999999999,2.413626491222302
9.0,2.491529964537651
9.040000000000001,2.5671553317504845
9.079999999999998,2.6404156179861977
9.12,2.7112276392862498
9.16,2.7795118381455564
9.2,2.8451921631731065
9.24,2.908195982689263
9.280000000000001,2.9684540245136275
9.32,3.0259003359990566
9.36,3.080472259710634
9.399999999999999,3.1321104211588993
9.44,3.1807587257637584
9.48,3.226364362812776
9.52,3.2688778146306143
9.559999999999999,3.3082528695290634
9.6,3.3444466373836206
9.639999999999999,3.3774195669010205
9.68,3.4071354638163287
9.72,3.4335615093981433
9.76,3.456668278753884
9.8,3.476429758520138
9.84,3.4928233635999217
9.879999999999999,3.5058299526733427
9.92,3.515433842262999
9.959999999999999,3.5216228191831753
10.0,3.524388151243826
10.04,3.523724596118535
10.079999999999998,3.519630408321003
10.12,3.5121073442684776
10.16,3.5011606654440843
10.2,3.4867991397040936
10.24,3.4690350408120048
10.280000000000001,3.447884146320211
10.319999999999999,3.4233657339630508
10.36,3.3955025767740192
10.4,3.364320937196614
10.44,3.329850560525186
10.48,3.2921246680918603
10.52,3.2511799507123857
10.559999999999999,3.207056563021763
10.6,3.1597981194764633
10.639999999999999,3.10945169298182
10.68,3.056067817331542
10.72,2.999700494935485
10.76,2.9404072116811237
10.799999999999999,2.878248961249176
10.84,2.8132902818201493
10.879999999999999,2.745599308914508
10.92,2.675247849172251
10.96,2.60231148129251
11.0,2.526869692254235
11.04,2.449006059517108
11.08,2.3688084934355094
11.12,2.286369559015331
11.16,2.201786903009547
11.2,2.11516382209549
11.24,2.0266100218983265
11.28,1.9362426370829822
11.319999999999999,1.8441876130380659
11.36,1.7505815952861044
11.4,1.6555745425958852
11.44,1.5593333886834062
11.48,1.4620472505171398
11.52,1.3639349620256056
11.559999999999999,1.2652561767956876
11.6,1.1663280683558772
11.64,1.0675510067435006
11.68,0.9694489424160905
11.72,0.8727343314660954
11.759999999999998,0.7784144017787371
11.799999999999999,0.6879662440407404
11.84,0.6036192310952919
11.879999999999999,0.5287701656688001
11.92,0.4684243987968161
11.96,0.42910307652445884
11.999999999999998,0.4170458864493799
12.04,0.4346513365262568
12.08,0.47866576728549004
12.12,0.5426171882934637
12.16,0.6202169102384906
12.200000000000001,0.706780755529989
12.239999999999998,0.7991603802181789
12.28,0.8952885312386438
12.32,0.9937882360742782
12.36,1.0937133134684223
12.4,1.1943885265978622
12.44,1.2953125435058586
12.479999999999999,1.396098475212686
12.52,1.4964367453708907
12.559999999999999,1.5960713851377872
12.6,1.6947845541679227
12.64,1.7923862127714623
12.68,1.8887070919543492
12.719999999999999,1.9835938206992412
12.76,2.0769054933589395
12.799999999999999,2.1685112168578815
12.84,2.2582883363484534
12.88,2.346121138321169
12.92,2.431899894740884
12.959999999999999,2.515520154086847
12.999999999999998,2.5968822133647373
13.04,2.675890724244964
13.08,2.7524543995972572
13.12,2.8264857958317595
13.16,2.897901152909685
13.2,2.9666202784993407
13.239999999999998,3.0325664660881264
13.28,3.0956664392989848
13.32,3.1558503164599716
13.36,3.2130515908180364
13.4,3.267207122798407
13.44,3.3182571414781297
13.479999999999999,3.36614525302962
13.52,3.410818454343711
13.559999999999999,3.452227150394487
13.6,3.4903251741851813
13.64,3.5250698083332757
13.68,3.5564218075275496
13.719999999999999,3.5843454212301578
13.76,3.6088084161107123
13.799999999999999,3.6297820977928095
13.84,3.647241331570782
13.88,3.661164561819556
13.919999999999998,3.6715338298760836
13.959999999999999,3.678334790218828
14.0,3.6815567248147754
14.04,3.6811925555421405
14.08,3.6772388546333206
14.120000000000001,3.6696958531174713
14.16,3.6585674472769143
14.2,3.6438612031669138
14.239999999999998,3.62558835928612
14.28,3.6037638275255612
14.32,3.5784061925698096
14.36,3.5495377099756165
14.399999999999999,3.5171843032137238
14.44,3.4813755600307137
14.479999999999999,3.442144728572992
14.52,3.3995287138184045
14.56,3.353568074987505
14.6,3.304307024763031
14.64,3.2517934313414734
14.68,3.1960788245861202
14.719999999999999,3.137218407862532
14.76,3.0752710775353522
14.799999999999999,3.0102994526181686
14.84,2.9423699177340197
14.879999999999999,2.8715526834161116
14.919999999999998,2.7979218689300023
14.959999999999999,2.721555614333146
15.0,2.6425362305522957
15.04,2.5609503990641076
15.079999999999998,2.4768894366150565
15.120000000000001,2.390449645762646
15.159999999999998,2.3017327795290727
15.199999999999998,2.210846659140257
15.24,2.117905999222486
15.28,2.02303351734942
15.319999999999999,1.9263614382742005
15.36,1.8280335536578536
15.399999999999999,1.7282080756297176
15.439999999999998,1.627061643801736
15.48,1.5247950388434168
15.52,1.4216414707254843
15.559999999999999,1.3178788333286109
15.600000000000001,1.2138482052932438
15.639999999999999,1.1099824113826373
15.679999999999998,1.006851143459513
15.72,0.9052338378853655
15.76,0.8062394806624742
15.799999999999999,0.7115046067543762
15.84,0.6235123104310696
15.879999999999999,0.5460547482637991
15.919999999999998,0.48469195444126595
15.96,0.4465149152359911
16.0,0.43791773745373874
16.04,0.460710690684679
16.080000000000002,0.5107361892445906
16.12,0.5809314603214377
16.16,0.6647943612397486
16.200000000000003,0.7576010548420243
16.24,0.8562084718700603
16.279999999999998,0.9585575417400594
16.319999999999997,1.0632743399112143
16.36,1.1694111367468856
16.4,1.2762882275093186
16.439999999999998,1.3833981686516912
16.48,1.4903471008515397
16.52,1.5968180658962112
16.56,1.7025475471433795
16.6,1.8073101220435004
16.64,1.9109082029580207
16.68,2.0131650418143483
16.72,2.1139198739392033
16.759999999999998,2.213024492734835
16.799999999999997,2.3103407996962626
16.84,2.4057390310089555
16.88,2.4990964610951907
16.919999999999998,2.5902964473744143
16.96,2.679227722437248
17.0,2.7657838678220728
17.04,2.8498629225632612
17.080000000000002,2.9313670927428896
17.12,3.0102025373940897
17.16,3.0862792125492753
17.2,3.15951075983945
17.24,3.2298144293901117
17.279999999999998,3.297111029203173
17.32,3.361324895021177
17.36,3.422383876018737
17.4,3.480219332682427
17.44,3.5347661440126066
17.48,3.5859627217727272
17.52,3.633751029969193
17.56,3.6780766081012812
17.6,3.718888597000644
17.64,3.7561397663014926
17.68,3.7897865427596074
17.72,3.819789038780829
17.759999999999998,3.8461110806356578
17.799999999999997,3.8687202359318156
17.84,3.8875878399959944
17.88,3.902689020882847
17.919999999999998,3.9140027227866554
17.96,3.9215117276813154
18.0,3.9252026750591207
18.04,3.9250660796799988
18.080000000000002,3.9210963472817437
18.12,3.9132917882396683
18.159999999999997,3.901654629202166
18.2,3.886191022768165
18.24,3.866911055314749
18.279999999999998,3.8438287531296216
18.32,3.816962087055243
18.36,3.7863329759116464
18.4,3.751967289034978
18.44,3.7138948483522785
18.48,3.67214943051322
18.52,3.626768769721527
18.560000000000002,3.5777945620586196
18.6,3.5252724722778064
18.64,3.469252144279645
18.679999999999996,3.4097872167717753
18.72,3.346935345988425
18.759999999999998,3.2807582378207414
18.799999999999997,3.211321692323487
18.84,3.1386956643622668
18.88,3.0629543452134325
18.919999999999998,2.9841762713144897
18.96,2.9024444682127126
19.0,2.8178466402518216
19.04,2.730475419928129
19.080000000000002,2.6404286955113614
19.119999999999997,2.5478100420111227
19.159999999999997,2.452729289696164
19.2,2.355303277378957
19.24,2.255656856461122
19.279999999999998,2.1539242392543927
19.32,2.0502508260298797
19.36,1.9447957071461428
19.4,1.8377351318232567
19.44,1.7292673842933781
19.48,1.619619746232019
19.52,1.5090586122147895
19.560000000000002,1.3979044690213007
19.6,1.2865545391651738
19.639999999999997,1.1755177602472175
19.68,1.0654700085174507
19.72,0.9573430137868303
19.759999999999998,0.8524693892624446
19.8,0.7528182816144275
19.84,0.6613614699222954
19.88,0.5825602559335155
19.919999999999998,0.5227123464813707
19.96,0.48927597741476914
20.0,0.488032446642323
20.04,0.5193895773828723
20.08,0.5781133617452415
20.119999999999997,0.6568479566118729
20.159999999999997,0.7491751271576462
20.2,0.8504842029015377
20.24,0.9576881664463177
20.279999999999998,1.0687390861534791
20.32,1.182251216020006
20.36,1.2972557160609441
20.4,1.4130491890871868
20.44,1.529100801743787
20.48,1.6449946666881967
20.52,1.760393412415992
20.560000000000002,1.875014649871719
20.599999999999998,1.9886154394873239
20.639999999999997,2.1009818268550218
20.68,2.2119216586701462
20.72,2.3212595657280115
20.759999999999998,2.4288334057080996
20.8,2.534491707369839
20.84,2.6380918134029985
20.88,2.7394985183515836
20.92,2.8385830624007706
20.96,2.9352223843261656
21.0,3.0292985654395377
21.04,3.1206984158154567
21.08,3.20931316753305
21.119999999999997,3.295038249094331
21.159999999999997,3.3777731218720333
21.2,3.4574211642470023
21.24,3.5338895925869354
21.279999999999998,3.6070894107821343
21.32,3.6769353819547166
21.36,3.7433460173812043
21.4,3.806243578743375
21.44,3.8655540906417807
21.48,3.921207360935967
21.52,3.973137006963479
21.56,4.0212804860710465
21.599999999999998,4.065579129191737
21.639999999999997,4.105978176440633
21.68,4.14242681389303
21.72,4.174878210864301
21.759999999999998,4.203289557137501
21.8,4.22762209969026
21.84,4.247841178561245
21.88,4.263916261572444
21.92,4.275820977690214
21.96,4.2835331488675825
22.0,4.287034820265416
22.04,4.286312288802275
22.08,4.28135613003422
22.119999999999997,4.272161223417859
22.16,4.258726776064726
22.2,4.24105634515395
22.24,4.219157859235784
22.28,4.193043638732739
22.32,4.162730416031156
22.36,4.128239355657209
22.4,4.089596075151994
22.44,4.046830667406252
22.48,3.9999777253929456
22.519999999999996,3.9490763704549376
22.56,3.894170285576679
22.599999999999998,3.8353077554089414
22.639999999999997,3.772541715244372
22.68,3.7059298116861386
22.72,3.6355344784489185
22.759999999999998,3.561423031629878
22.8,3.4836677899547417
22.84,3.4023462270328637
22.88,3.3175411646742954
22.92,3.229341019011091
22.96,3.137840114779939
23.0,3.0431390880287763
23.04,2.945345404233982
23.08,2.8445740281301672
23.119999999999997,2.7409482946049164
23.16,2.63460104851208
23.2,2.5256761478158984
23.24,2.414330463110005
23.28,2.300736563533128
23.32,2.1850863643669496
23.36,2.067596141125195
23.400000000000002,1.9485135147442754
23.44,1.8281273254385333
23.479999999999997,1.7067818101237657
23.519999999999996,1.5848972985754175
23.56,1.4630009415587075
23.599999999999998,1.34177308760557
23.639999999999997,1.2221182665030315
23.68,1.10527471988956
23.72,0.9929825639463664
23.759999999999998,0.8877333651163997
23.8,0.7931044531026524
23.84,0.714085636281384
23.88,0.6570428730452048
23.92,0.6286077526138066
23.96,0.6331361245915189
23.999999999999996,0.6703006084019001
24.04,0.7353685622377606
24.08,0.8218173324044981
24.119999999999997,0.923643806623332
24.16,1.0362274208818356
24.2,1.1562710847559332
24.24,1.2814713775120175
24.28,1.4102071638673097
24.32,1.5413123346502455
24.36,1.6739236753921416
24.400000000000002,1.807381795558125
24.439999999999998,1.9411667622765065
24.479999999999997,2.0748558962062074
24.52,2.2080957006365796
24.56,2.3405828857368713
24.599999999999998,2.472051327784536
24.64,2.602262963486294
24.68,2.73100133687608
24.72,2.8580669637047005
24.759999999999998,2.9832739608733436
24.8,3.1064475696144505
24.84,3.22742231900559
24.88,3.34604065428623
24.92,3.4621519066752398
24.959999999999997,3.5756115169142895
24.999999999999996,3.686280449262534
25.04,3.7940247497844393
25.08,3.8987152148791377
25.119999999999997,4.000227144663012
25.16,4.0984401620856
25.2,4.193238083241822
25.24,4.284508827727634
25.28,4.372144360408646
25.32,4.456040657867936
25.36,4.536097694238166
25.4,4.612219442222825
25.439999999999998,4.6843138859591775
25.479999999999997,4.752293043033332
25.52,4.816072993472426
25.56,4.875573913944049
25.599999999999998,4.930720115714349
25.64,4.981440085172742
25.68,5.027666525937542
25.72,5.069336401723876
25.76,5.106390979291619
25.8,5.138775870903372
25.84,5.166441075815571
25.880000000000003,5.189341020404115
25.919999999999998,5.2074345965921225
25.959999999999997,5.220685198304469
25.999999999999996,5.229060755723649
26.04,5.232533767165863
26.08,5.231081328436523
26.119999999999997,5.2246851595620925
26.16,5.213331628831111
26.2,5.197011774112866
26.24,5.175721321458263
26.28,5.149460701025397
26.32,5.118235060413076
26.36,5.0820542755308615
26.4,5.040932959185504
26.439999999999998,4.994890467623096
26.479999999999997,4.943950905336244
26.52,4.888143128529765
26.56,4.827500747740112
26.599999999999998,4.762062130229198
26.64,4.691870402928877
26.68,4.6169734569076235
26.72,4.537423954578239
26.76,4.453279341181447
26.8,4.36460186248754
26.84,4.271458591188119
26.88,4.173921465145329
26.919999999999998,4.0720673415869495
26.959999999999997,3.965978072567672
27.0,3.855740608681006
27.04,3.7414471402785274
27.08,3.6231952885910568
27.119999999999997,3.501088363531498
27.16,3.3752357111669777
27.2,3.245753182757521
27.24,3.112763770237115
27.28,2.976398472223988
27.32,2.836797483581403
27.36,2.694111845959766
27.4,2.54850576633005
27.439999999999998,2.4001599220132497
27.479999999999997,2.249276253835582
27.52,2.096085058076634
27.56,1.9408557251834135
27.599999999999998,1.7839134385130253
27.64,1.6256659438347736
27.68,1.4666479797703607
27.72,1.3075979757662828
27.76,1.1495963564178124
27.8,0.9943267577914379
27.839999999999996,0.8445911918705162
27.88,0.7053491423983015
27.919999999999998,0.5857018349535634
27.959999999999997,0.5015352587048106
28.0,0.47371217025235984
28.04,0.512686414308281
28.08,0.6065142064535913
28.12,0.7349896821291847
28.16,0.8834282382285225
28.2,1.0434974649421322
28.240000000000002,1.2106304616490793
