Time (s),Filtered Signal
0.0,-0.006910090633628208
0.0334075723830735,-0.028305243098407484
0.066815144766147,-0.06190683925248231
0.1002227171492205,-0.1119028854235864
0.133630289532294,-0.1708735692240366
0.1670378619153675,-0.22330098050850183
0.200445434298441,-0.25400469965107647
0.23385300668151449,-0.2567150780530179
0.267260579064588,-0.23794082053317775
0.3006681514476615,-0.21395720341564242
0.334075723830735,-0.20250587500906816
0.3674832962138085,-0.21352267955078716
0.400890868596882,-0.24354618818015122
0.4342984409799555,-0.27647720342228616
0.46770601336302897,-0.29026380048056777
0.5011135857461025,-0.26641004511562083
0.534521158129176,-0.198068138768506
0.5679287305122495,-0.09322038708040922
0.601336302895323,0.028327780086248568
0.6347438752783965,0.14269716141872624
0.66815144766147,0.23090632385211995
0.7015590200445435,0.28506705524461967
0.734966592427617,0.30920562475951857
0.7683741648106905,0.31476491877350143
0.801781737193764,0.313422962128474
0.8351893095768375,0.3110223430153893
0.868596881959911,0.30555056679571024
0.9020044543429845,0.28977163932846023
0.9354120267260579,0.25661963081535605
0.9688195991091315,0.2041750750815871
1.002227171492205,0.13755244556806695
1.0356347438752784,0.06690343145731806
1.069042316258352,0.002868684386378176
1.1024498886414256,-0.04794331614548915
1.135857461024499,-0.08507219880376421
1.1692650334075725,-0.11296677225763127
1.202672605790646,-0.13727983513276323
1.2360801781737194,-0.16085806378386217
1.269487750556793,-0.18165633051437807
1.3028953229398665,-0.1936870931727754
1.33630289532294,-0.19045940807965894
1.3697104677060135,-0.16907089586464022
1.403118040089087,-0.13283211462243338
1.4365256124721606,-0.0910819787977511
1.469933184855234,-0.05620878808039158
1.5033407572383075,-0.03913114797207459
1.536748329621381,-0.04508983369365511
1.5701559020044544,-0.07139480632936987
1.603563474387528,-0.10795045815346821
1.6369710467706016,-0.14033642374852257
1.670378619153675,-0.15435755425205736
1.7037861915367485,-0.14056609977147105
1.737193763919822,-0.09735998553635686
1.7706013363028954,-0.0317455249918048
1.804008908685969,0.04247971388229641
1.8374164810690425,0.1086776863072371
1.8708240534521159,0.15239065413246428
1.9042316258351895,0.1659283205056048
1.937639198218263,0.1509318214740107
1.9710467706013366,0.11778608347536451
2.00445434298441,0.08178907456373344
2.0378619153674835,0.05730414201005014
2.071269487750557,0.052138147265251865
2.1046770601336307,0.06452162316013306
2.138084632516704,0.08410773608314209
2.1714922048997773,0.09670865222008553
2.204899777282851,0.09082449713421276
2.2383073496659245,0.06317915672528353
2.271714922048998,0.02084958374926811
2.3051224944320716,-0.02101666645542494
2.338530066815145,-0.04507087651529235
2.3719376391982183,-0.03888715050942445
2.405345211581292,-0.0004100762953863003
2.4387527839643655,0.060640469296632665
2.472160356347439,0.12620016276118626
2.5055679287305126,0.17688761856298046
2.538975501113586,0.1997181497243473
2.5723830734966593,0.19307908229378914
2.605790645879733,0.16657190296401272
2.6391982182628064,0.13559992828334125
2.67260579064588,0.11312741348953115
2.7060133630289536,0.10260833268617596
2.739420935412027,0.09576584953326275
2.7728285077951007,0.0766569905242891
2.806236080178174,0.030267193464359177
2.8396436525612474,-0.048642745540286254
2.873051224944321,-0.151152383300493
2.9064587973273945,-0.256923105768205
2.939866369710468,-0.3431164488326696
2.9732739420935417,-0.3952115867346324
3.006681514476615,-0.41418803982471525
3.0400890868596884,-0.41611520426340054
3.073496659242762,-0.4238927955430468
3.1069042316258355,-0.45488686523074606
3.140311804008909,-0.5104759133845664
3.1737193763919826,-0.5728582430215623
3.207126948775056,-0.6111136978349208
3.2405345211581293,-0.5940443322324573
3.273942093541203,-0.5039099604873005
3.3073496659242765,-0.34452884959225755
3.34075723830735,-0.13972943313634528
3.3741648106904236,0.0773037788143509
3.407572383073497,0.27877592978965926
3.4409799554565703,0.45387341288248173
3.474387527839644,0.6111470844104142
3.5077951002227175,0.7698951479091044
3.541202672605791,0.9442772572047083
3.5746102449888646,1.1280952368176416
3.608017817371938,1.2887906493929817
3.6414253897550113,1.3754187497415653
3.674832962138085,1.3385089370341132
3.7082405345211584,1.1530699711365031
3.7416481069042318,0.8332777058294762
3.7750556792873056,0.4306869036955892
3.808463251670379,0.01597240701063383
3.8418708240534527,-0.3470479692642583
3.875278396436526,-0.6221481427245791
3.9086859688195994,-0.8062935105863681
3.942093541202673,-0.9188989022259996
3.9755011135857465,-0.9826235085868922
4.00890868596882,-1.0076083427018483
4.042316258351893,-0.9878565262024677
4.075723830734967,-0.9104063516466556
4.109131403118041,-0.770231890002735
4.142538975501114,-0.5809621677953889
4.1759465478841875,-0.3747205021098703
4.209354120267261,-0.19115684657491566
4.242761692650334,-0.061845874841455754
4.276169265033408,0.0016598334576907302
4.309576837416482,0.010387128405538622
4.342984409799555,-0.009319350272637802
4.3763919821826285,-0.028386170182976483
4.409799554565702,-0.026421160777064957
4.443207126948775,0.003009006094560474
4.476614699331849,0.05437185038440416
4.510022271714923,0.11680410411184806
4.543429844097996,0.1809851438197611
4.5768374164810695,0.24265481365765565
4.610244988864143,0.3017128041636584
4.643652561247216,0.3584674243377157
4.67706013363029,0.4099357513815816
4.710467706013364,0.4486540146027953
4.743875278396437,0.4647502386169408
4.77728285077951,0.4501229351871428
4.810690423162584,0.40245183776001353
4.844097995545657,0.3269129858615078
4.877505567928731,0.2347045113203661
4.910913140311805,0.13912935568248477
4.944320712694878,0.05117021290062732
4.977728285077951,-0.023381614765614626
5.011135857461025,-0.08414652491631601
5.044543429844098,-0.1340927652657138
5.077951002227172,-0.17665348944819287
5.111358574610246,-0.21362825122950824
5.144766146993319,-0.24469009350525997
5.178173719376392,-0.2682205725706153
5.211581291759466,-0.2825079150209685
5.244988864142539,-0.2864289754380901
5.278396436525613,-0.2793882051859571
5.311804008908687,-0.26094297819162765
5.34521158129176,-0.23072345363362395
5.378619153674833,-0.18889796858725783
5.412026726057907,-0.1368970927303553
5.445434298440981,-0.0778339255309661
5.478841870824054,-0.016218454702114738
5.512249443207128,0.04302433376026412
5.545657015590201,0.09587999060009615
5.579064587973274,0.1404558030224372
5.612472160356348,0.1776815327777913
5.645879732739422,0.2111784148222333
5.679287305122495,0.24603444112645678
5.712694877505569,0.2864176106521511
5.746102449888642,0.3324516946807028
5.779510022271715,0.37749831221923835
5.812917594654789,0.40751021099528406
5.846325167037863,0.4038600474909652
5.879732739420936,0.34971108680258084
5.91314031180401,0.2379761700040394
5.946547884187083,0.07728997396275253
5.979955456570156,-0.10758856547899774
6.01336302895323,-0.28241472896635456
6.046770601336304,-0.41514244784260007
6.080178173719377,-0.48766586844938054
6.1135857461024505,-0.5019758289591335
6.146993318485524,-0.47746221538883155
6.180400890868597,-0.4404223836737679
6.213808463251671,-0.4108319073874598
6.247216035634745,-0.3929138499620164
6.280623608017818,-0.37417759601582906
6.3140311804008915,-0.33333733088138706
6.347438752783965,-0.2530378940359276
6.380846325167038,-0.13088050926933298
6.414253897550112,0.016905099956505534
6.447661469933186,0.161063749193464
6.481069042316259,0.27141174724205236
6.5144766146993325,0.3294231471312186
6.547884187082406,0.335222550119231
6.581291759465479,0.3059141030936839
6.614699331848553,0.266572635390608
6.648106904231627,0.23867078950807077
6.6815144766147,0.23155651590049375
6.7149220489977735,0.2406339389956847
6.748329621380847,0.2523401783306284
6.78173719376392,0.2527132999086473
6.815144766146994,0.23489143192964013
6.848552338530068,0.2018545304656803
6.881959910913141,0.16348487603016648
6.915367483296214,0.13007218004683582
6.948775055679288,0.106121848485715
6.982182628062361,0.08789450907061282
7.015590200445435,0.06586625068903795
7.048997772828509,0.030564092036792494
7.082405345211582,-0.021512473971915136
7.115812917594655,-0.08508371227086585
7.149220489977729,-0.14785686512488636
7.182628062360802,-0.19594137154497468
7.216035634743876,-0.22017667574982333
7.24944320712695,-0.2202564627985081
7.282850779510023,-0.20468691557200755
7.316258351893096,-0.18667612554469132
7.34966592427617,-0.1779869691658426
7.383073496659243,-0.1836713843761004
7.416481069042317,-0.20006411859163753
7.449888641425391,-0.21678282186400755
7.4832962138084635,-0.22159807449802907
7.516703786191537,-0.2058000966265815
7.550111358574611,-0.16762579234139438
7.583518930957685,-0.11237284646753913
7.616926503340758,-0.04946610563684605
7.650334075723832,0.011832391405725843
7.683741648106905,0.06584097856526504
7.717149220489978,0.11137435330327664
7.750556792873052,0.1499434639618787
7.783964365256126,0.18251019355733994
7.817371937639199,0.2068498908311135
7.850779510022273,0.21725801019040933
7.884187082405346,0.20708618511239948
7.917594654788419,0.17302119943957256
7.951002227171493,0.11889304889220488
7.984409799554567,0.056705370754951925
8.01781737193764,0.003678074529962017
8.051224944320714,-0.024021976609128855
8.084632516703786,-0.01836728809929412
8.118040089086861,0.01592156658962984
8.151447661469934,0.061776633675311575
8.184855233853007,0.0956268963863973
8.218262806236082,0.09663571110438939
8.251670378619155,0.05559953801385077
8.285077951002227,-0.020287544405722755
8.318485523385302,-0.10900229274458001
8.351893095768375,-0.18123783453776432
8.385300668151448,-0.2111366413301059
8.418708240534523,-0.18609140370549257
8.452115812917596,-0.11179082247672913
8.485523385300668,-0.010501602294701795
8.518930957683743,0.0867936376777352
8.552338530066816,0.1513899646371449
8.585746102449889,0.16679083366366315
8.619153674832964,0.13387863110528864
8.652561247216036,0.06955223314675651
8.68596881959911,-0.0004170258320833991
8.719376391982184,-0.051431924677324305
8.752783964365257,-0.06915733675178085
8.78619153674833,-0.054233899540153306
8.819599109131405,-0.02088351566013017
8.853006681514477,0.009976552141618673
8.88641425389755,0.02029252913984223
8.919821826280625,0.003102907030899778
8.953229398663698,-0.03413655692005444
8.98663697104677,-0.07268691973631462
9.020044543429846,-0.0908501755981721
9.053452115812918,-0.0738547502102826
9.086859688195991,-0.020923555510159893
9.120267260579066,0.05359314620313237
9.153674832962139,0.12545005173398843
9.187082405345212,0.16970887059692402
9.220489977728286,0.16989313391557326
9.25389755011136,0.12337504730269169
9.287305122494432,0.041221244680210954
9.320712694877507,-0.05674948754194708
9.35412026726058,-0.14909998014580023
9.387527839643653,-0.2191002711411041
9.420935412026727,-0.2581977336648633
9.4543429844098,-0.26615575451902723
9.487750556792873,-0.2487104303466724
9.521158129175948,-0.2141647312817865
9.55456570155902,-0.17017683657686217
9.587973273942094,-0.12149813440762913
9.621380846325168,-0.0689970666200391
9.654788418708241,-0.010117552576294816
9.688195991091314,0.059206932181991
9.721603563474389,0.14149692582738957
9.755011135857462,0.2344213385355297
9.788418708240535,0.32864325971139474
9.82182628062361,0.40818505838896796
9.855233853006682,0.4538759994993867
9.888641425389755,0.4491201682228011
9.92204899777283,0.3860118485711159
9.955456570155903,0.26938246418125017
9.988864142538976,0.1169802469574505
10.02227171492205,-0.044567123255567526
10.055679287305123,-0.18670756899372082
10.089086859688196,-0.28641836005190796
10.12249443207127,-0.3316292989211981
10.155902004454344,-0.3229906690475692
10.189309576837417,-0.2718312906057987
10.222717149220491,-0.1955358844265143
10.256124721603564,-0.11233104746225057
10.289532293986637,-0.037375042745072216
10.322939866369712,0.018800523634176294
10.356347438752785,0.04968210927516251
10.389755011135858,0.051269639454899166
10.423162583518932,0.0213513301497025
10.456570155902005,-0.039331445572439484
10.489977728285078,-0.1242687340975338
10.523385300668153,-0.21842098067204488
10.556792873051226,-0.29793528287052984
10.590200445434299,-0.3341511698171755
10.623608017817373,-0.3018445940841336
10.657015590200446,-0.18931497722483198
10.69042316258352,-0.00624458446100158
10.723830734966594,0.21474894983671194
10.757238307349667,0.42495080883986
10.790645879732741,0.5734755917662852
10.824053452115814,0.623637626950436
10.857461024498887,0.5654733694958415
10.890868596881962,0.4191871103935125
10.924276169265035,0.22781343562312262
10.957683741648108,0.0418695943664827
10.991091314031182,-0.09785257203044359
11.024498886414255,-0.1725378446004334
11.057906458797328,-0.1881988885009824
11.091314031180403,-0.16895373203404654
11.124721603563476,-0.1446346004333621
11.158129175946549,-0.13856591163953147
11.191536748329623,-0.16036016795273747
11.224944320712696,-0.20548457210587498
11.25835189309577,-0.26001998965122725
11.291759465478844,-0.30722777581379396
11.325167037861917,-0.3328786881673358
11.35857461024499,-0.3280446885539472
11.391982182628064,-0.2897888518740565
11.425389755011137,-0.22083526279411175
11.45879732739421,-0.12879509185279195
11.492204899777285,-0.024706304109198454
11.525612472160358,0.07950370832683665
11.55902004454343,0.17421813624695523
11.592427616926505,0.25451605843886976
11.625835189309578,0.3200667651158248
11.659242761692651,0.3720854034061025
11.692650334075726,0.40895017250531585
11.726057906458799,0.4234859174202378
11.759465478841872,0.4044326166921977
11.792873051224946,0.34222554036138536
11.82628062360802,0.2363009707267397
11.859688195991092,0.09962568781421899
11.893095768374167,-0.04282182775849076
11.92650334075724,-0.16175873705538812
11.959910913140313,-0.23419521481351643
11.993318485523387,-0.25189656958605977
12.02672605790646,-0.22366825367927617
12.060133630289533,-0.17052912869490147
12.093541202672608,-0.11631626949707773
12.12694877505568,-0.07826483828230238
12.160356347438753,-0.06172239688972438
12.193763919821828,-0.06082039782688074
12.227171492204901,-0.06400372353793682
12.260579064587974,-0.06126144220169406
12.293986636971049,-0.04951183046973266
12.327394209354122,-0.03379942594800619
12.360801781737194,-0.024047357253478105
12.39420935412027,-0.029135245096517822
12.427616926503342,-0.051236300271469935
12.461024498886415,-0.08321275075157278
12.49443207126949,-0.11050268184456413
12.527839643652563,-0.1168958150384009
12.561247216035635,-0.09176148627173188
12.59465478841871,-0.03549292367718625
12.628062360801783,0.03941178552846825
12.661469933184856,0.11232823979014964
12.69487750556793,0.16196500095410396
12.728285077951004,0.17414660371760451
12.761692650334076,0.14667500597699581
12.795100222717151,0.08946391875283555
12.828507795100224,0.020329425979423176
12.861915367483297,-0.041399997202071624
12.895322939866372,-0.08076984968804254
12.928730512249444,-0.09069245131041505
12.962138084632517,-0.07257988434763797
12.995545657015592,-0.034796935998714716
13.028953229398665,0.010038579561260258
13.062360801781738,0.04819992871399659
13.095768374164813,0.06814790645178678
13.129175946547885,0.06369661839318659
13.162583518930958,0.03633847163205669
13.195991091314033,-0.004377934110830996
13.229398663697106,-0.04329925461091516
13.262806236080179,-0.06477344248965167
13.296213808463254,-0.05877150372331819
13.329621380846326,-0.025392755872092238
13.3630289532294,0.02461809103044442
13.396436525612474,0.07407279147141475
13.429844097995547,0.10668910271053503
13.46325167037862,0.11427237052755913
13.496659242761694,0.10025044534602695
13.530066815144767,0.07771245692406616
13.56347438752784,0.0627629966272598
13.596881959910915,0.06635433462157261
13.630289532293988,0.08858331938921037
13.66369710467706,0.11828062578579968
13.697104677060135,0.13813239131029376
13.730512249443208,0.1328590555362396
13.763919821826281,0.09651470648628756
13.797327394209356,0.03548453619089991
13.830734966592429,-0.03408039833033852
13.864142538975502,-0.0930112460765115
13.897550111358576,-0.1268750418087455
13.93095768374165,-0.13136574930201114
13.964365256124722,-0.1132737288360297
13.997772828507797,-0.0870109098729792
14.03118040089087,-0.06847473842317364
14.064587973273943,-0.06891088255866767
14.097995545657017,-0.09116224898965776
14.13140311804009,-0.12951690810030883
14.164810690423163,-0.1728397133768562
14.198218262806238,-0.2094098558290652
14.23162583518931,-0.23135006786366313
14.265033407572384,-0.23687563778345772
14.298440979955458,-0.2296225808405051
14.331848552338531,-0.21558838690958756
14.365256124721604,-0.19921573122064815
14.398663697104679,-0.18047800767192804
14.432071269487752,-0.15436242081832288
14.465478841870825,-0.11307417444467686
14.4988864142539,-0.050037302680014
14.532293986636972,0.03611024912221476
14.565701559020045,0.1393995104653537
14.59910913140312,0.2473368558778168
14.632516703786193,0.3443313335922647
14.665924276169266,0.416258181240639
14.69933184855234,0.4542706983881524
14.732739420935413,0.4565089712651794
14.766146993318486,0.42744621716734843
14.79955456570156,0.375610315305993
14.832962138084634,0.31083214580347196
14.866369710467707,0.2419517907051638
14.899777282850781,0.175384301046121
14.933184855233854,0.11451304034344076
14.966592427616927,0.05973256338095082
15.0,0.009014862134119056
