Frequency (Hz),Amplitude
0.0,8.298612722896403
0.019867549668874173,8.307281998367454
0.039735099337748346,8.333201590582993
0.059602649006622516,8.376109656746944
0.07947019867549669,8.435579098463585
0.09933774834437085,8.511030760986458
0.11920529801324503,8.601750500786956
0.13907284768211922,8.706908940426782
0.15894039735099338,8.825582667498043
0.17880794701986755,8.956775701323794
0.1986754966887417,9.099440217165327
0.2185430463576159,9.25249574381205
0.23841059602649006,9.414846297681763
0.2582781456953642,9.585395152781318
0.27814569536423844,9.76305714911913
0.2980132450331126,9.946768601057302
0.31788079470198677,10.13549497916344
0.33774834437086093,10.328236608139989
0.3576158940397351,10.524032656668892
0.3774834437086093,10.721963701100975
0.3973509933774834,10.921153132169097
0.4172185430463576,11.120767649485598
0.4370860927152318,11.320017058148936
0.45695364238410596,11.518153549448071
0.4768211920529801,11.714470616176849
0.49668874172185434,11.90830172412934
0.5165562913907285,12.099018835803847
0.5364238410596026,12.28603086049677
0.5562913907284769,12.468782086753816
0.5761589403973509,12.646750638282601
0.5960264900662252,12.81944698253343
0.6158940397350993,12.986412511796818
0.6357615894039735,13.14721820943464
0.6556291390728477,13.301463408371808
0.6754966887417219,13.448774644891463
0.695364238410596,13.588804607808704
0.7152317880794702,13.72123118100778
0.7350993377483444,13.845756575913802
0.7549668874172186,13.962106549577863
0.7748344370860927,14.070029703552922
0.7947019867549668,14.169296858529782
0.8145695364238411,14.2597004997092
0.8344370860927152,14.34105428804702
0.8543046357615894,14.413192632781547
0.8741721854304636,14.475970320998488
0.8940397350993378,14.529262200386135
0.9139072847682119,14.572962911762492
0.9337748344370861,14.606986668404357
0.9536423841059603,14.631267079666934
0.9735099337748344,14.645757016844556
0.9933774834437087,14.650428519687825
1.0132450331125828,14.645272742454702
1.033112582781457,14.630299938834947
1.0529801324503312,14.60553948554746
1.0728476821192052,14.571039944870865
1.0927152317880795,14.526869166826959
1.1125827814569538,14.473114432199207
1.1324503311258278,14.409882638030261
1.1523178807947019,14.337300527705752
1.1721854304635762,14.255514968193546
1.1920529801324504,14.164693277463227
1.2119205298013245,14.065023605555536
1.2317880794701985,13.956715373196372
1.2516556291390728,13.839999772237919
1.271523178807947,13.715130332546881
1.2913907284768211,13.582383560214435
1.3112582781456954,13.442059652104343
1.3311258278145695,13.294483291732021
1.3509933774834437,13.14000453122187
1.370860927152318,12.978999763537571
1.390728476821192,12.811872788221605
1.410596026490066,12.639055972380593
1.4304635761589404,12.46101150645428
1.4503311258278146,12.278232751199399
1.4701986754966887,12.091245668064406
1.4900662251655628,11.900610319430106
1.5099337748344372,11.70692241770378
1.5298013245033113,11.510814892594517
1.5496688741721854,11.312959433649835
1.5695364238410596,11.114067949878196
1.5894039735099337,10.914893869646528
1.609271523178808,10.716233181771067
1.6291390728476822,10.518925092790061
1.6490066225165563,10.323852146184505
1.6688741721854303,10.131939617752025
1.6887417218543048,9.944153969239325
1.7086092715231789,9.761500112614334
1.728476821192053,9.585017214301239
1.7483443708609272,9.4157727581369
1.7682119205298013,9.254854595042103
1.7880794701986755,9.103360744802226
1.8079470198675496,8.962386789373555
1.8278145695364238,8.83301081468478
1.847682119205298,8.71627602206241
1.8675496688741722,8.613171337682337
1.8874172185430464,8.52461058624644
1.9072847682119205,8.451411040221645
1.9271523178807946,8.394272375432005
1.9470198675496688,8.353757218468012
1.9668874172185429,8.330274523143382
1.9867549668874174,8.3240669341207
2.0066225165562916,8.335203077031197
2.0264900662251657,8.363575372017374
2.0463576158940397,8.408903542416255
2.066225165562914,8.470743540735647
2.086092715231788,8.548501203956517
2.1059602649006623,8.64144963468283
2.1258278145695364,8.7487491189656
2.1456953642384105,8.869468345581575
2.165562913907285,9.002605771022825
2.185430463576159,9.147110148168398
2.205298013245033,9.301899465439336
2.2251655629139075,9.465877789053545
2.2450331125827816,9.637949732945582
2.2649006622516556,9.817032478424046
2.2847682119205297,10.002065418503824
2.3046357615894038,10.192017608415224
2.324503311258278,10.385893268283962
2.3443708609271523,10.582735613853158
2.364238410596027,10.78162929492357
2.384105960264901,10.981701707083689
2.403973509933775,11.182123417253464
2.423841059602649,11.382107913014837
2.443708609271523,11.580910853587165
2.463576158940397,11.777828969242561
2.4834437086092715,11.972198727517545
2.5033112582781456,12.16339485955394
2.52317880794702,12.350828818550882
2.543046357615894,12.533947224540725
2.562913907284768,12.71223033522287
2.5827814569536423,12.885190571015517
2.6026490066225163,13.052371113391043
2.622516556291391,13.213344588541576
2.642384105960265,13.367711843098457
2.662251655629139,13.51510081467509
2.6821192052980134,13.655165497134295
2.7019867549668874,13.787584998464716
2.7218543046357615,13.91206268779326
2.741721854304636,14.02832542720722
2.76158940397351,14.136122883587307
2.781456953642384,14.235226915463977
2.801324503311258,14.32543102992891
2.821192052980132,14.406549904803436
2.8410596026490067,14.47841897154154
2.8609271523178808,14.540894054694215
2.8807947019867552,14.593851064159512
2.9006622516556293,14.637185736871745
2.9205298013245033,14.67081342502932
2.9403973509933774,14.694668928418755
2.9602649006622515,14.708706368852646
2.9801324503311255,14.712899105201581
3.0,14.707239687961804
3.0198675496688745,14.691739852759387
3.0397350993377485,14.666430552652143
3.0596026490066226,14.63136202954741
3.0794701986754967,14.586603925514014
3.0993377483443707,14.532245435225304
3.119205298013245,14.468395501230694
3.1390728476821192,14.39518305421286
3.1589403973509933,14.312757300844693
3.1788079470198674,14.221288062310489
3.198675496688742,14.120966166992055
3.218543046357616,14.012003901232903
3.23841059602649,13.894635522468405
3.2582781456953644,13.769117839324265
3.2781456953642385,13.635730863515125
3.2980132450331126,13.494778538479617
3.3178807947019866,13.346589549619912
3.3377483443708607,13.191518220707634
3.3576158940397347,13.029945500391173
3.3774834437086096,12.862280041683503
3.3973509933774837,12.688959375693335
3.4172185430463577,12.510451178513131
3.437086092715232,12.3272546268925
3.456953642384106,12.139901833851386
3.47682119205298,11.948959349427463
3.4966887417218544,11.75502970396403
3.5165562913907285,11.558752961341439
3.5364238410596025,11.360808236930067
3.556291390728477,11.161915119390285
3.576158940397351,10.962834916418982
3.596026490066225,10.764371621928015
3.615894039735099,10.567372475981706
3.6357615894039736,10.372727959565157
3.6556291390728477,10.181371034981288
3.6754966887417218,9.99427541131822
3.695364238410596,9.812452586071869
3.7152317880794703,9.63694739310556
3.7350993377483444,9.468831779634254
3.754966887417219,9.30919654819548
3.774834437086093,9.159140841868467
3.794701986754967,9.019759230454829
3.814569536423841,8.892126378223292
3.834437086092715,8.77727944228634
3.854304635761589,8.676198560042643
3.8741721854304636,8.58978602053501
3.8940397350993377,8.51884495384568
3.9139072847682117,8.4640585813563
3.9337748344370858,8.425971209350937
3.9536423841059607,8.404972182690472
3.9735099337748347,8.401283918978303
3.993377483443709,8.414954911264465
4.013245033112583,8.445858237940126
4.033112582781457,8.49369569458462
4.052980132450331,8.558007222540997
4.072847682119205,8.638184914811648
4.0927152317880795,8.733490583442503
4.112582781456953,8.843075705507516
4.132450331125828,8.966002533900248
4.152317880794702,9.10126524840266
4.172185430463576,9.247810200195788
4.19205298013245,9.404554530702976
4.211920529801325,9.570402686726668
4.231788079470199,9.744260579058546
4.251655629139073,9.925047322012189
4.271523178807947,10.111704637523976
4.291390728476821,10.303204108559978
4.311258278145695,10.498552527015582
4.33112582781457,10.696795608510946
4.3509933774834435,10.897020348804196
4.370860927152318,11.098356281853416
4.390728476821192,11.2999758745498
4.410596026490066,11.501094263024743
4.43046357615894,11.700968503955451
4.450331125827815,11.898896483944426
4.470198675496689,12.094215602312344
4.490066225165563,12.286301318264485
4.509933774834438,12.474565632599562
4.529801324503311,12.658455556827597
4.549668874172186,12.837451608465432
4.569536423841059,13.011066360002282
4.589403973509934,13.178843060166022
4.6092715231788075,13.340354339274308
4.629139072847682,13.495201005261126
4.649006622516556,13.643010933106524
4.66887417218543,13.78343804759321
4.688741721854305,13.91616139734052
4.708609271523179,14.04088431673553
4.728476821192054,14.157333671544096
4.748344370860927,14.265259183520067
4.768211920529802,14.364432829143885
4.788079470198675,14.4546483076405
4.80794701986755,14.535720573591796
4.827814569536423,14.607485429730252
4.847682119205298,14.669799175843133
4.867549668874172,14.722538310108591
4.887417218543046,14.765599279607997
4.9072847682119205,14.798898277199998
4.927152317880794,14.82237108239401
4.947019867549669,14.835972944317364
4.966887417218543,14.839678505328038
4.986754966887418,14.833481764283587
5.006622516556291,14.81739607893208
5.026490066225166,14.791454207348318
5.04635761589404,14.755708388792886
5.066225165562914,14.710230464827319
5.086092715231788,14.655112041974148
5.105960264900662,14.59046469766602
5.125827814569536,14.516420231680845
5.14569536423841,14.433130965709962
5.1655629139072845,14.340770094144702
5.185430463576159,14.239532089589284
5.205298013245033,14.129633167002128
5.225165562913908,14.011311810716986
5.245033112582782,13.884829368879473
5.264900662251656,13.750470720022212
5.28476821192053,13.608545016554974
5.304635761589404,13.459386509811717
5.324503311258278,13.303355460907309
5.344370860927152,13.140839140925928
5.364238410596027,12.972252922780056
5.3841059602649,12.798041465304353
5.403973509933775,12.618679987610804
5.4238410596026485,12.434675628217999
5.443708609271523,12.246568878726151
5.463576158940397,12.05493507553965
5.483443708609272,11.860385925000893
5.503311258278146,11.663571026913385
5.52317880794702,11.465179348405735
5.543046357615895,11.265940584041994
5.562913907284768,11.066626318711716
5.582781456953643,10.868050886983916
5.602649006622516,10.671071796406357
5.622516556291391,10.476589553241434
5.642384105960264,10.285546698563579
5.662251655629139,10.098925832603896
5.682119205298013,9.917746378960867
5.701986754966887,9.74305982240186
5.7218543046357615,9.575943150490799
5.741721854304636,9.417490247493618
5.7615894039735105,9.268801036929412
5.781456953642384,9.130968254331327
5.801324503311259,9.005061859676054
5.821192052980132,8.892111270505954
5.841059602649007,8.793085806000741
5.860927152317881,8.708873964079585
5.880794701986755,8.640262383098275
5.900662251655629,8.587915533594336
5.920529801324503,8.552357306719156
5.940397350993377,8.533955680761888
5.960264900662251,8.532911533845827
5.980132450331126,8.549252427530616
6.0,8.582831834393808
6.0198675496688745,8.63333386612433
6.039735099337749,8.700283134404634
6.059602649006623,8.783059003696598
6.079470198675497,8.880913220853346
6.099337748344371,8.99298975890581
6.119205298013245,9.118345695334794
6.139072847682119,9.255972041395273
6.158940397350993,9.404813617186196
6.178807947019867,9.563787290215682
6.198675496688741,9.731798128494841
6.218543046357616,9.907753235457111
6.23841059602649,10.090573215691126
6.258278145695365,10.279201359448026
6.2781456953642385,10.472610729552871
6.298013245033113,10.669809391202252
6.317880794701987,10.869844050344263
6.337748344370861,11.071802367895513
6.357615894039735,11.27481420246856
6.377483443708609,11.478052009923909
6.397350993377484,11.680730598870015
6.417218543046357,11.882106410777824
6.437086092715232,12.081476464019508
6.456953642384105,12.278177074299586
6.47682119205298,12.471582440330677
6.496688741721854,12.661103163440464
6.516556291390729,12.846184752989233
6.5364238410596025,13.026306155759414
6.556291390728477,13.200978336484694
6.5761589403973515,13.369742928028744
6.596026490066225,13.53217096301903
6.6158940397351,13.68786169364199
6.635761589403973,13.836441502501861
6.655629139072848,13.977562904674942
6.675496688741721,14.110903639131982
6.695364238410596,14.236165846373519
6.715231788079469,14.353075328279632
6.735099337748344,14.461380885699885
6.754966887417219,14.560853729109168
6.774834437086093,14.65128695765727
6.794701986754967,14.732495102091983
6.814569536423841,14.804313727290827
6.8344370860927155,14.86659909046656
6.854304635761589,14.919227851491142
6.874172185430464,14.962096832194076
6.894039735099337,14.99512282192374
6.913907284768212,15.01824242710285
6.933774834437086,15.031411962959119
6.95364238410596,15.034607386063415
6.973509933774834,15.027824266759545
6.993377483443709,15.011077801021937
7.013245033112583,14.984402861727359
7.033112582781457,14.947854089777994
7.052980132450331,14.901506025962208
7.072847682119205,14.84545328488853
7.0927152317880795,14.779810772775875
7.112582781456954,14.704713951326502
7.132450331125828,14.620319150343914
7.152317880794702,14.52680393218142
7.172185430463576,14.424367511507917
7.19205298013245,14.31323123424377
7.211920529801324,14.193639119834842
7.231788079470198,14.065858471271683
7.251655629139073,13.930180557391946
7.271523178807947,13.786921371986883
7.291390728476822,13.636422474008208
7.311258278145695,13.479051912673492
7.33112582781457,13.315205240401369
7.3509933774834435,13.145306615159653
7.370860927152318,12.969809991836726
7.390728476821192,12.78920039947045
7.410596026490066,12.603995297378406
7.430463576158941,12.414745998169902
7.450331125827814,12.222039138988395
7.470198675496689,12.026498173797995
7.490066225165562,11.82878484872213
7.509933774834438,11.629600609001761
7.52980132450331,11.429687869718565
7.549668874172186,11.22983106278258
7.569536423841059,11.030857349737296
7.589403973509934,10.833636863926499
7.6092715231788075,10.639082317193266
7.629139072847682,10.448147776918148
7.649006622516557,10.261826391128876
7.66887417218543,10.081146816034432
7.6887417218543055,9.907168086367703
7.708609271523178,9.740972670395447
7.728476821192054,9.583657475493807
7.748344370860927,9.436322624340884
7.768211920529802,9.300057912853262
7.788079470198675,9.175926993299079
7.80794701986755,9.064949499157493
7.827814569536423,8.96808153484005
7.847682119205298,8.886195177149304
7.8675496688741715,8.820057851015662
7.887417218543046,8.770312617159735
7.907284768211921,8.737460508947306
7.927152317880795,8.721846049536564
7.9470198675496695,8.723646950842621
7.966887417218543,8.742868744610863
7.986754966887418,8.779344746945855
8.006622516556291,8.832741354417516
8.026490066225167,8.90256826714922
8.046357615894038,8.988192886727411
8.066225165562914,9.088857887436758
8.086092715231787,9.20370083169348
8.105960264900663,9.331774695940092
8.125827814569536,9.47206827377014
8.14569536423841,9.623525598281333
8.165562913907285,9.785063740770317
8.185430463576159,9.95558856562249
8.205298013245034,10.13400822655835
8.225165562913906,10.319244361298063
8.245033112582782,10.510241072946473
8.264900662251655,10.705971876668587
8.28476821192053,10.90544484385884
8.304635761589404,11.107706199789645
8.324503311258278,11.311842632160385
8.344370860927151,11.516982554115177
8.364238410596027,11.722296542137059
8.3841059602649,11.92699714142005
8.403973509933774,12.130338202242685
8.42384105960265,12.331613882768218
8.443708609271523,12.530157427935814
8.463576158940398,12.725339811378625
8.483443708609272,12.916568307836364
8.503311258278146,13.103285047255207
8.52317880794702,13.284965588438846
8.543046357615895,13.461117539396822
8.562913907284768,13.631279243063052
8.582781456953642,13.795018540471546
8.602649006622515,13.951931618442288
8.62251655629139,14.101641945059127
8.642384105960264,14.243799293455204
8.66225165562914,14.37807885245375
8.682119205298013,14.50418042126216
8.701986754966887,14.621827684549313
8.721854304635762,14.730767563730206
8.741721854304636,14.830769640054086
8.76158940397351,14.921625645065884
8.781456953642383,15.003149014136353
8.801324503311259,15.075174498988435
8.821192052980132,15.137557835455656
8.841059602649008,15.19017546306922
8.86092715231788,15.232924293465683
8.880794701986755,15.265721525025196
8.90066225165563,15.288504501580846
8.920529801324504,15.301230613479252
8.940397350993377,15.30387723971391
8.960264900662251,15.296441730297254
8.980132450331126,15.278941428481133
9.0,15.25141373287851
9.019867549668875,15.213916199981702
9.039735099337747,15.16652668801479
9.059602649006623,15.109343543495166
9.079470198675496,15.042485832316661
9.099337748344372,14.966093617593817
9.119205298013245,14.880328286925993
9.139072847682119,14.785372932138008
9.158940397350994,14.681432784926338
9.178807947019868,14.56873571216761
9.198675496688743,14.447532774913673
9.218543046357615,14.31809885527543
9.23841059602649,14.180733355454324
9.258278145695364,14.035760973067552
9.27814569536424,13.883532556574723
9.298013245033111,13.724426043971622
9.317880794701987,13.558847486879465
9.33774834437086,13.387232160601583
9.357615894039736,13.210045758501138
9.37748344370861,13.027785665989077
9.397350993377483,12.840982305286968
9.417218543046358,12.650200536690255
9.437086092715232,12.456041095010454
9.456953642384107,12.259142030898285
9.47682119205298,12.060180115499932
9.496688741721854,11.85987215304396
9.516556291390728,11.65897612920615
9.536423841059603,11.45829210328594
9.556291390728477,11.258662729379374
9.57615894039735,11.060973266217285
9.596026490066224,10.866150908013811
9.6158940397351,10.675163241093713
9.635761589403973,10.489015605694206
9.655629139072847,10.308747122725201
9.675496688741722,10.135425136195884
9.695364238410596,9.970137829417453
9.715231788079471,9.813984803763015
9.735099337748345,9.668065469611605
9.754966887417218,9.533465195925764
9.774834437086092,9.411239300681022
9.794701986754967,9.302395137147254
9.814569536423841,9.207872731957679
9.834437086092716,9.12852464287519
9.854304635761588,9.065095901947979
9.874172185430464,9.018205062339616
9.894039735099337,8.988327442561323
9.913907284768213,8.975781633945136
9.933774834437086,8.980720192800534
9.95364238410596,9.003125183158561
9.973509933774835,9.042808894935614
9.993377483443709,9.099419678228358
10.013245033112582,9.172452458609117
10.033112582781456,9.261263180298398
10.052980132450331,9.365086201683091
10.072847682119205,9.483053560057568
10.09271523178808,9.614215028740249
10.112582781456952,9.757557991861436
10.132450331125828,9.912026331405203
10.152317880794701,10.076537725328212
10.172185430463577,10.249998965324185
10.192052980132452,10.431319095364612
10.211920529801324,10.61942033315731
10.2317880794702,10.813246859671382
10.251655629139073,11.011771646711113
10.271523178807948,11.214001543216256
10.29139072847682,11.418980863777753
10.311258278145695,11.625793724706678
10.331125827814569,11.83356536040357
10.350993377483444,12.041462631300275
10.370860927152318,12.248693908639439
10.390728476821192,12.454508493992709
10.410596026490065,12.658195704836567
10.43046357615894,12.859083733014106
10.450331125827816,13.056538361199589
10.470198675496688,13.249961603798559
10.490066225165563,13.43879032302138
10.509933774834437,13.62249485795251
10.529801324503312,13.8005776939991
10.549668874172186,13.972572191807792
10.56953642384106,14.138041388252807
10.589403973509933,14.296576877112273
10.609271523178808,14.447797773286116
10.629139072847682,14.591349761627601
10.649006622516556,14.726904229459086
10.66887417218543,14.854157480453882
10.688741721854305,14.972830026651968
10.70860927152318,15.082665954827492
10.728476821192054,15.183432363154163
10.748344370860927,15.274918864047512
10.7682119205298,15.356937149152476
