Time (s),Filtered Signal
0.0,0.010187396135796712
0.033370165745856356,0.11100628050607692
0.06674033149171271,0.22754100531646526
0.10011049723756907,0.38604121965810484
0.13348066298342542,0.6201827951633745
0.16685082872928178,0.9511419119634769
0.20022099447513814,1.3630393344666398
0.2335911602209945,1.7924380804547666
0.26696132596685085,2.143987263144699
0.30033149171270723,2.3282401981196057
0.33370165745856356,2.302659629411534
0.3670718232044199,2.0929008914784784
0.4004419889502763,1.7814940537815214
0.43381215469613266,1.4690031218378061
0.467182320441989,1.2278580795422593
0.5005524861878453,1.0726668153716712
0.5339226519337017,0.9613386303432694
0.5672928176795581,0.8246531763004632
0.6006629834254145,0.6074005929460571
0.6340331491712707,0.2994128412258104
0.6674033149171271,-0.058542294923560834
0.7007734806629835,-0.3952985906596076
0.7341436464088398,-0.6443184067431772
0.7675138121546962,-0.7750758094347585
0.8008839779005525,-0.8058688337487774
0.8342541436464089,-0.7932503356211943
0.8676243093922653,-0.8047196952406044
0.9009944751381216,-0.8884673650038006
0.934364640883978,-1.053860511919125
0.9677348066298344,-1.2699279995363426
1.0011049723756906,-1.4802615785287234
1.0344751381215471,-1.6260302257070147
1.0678453038674034,-1.666920725982939
1.1012154696132597,-1.5925696115277719
1.1345856353591162,-1.422078989642952
1.1679558011049724,-1.1938358962978897
1.201325966850829,-0.9505701253590172
1.2346961325966852,-0.7252382588755175
1.2680662983425415,-0.5323751311615658
1.301436464088398,-0.3674307824374701
1.3348066298342542,-0.21371179807330667
1.3681767955801105,-0.05361562230314594
1.401546961325967,0.1209817685274313
1.4349171270718233,0.30403767310256996
1.4682872928176796,0.47860367544960924
1.501657458563536,0.6263210700083938
1.5350276243093923,0.7379634783774879
1.5683977900552488,0.818812296673577
1.601767955801105,0.8850551914059553
1.6351381215469614,0.9524142343570016
1.6685082872928179,1.0232399653113546
1.7018784530386741,1.080213712793225
1.7352486187845306,1.0918771396994125
1.768618784530387,1.028609032275922
1.8019889502762432,0.8810898839355376
1.8353591160220997,0.6708275248414598
1.868729281767956,0.44580986255150545
1.9020994475138122,0.2620956369760273
1.9354696132596687,0.15984400626094258
1.968839779005525,0.1455879246846098
2.0022099447513813,0.18963063034575212
2.0355801104972375,0.23989465273212748
2.0689502762430942,0.24543302467534606
2.1023204419889505,0.17835211223484337
2.135690607734807,0.04422676012226889
2.169060773480663,-0.12280989135277873
2.2024309392265193,-0.2766982751630747
2.235801104972376,-0.3792855008873985
2.2691712707182323,-0.41451169689129547
2.3025414364640886,-0.39182723826122495
2.335911602209945,-0.33907392481113996
2.369281767955801,-0.28935607409248926
2.402651933701658,-0.2680460279401234
2.436022099447514,-0.2848977807273198
2.4693922651933704,-0.3332921310495224
2.5027624309392267,-0.3954089279355678
2.536132596685083,-0.4500373886496913
2.5695027624309392,-0.47960864767151173
2.602872928176796,-0.4746291359352187
2.636243093922652,-0.4357026937091387
2.6696132596685085,-0.37413476955891684
2.7029834254143648,-0.31106140862168796
2.736353591160221,-0.2732702686437118
2.7697237569060777,-0.28368536604927225
2.803093922651934,-0.3474077824513692
2.8364640883977903,-0.4391646969961115
2.8698342541436466,-0.5013466744763103
2.903204419889503,-0.4596317837229232
2.936574585635359,-0.2547135658602454
2.969944751381216,0.12220648098725471
3.003314917127072,0.6088088166347756
3.0366850828729284,1.080836728153925
3.0700552486187846,1.392398821620866
3.103425414364641,1.4320950647854434
3.1367955801104976,1.1696540001924303
3.170165745856354,0.6707910840314911
3.20353591160221,0.07293272015097631
3.2369060773480665,-0.46678608428392976
3.2702762430939227,-0.8273139152162072
3.3036464088397794,-0.9592129698748936
3.3370165745856357,-0.8873727532413501
3.370386740331492,-0.6847482965942544
3.4037569060773483,-0.4336650435752277
3.4371270718232045,-0.1943373394353216
3.4704972375690613,0.0067066771624655205
3.5038674033149175,0.16791266771955932
3.537237569060774,0.2940388654363265
3.57060773480663,0.3816094870403507
3.6039779005524863,0.4180156857552042
3.6373480662983426,0.3941249967691026
3.6707182320441993,0.3210341742380212
3.7040883977900556,0.23800618388141784
3.737458563535912,0.2028900340895647
3.770828729281768,0.2664382769144808
3.8041988950276244,0.4424389296790663
3.837569060773481,0.6902494241915236
3.8709392265193374,0.9217813820972297
3.9043093922651937,1.0330198531276942
3.93767955801105,0.9470669575313516
3.9710497237569062,0.648788632152478
4.0044198895027625,0.19444790381845564
4.037790055248619,-0.3084208488198932
4.071160220994475,-0.7415405868910196
4.104530386740332,-1.0184253152390481
4.1379005524861885,-1.1107346077455642
4.171270718232044,-1.0489100134991176
4.204640883977901,-0.8997840658098153
4.238011049723757,-0.7336625144663821
4.271381215469614,-0.5965513506699863
4.30475138121547,-0.4989633640110002
4.338121546961326,-0.42371291366250347
4.371491712707183,-0.34583289281004187
4.404861878453039,-0.2525722481393331
4.438232044198895,-0.1525963689721221
4.471602209944752,-0.07017046604106002
4.504972375690608,-0.02871299579626528
4.538342541436465,-0.03409121948471725
4.5717127071823205,-0.0680950542787737
4.605082872928177,-0.09650113018578581
4.638453038674034,-0.08734212029783874
4.67182320441989,-0.02858696332772186
4.7051933701657465,0.06555915685987788
4.738563535911602,0.1638292499105758
4.771933701657459,0.2371622929240899
4.805303867403316,0.27628954533132377
4.8386740331491715,0.2966786740674142
4.872044198895028,0.32755877651726933
4.905414364640884,0.39159293455092314
4.938784530386741,0.48764028330005144
4.972154696132597,0.587320838819474
5.005524861878453,0.6478985996008009
5.03889502762431,0.6344084291782994
5.072265193370166,0.5386971491163234
5.105635359116023,0.38499691711851153
5.1390055248618784,0.21929602023991845
5.172375690607735,0.08847676974805936
5.205745856353592,0.020122833197198955
5.239116022099448,0.012768489014027558
5.272486187845304,0.04036521303055836
5.30585635359116,0.06745413840118597
5.339226519337017,0.06672345597446304
5.372596685082874,0.030347554075731364
5.4059668508287295,-0.029632969324681135
5.439337016574586,-0.09088201044919915
5.472707182320442,-0.134494567123516
5.506077348066299,-0.1554044178071259
5.5394475138121555,-0.1640368384026925
5.572817679558011,-0.1784470830747219
5.606187845303868,-0.21123182544751276
5.639558011049724,-0.25847582446376255
5.672928176795581,-0.29740667970439344
5.706298342541437,-0.29542950926212636
5.739668508287293,-0.2275414459450086
5.77303867403315,-0.09435579616024108
5.806408839779006,0.0685974206054817
5.839779005524862,0.19693897131058538
5.873149171270718,0.21929027474850377
5.906519337016575,0.08784397431142867
5.939889502762432,-0.1949783912184197
5.9732596685082875,-0.567151837708266
6.006629834254144,-0.9227799864280712
6.04,-1.150129388687381
6.073370165745857,-1.1776417583325236
6.1067403314917135,-1.0070358403748585
6.140110497237569,-0.7155922513473202
6.173480662983426,-0.42254639080882533
6.206850828729282,-0.23210913376894235
6.240220994475139,-0.17937966863851942
6.273591160220995,-0.2073601151353264
6.306961325966851,-0.19064738644131862
6.340331491712708,0.0010963791419099562
6.373701657458564,0.4283780386859313
6.40707182320442,1.033407267956517
6.440441988950277,1.6459752827657559
6.473812154696133,2.046673867441878
6.50718232044199,2.06165860233831
6.5405524861878455,1.6454234960319305
6.573922651933702,0.9113735729650215
6.607292817679559,0.09368516436249341
6.640662983425415,-0.5435662993188932
6.674033149171271,-0.8092763183639567
6.707403314917127,-0.6548686010234107
6.740773480662984,-0.1824769431551999
6.774143646408841,0.4069045749066532
6.8075138121546965,0.8976122907827515
6.840883977900553,1.1372633738054583
6.874254143646409,1.0779036299461486
6.907624309392266,0.7704575723093403
6.9409944751381225,0.3243105528254668
6.974364640883978,-0.14372440510534532
7.007734806629835,-0.5478174056192341
7.041104972375691,-0.8469939291887487
7.074475138121548,-1.0366408852800422
7.107845303867403,-1.1293604256060104
7.14121546961326,-1.1384061044861165
7.174585635359117,-1.071640061615223
7.207955801104973,-0.9359967014575575
7.241325966850829,-0.7462773554489893
7.274696132596685,-0.5304328258680852
7.308066298342542,-0.3264635538234537
7.341436464088399,-0.17157763001518359
7.3748066298342545,-0.08908594710123677
7.408176795580111,-0.08000556106241727
7.441546961325967,-0.12379322170328884
7.474917127071824,-0.18770230021537157
7.5082872928176805,-0.23989311346594913
7.541657458563536,-0.26000892780297086
7.575027624309393,-0.24291505283219797
7.608397790055249,-0.19520237284792796
7.641767955801106,-0.12758688504097712
7.675138121546962,-0.04776737785182319
7.708508287292818,0.042739805677998816
7.741878453038675,0.14687031060999964
7.775248618784531,0.2670925763753135
7.808618784530387,0.4003784329116295
7.841988950276244,0.5358454634948201
7.8753591160221,0.6563683411734763
7.908729281767957,0.7436472775944958
7.9420994475138125,0.7847567706525351
7.975469613259669,0.7773911921124547
8.008839779005525,0.7310957822408047
8.042209944751383,0.6630198067522125
8.075580110497238,0.5891855619990604
8.108950276243094,0.5151086752451832
8.14232044198895,0.431129675430512
8.175690607734808,0.3164575742030616
8.209060773480664,0.15166663681528544
8.24243093922652,-0.0657318278195542
8.275801104972377,-0.31097011729188884
8.309171270718233,-0.5339695602646206
8.342541436464089,-0.6751825471862215
8.375911602209946,-0.6899546614141778
8.409281767955802,-0.5708363996969705
8.442651933701658,-0.35670852532732467
8.476022099447514,-0.12248026509021762
8.509392265193371,0.04828280229179612
8.542762430939227,0.09699078552302619
8.576132596685083,0.01507435796918038
8.60950276243094,-0.1515345807355401
8.642872928176796,-0.32154558539175304
8.676243093922652,-0.4132357119976423
8.709613259668508,-0.37974421318488766
8.742983425414366,-0.22886363475460608
8.776353591160222,-0.018434862885777774
8.809723756906077,0.17039224495251404
8.843093922651935,0.26963113456097754
8.87646408839779,0.2538115140011673
8.909834254143647,0.14869476738381768
8.943204419889504,0.015549133523189868
8.97657458563536,-0.0811043099489153
9.009944751381216,-0.1061918148328934
9.043314917127072,-0.07068597867356308
9.07668508287293,-0.023417369350233603
9.110055248618785,-0.022023035809396237
9.143425414364641,-0.09803286450435042
9.176795580110499,-0.23475518409142865
9.210165745856354,-0.37058098025044717
9.24353591160221,-0.4273706727743669
9.276906077348068,-0.35033548818812243
9.310276243093924,-0.1392678085662947
9.34364640883978,0.14530000539324917
9.377016574585635,0.40519446504456585
9.410386740331493,0.5465979037048565
9.443756906077349,0.5210906485486188
9.477127071823205,0.34619899375217733
9.510497237569062,0.09584213117263705
9.543867403314918,-0.13431333682425298
9.577237569060774,-0.2694854677289739
9.610607734806631,-0.28567682854251575
9.643977900552487,-0.2128372349078896
9.677348066298343,-0.1110683449060865
9.710718232044199,-0.03357458333611906
9.744088397790057,0.003147782719659748
9.777458563535912,0.025577116488612727
9.810828729281768,0.0827648704725613
9.844198895027626,0.2111894814357443
9.877569060773482,0.40521462966789296
9.910939226519337,0.6104585046411133
9.944309392265193,0.7446769329529533
9.97767955801105,0.7357600989270038
10.011049723756907,0.5575196046984336
10.044419889502763,0.24555541560117153
10.07779005524862,-0.11402993478340753
10.111160220994476,-0.4171440961773536
10.144530386740332,-0.5804272749068144
10.17790055248619,-0.569873247927037
10.211270718232045,-0.408984856463168
10.244640883977901,-0.16556443657524814
10.278011049723757,0.07536073514360672
10.311381215469615,0.24092217030002075
10.34475138121547,0.2916303384681102
10.378121546961326,0.22864132851867164
10.411491712707184,0.08694174989611342
10.44486187845304,-0.08122582051713222
10.478232044198895,-0.22609731585762646
10.511602209944753,-0.31654804870338976
10.544972375690609,-0.3476093578952247
10.578342541436465,-0.3373559732722438
10.61171270718232,-0.31501442762183895
10.645082872928178,-0.30550661491554204
10.678453038674034,-0.3170997464255437
10.71182320441989,-0.3375415804210608
10.745193370165747,-0.3403970581375228
10.778563535911603,-0.29880860432425105
10.811933701657459,-0.20055431061429385
10.845303867403315,-0.05755320354089743
10.878674033149172,0.09482669408783398
10.912044198895028,0.2091294533547797
10.945414364640884,0.24391903834444364
10.978784530386742,0.18179072391385132
11.012154696132598,0.03998828022298023
11.045524861878453,-0.13151477527355118
11.078895027624311,-0.26535619420710477
11.112265193370167,-0.30117451154185576
11.145635359116023,-0.2101724375290898
11.179005524861878,-0.009399679827531836
11.212375690607736,0.24180100687624867
11.245745856353592,0.4636856232969995
11.279116022099448,0.5883356388063214
11.312486187845305,0.5884097861772797
11.345856353591161,0.4889626462694241
11.379226519337017,0.3560081716893997
11.412596685082875,0.2664017842722987
11.44596685082873,0.2728474688018846
11.479337016574586,0.3804414386199983
11.512707182320442,0.5455035722501437
11.5460773480663,0.6963446598845882
11.579447513812156,0.764945612605535
11.612817679558011,0.7139491365331415
11.646187845303869,0.5470902679929248
11.679558011049725,0.3007090568378069
11.71292817679558,0.023653485412831153
11.746298342541436,-0.24261851599678114
11.779668508287294,-0.4744364194547626
11.81303867403315,-0.6645787566284479
11.846408839779006,-0.8137706469135189
11.879779005524863,-0.9222201346918406
11.91314917127072,-0.9861901813570703
11.946519337016575,-1.0000534192454718
11.979889502762433,-0.9608241280811459
12.013259668508288,-0.871694273541572
12.046629834254144,-0.7429709689686061
12.08,-0.5908605221914716
12.113370165745858,-0.43509438310723064
12.146740331491714,-0.2955758836997746
12.18011049723757,-0.18759343148447
12.213480662983427,-0.1159899602627638
12.246850828729283,-0.07062730392722283
12.280220994475139,-0.02667929286518727
12.313591160220996,0.047966941377227026
12.346961325966852,0.17951871157980306
12.380331491712708,0.37447035631303255
12.413701657458564,0.611875168377687
12.447071823204421,0.8463239025262578
12.480441988950277,1.0215573345427933
12.513812154696133,1.089754480479749
12.54718232044199,1.0288604181771672
12.580552486187846,0.8509843342272257
12.613922651933702,0.5985100724905138
12.64729281767956,0.3295703398658394
12.680662983425416,0.09884827108559709
12.714033149171271,-0.05861077320835026
12.747403314917127,-0.13459998387784392
12.780773480662985,-0.1443161606948829
12.81414364640884,-0.11543741223904319
12.847513812154697,-0.07573238419072187
12.880883977900554,-0.044833767173491475
12.91425414364641,-0.03261777792023327
12.947624309392266,-0.04259453163796316
12.980994475138122,-0.07616668027364128
13.01436464088398,-0.1339176737037517
13.047734806629835,-0.2128746815460319
13.081104972375691,-0.3021168698536442
13.114475138121549,-0.3809684889801306
13.147845303867404,-0.42305778469240535
13.18121546961326,-0.40614998403529917
13.214585635359118,-0.3237652473158028
13.247955801104974,-0.19247893784065476
13.28132596685083,-0.049898744292549806
13.314696132596685,0.05763957018158293
13.348066298342543,0.09346852571985662
13.381436464088399,0.04718398861357962
13.414806629834255,-0.058690302918354934
13.448176795580112,-0.1763402149595965
13.481546961325968,-0.25255918680993644
13.514917127071824,-0.2525969325220589
13.548287292817681,-0.17669174480422892
13.581657458563537,-0.06041738461231913
13.615027624309393,0.04266210606463539
13.648397790055249,0.08840062851152837
13.681767955801106,0.06579768671234379
13.715138121546962,0.004066722018599551
13.748508287292818,-0.04190515625594834
13.781878453038676,-0.021201805993214553
13.815248618784532,0.08355194382615488
13.848618784530387,0.24272748795645935
13.881988950276245,0.39052793588357715
13.9153591160221,0.4557077534740273
13.948729281767957,0.39704904967141
13.982099447513813,0.22544726561291276
14.01546961325967,0.0009453190169620529
14.048839779005526,-0.19419117913709616
14.082209944751382,-0.2929317707460521
14.11558011049724,-0.27273161841359234
14.148950276243095,-0.1623956184369102
14.182320441988951,-0.024259735887245858
14.215690607734807,0.07794987868854081
14.249060773480664,0.10857954028752534
14.28243093922652,0.07244012939211555
14.315801104972376,0.005649724345422338
14.349171270718234,-0.04807288156467433
14.38254143646409,-0.06177795838412416
14.415911602209945,-0.03737639211574828
14.449281767955803,-0.00013598796281404018
14.482651933701659,0.019927145130777608
14.516022099447515,0.008474924536467199
14.54939226519337,-0.02271579252626022
14.582762430939228,-0.041366414787355366
14.616132596685084,-0.01347667035495087
14.64950276243094,0.0750899108167182
14.682872928176797,0.20652970822886782
14.716243093922653,0.33598186383355594
14.749613259668509,0.41159159786175714
14.782983425414367,0.3994799463470777
14.816353591160222,0.3004531835034815
14.849723756906078,0.1496870635194433
14.883093922651934,-0.00024033378286957406
14.916464088397792,-0.10395464790699874
14.949834254143648,-0.14309502344218117
14.983204419889503,-0.13214120493022985
15.016574585635361,-0.10862040471647198
15.049944751381217,-0.11350669777788974
15.083314917127073,-0.1713274019654357
15.116685082872928,-0.2784104731176879
15.150055248618786,-0.40337075814569223
15.183425414364642,-0.49889780510968146
15.216795580110498,-0.5201134699932963
15.250165745856355,-0.44289465113291276
15.283535911602211,-0.27551077441853683
15.316906077348067,-0.05863963869080948
15.350276243093925,0.1475834135334427
15.38364640883978,0.28576975543592986
15.417016574585636,0.3242115324634965
15.450386740331492,0.27016926263872615
15.48375690607735,0.16627767515039124
15.517127071823205,0.07042920901971332
15.550497237569061,0.027991056687165942
15.583867403314919,0.04982809861244257
15.617237569060775,0.10732090681646804
15.65060773480663,0.14722689023617522
15.683977900552488,0.11920756646381543
15.717348066298344,0.0024984811444557845
15.7507182320442,-0.18119422120436235
15.784088397790056,-0.3744798915079062
15.817458563535913,-0.5071385511165954
15.85082872928177,-0.5242867119363079
15.884198895027625,-0.40754321411489614
15.917569060773483,-0.1809858087463828
15.950939226519338,0.09918230406611186
15.984309392265194,0.36569107291453257
16.01767955801105,0.5628629347057644
16.051049723756908,0.6621624778819535
16.084419889502765,0.6656411159512889
16.11779005524862,0.5976086747270137
16.151160220994477,0.4896573453389404
16.18453038674033,0.3664648472727168
16.21790055248619,0.23863430866527413
16.251270718232046,0.10479143741596023
16.2846408839779,-0.039683173404833745
16.318011049723758,-0.19303926176774894
16.351381215469615,-0.3422463634443024
16.38475138121547,-0.46519964325455754
16.418121546961327,-0.5382822755743724
16.451491712707185,-0.5448550750210307
16.48486187845304,-0.48048014588046867
16.518232044198896,-0.35328482214789
16.551602209944754,-0.18085697525727673
16.584972375690608,0.013533739994207993
16.618342541436466,0.20344623588716343
16.651712707182323,0.3607669045334845
16.685082872928177,0.45821644556691066
16.718453038674035,0.4747129380180635
16.751823204419892,0.40313577423774904
16.785193370165747,0.2570211340194067
16.818563535911604,0.07132228671518104
16.851933701657458,-0.1057633196578371
16.885303867403316,-0.22825695241966654
16.918674033149173,-0.2688149172726254
16.952044198895027,-0.22826488898778466
16.985414364640885,-0.13352308503398197
17.018784530386743,-0.025177138577382196
17.052154696132597,0.058721923085382696
17.085524861878454,0.09481779637193746
17.118895027624312,0.0779232078933634
17.152265193370166,0.016543887823036594
17.185635359116024,-0.0747824755657931
17.21900552486188,-0.18114717019997328
17.252375690607735,-0.2886286114586195
17.285745856353593,-0.3828026648344921
