Frequency (Hz),Amplitude
0.0,2.8379091462423807
0.019867549668874173,2.8392144028883743
0.039735099337748346,2.8431214642668468
0.059602649006622516,2.849604343977016
0.07947019867549669,2.8586201901607926
0.09933774834437085,2.870109955039088
0.11920529801324503,2.883999296278784
0.13907284768211922,2.900199677253755
0.15894039735099338,2.91860962782937
0.17880794701986755,2.93911612425255
0.1986754966887417,2.961596046050908
0.2185430463576159,2.9859176693214073
0.23841059602649006,3.011942159057348
0.2582781456953642,3.0395250277691463
0.27814569536423844,3.0685175331135652
0.2980132450331126,3.0987679930917214
0.31788079470198677,3.130123003203058
0.33774834437086093,3.162428545424049
0.3576158940397351,3.195530983786392
0.3774834437086093,3.2292779455181826
0.3973509933774834,3.263519090118258
0.4172185430463576,3.298106771364739
0.4370860927152318,3.3328965991591435
0.45695364238410596,3.3677479093607428
0.4768211920529801,3.4025241504670714
0.49668874172185434,3.4370931962499465
0.5165562913907285,3.4713275933591516
0.5364238410596026,3.505104752551352
0.5562913907284769,3.5383070916661654
0.5761589403973509,3.5708221378234457
0.5960264900662252,3.6025425956063892
0.6158940397350993,3.6333663872669213
0.6357615894039735,3.663196670272265
0.6556291390728477,3.691941836826989
0.6754966887417219,3.719515499366228
0.695364238410596,3.7458364654327556
0.7152317880794702,3.7708287048255698
0.7350993377483444,3.7944213114428984
0.7549668874172186,3.8165484618342984
0.7748344370860927,3.837149372124047
0.7947019867549668,3.856168254664538
0.8145695364238411,3.8735542755214225
0.8344370860927152,3.8892615136754696
0.8543046357615894,3.9032489226456053
0.8741721854304636,3.9154802950879457
0.8940397350993378,3.92592423080379
0.9139072847682119,3.9345541084897837
0.9337748344370861,3.9413480614838683
0.9536423841059603,3.9462889576966944
0.9735099337748344,3.949364383867371
0.9933774834437087,3.950566634242191
1.0132450331125828,3.9498927037424036
1.033112582781457,3.9473442856599346
1.0529801324503312,3.9429277738967237
1.0728476821192052,3.936654269740774
1.0927152317880795,3.9285395931488964
1.1125827814569538,3.918604298480367
1.1324503311258278,3.9068736945944544
1.1523178807947019,3.8933778691866903
1.1721854304635762,3.8781517171905144
1.1920529801324504,3.8612349730105624
1.2119205298013245,3.842672246277744
1.2317880794701985,3.8225130607220836
1.2516556291390728,3.800811895642085
1.271523178807947,3.7776282293069823
1.2913907284768211,3.7530265834545196
1.3112582781456954,3.727076567838908
1.3311258278145695,3.6998529235353113
1.3509933774834437,3.671435563414452
1.370860927152318,3.6419096078587185
1.390728476821192,3.6113654133948185
1.410596026490066,3.579898591464264
1.4304635761589404,3.5476100140399267
1.4503311258278146,3.514605802223417
1.4701986754966887,3.4809972933282705
1.4900662251655628,3.446900981274143
1.5099337748344372,3.412438424400443
1.5298013245033113,3.3777361140730346
1.5496688741721854,3.3429252967339704
1.5695364238410596,3.3081417413693917
1.5894039735099337,3.273525443795561
1.609271523178808,3.2392202587507835
1.6291390728476822,3.205373450608261
1.6490066225165563,3.1721351536801476
1.6688741721854303,3.1396577336658873
1.6887417218543048,3.1080950429099707
1.7086092715231789,3.0776015638775207
1.728476821192053,3.0483314377160893
1.7483443708609272,3.020437378008513
1.7682119205298013,2.9940694738503506
1.7880794701986755,2.969373891160145
1.8079470198675496,2.946491486531627
1.8278145695364238,2.9255563537494433
1.847682119205298,2.9066943290130007
1.8675496688741722,2.8900214865511655
1.8874172185430464,2.8756426612079817
1.9072847682119205,2.863650038245037
1.9271523178807946,2.854121852569643
1.9470198675496688,2.847121239465016
1.9668874172185429,2.842695276412201
1.9867549668874174,2.840874250684872
2.0066225165562916,2.841671180220874
2.0264900662251657,2.8450816062081814
2.0463576158940397,2.851083665449146
2.066225165562914,2.8596384396124863
2.086092715231788,2.8706905677388574
2.1059602649006623,2.884169098600989
2.1258278145695364,2.8999885513919503
2.1456953642384105,2.9180501472039975
2.165562913907285,2.938243170127228
2.185430463576159,2.96044641557421
2.205298013245033,2.984529684450985
2.2251655629139075,3.010355284708088
2.2450331125827816,3.0377795061771034
2.2649006622516556,3.066654039940344
2.2847682119205297,3.0968273193157687
2.3046357615894038,3.1281457654404683
2.324503311258278,3.160454926056139
2.3443708609271523,3.193600501184381
2.364238410596027,3.2274292537654437
2.384105960264901,3.2617898069418443
2.403973509933775,3.2965333324870194
2.423841059602649,3.3315141369497616
2.443708609271523,3.366590153483047
2.463576158940397,3.401623348145841
2.4834437086092715,3.4364800498123933
2.5033112582781456,3.4710312127953045
2.52317880794702,3.5051526209815704
2.543046357615894,3.538725041775806
2.562913907284768,3.571634337512704
2.5827814569536423,3.6037715412966613
2.6026490066225163,3.6350329034953157
2.622516556291391,3.665319914387278
2.642384105960265,3.694539307767373
2.662251655629139,3.722603049659288
2.6821192052980134,3.7494283156868864
2.7019867549668874,3.774937460114553
2.7218543046357615,3.7990579790867467
2.741721854304636,3.8217224701745733
2.76158940397351,3.8428685899709945
2.781456953642384,3.8624390111613067
2.801324503311258,3.880381380227442
2.821192052980132,3.8966482767188424
2.8410596026490067,3.9111971748338044
2.8609271523178808,3.9239904078988768
2.8807947019867552,3.934995136205873
2.9006622516556293,3.9441833185616875
2.9205298013245033,3.9515316878224174
2.9403973509933774,3.9570217306160944
2.9602649006622515,3.9606396714051955
2.9801324503311255,3.9623764609979686
3.0,3.9622277695837447
3.0198675496688745,3.9601939843397966
3.0397350993377485,3.956280211633689
3.0596026490066226,3.950496283822898
3.0794701986754967,3.9428567706313484
3.0993377483443707,3.933380995057871
3.119205298013245,3.9220930537423144
3.1390728476821192,3.9090218416792153
3.1589403973509933,3.894201081123553
3.1788079470198674,3.877669354476317
3.198675496688742,3.8594701408654557
3.218543046357616,3.839651856048188
3.23841059602649,3.8182678951492464
3.2582781456953644,3.7953766776125413
3.2781456953642385,3.771041693577449
3.2980132450331126,3.745331550689843
3.3178807947019866,3.7183200201177864
3.3377483443708607,3.6900860802575903
3.3576158940397347,3.6607139562820517
3.3774834437086096,3.6302931532953377
3.3973509933774837,3.5989184804131646
3.4172185430463577,3.5666900625809634
3.437086092715232,3.5337133363744337
3.456953642384106,3.500099025399729
3.47682119205298,3.4659630902287297
3.4966887417218544,3.431426647080741
3.5165562913907285,3.396615848712584
3.5364238410596025,3.3616617202307078
3.556291390728477,3.3266999418280134
3.576158940397351,3.2918705698228377
3.596026490066225,3.2573176868984417
3.615894039735099,3.2231889721840425
3.6357615894039736,3.1896351818702433
3.6556291390728477,3.1568095315115783
3.6754966887417218,3.1248669721425406
3.695364238410596,3.0939633539257243
3.7152317880794703,3.0642544733557537
3.7350993377483444,3.035895003131066
3.754966887417219,3.0090373077070662
3.774834437086093,2.9838301522311625
3.794701986754967,2.9604173179295663
3.814569536423841,2.938936142876287
3.834437086092715,2.919516013137089
3.854304635761589,2.9022768351660138
3.8741721854304636,2.8873275255817967
3.8940397350993377,2.874764558567605
3.9139072847682117,2.864670613625851
3.9337748344370858,2.85711336684965
3.9536423841059607,2.852144466939466
3.9735099337748347,2.849798732775863
3.993377483443709,2.850093602556702
4.013245033112583,2.8530288556559245
4.033112582781457,2.8585866180127977
4.052980132450331,2.866731650732649
4.072847682119205,2.8774119104790348
4.0927152317880795,2.8905593599646284
4.112582781456953,2.906090998113128
4.132450331125828,2.9239100728053122
4.152317880794702,2.94390743485955
4.172185430463576,2.96596299011484
4.19205298013245,2.989947207047837
4.211920529801325,3.0157226399501114
4.231788079470199,3.0431454318817894
4.251655629139073,3.0720667669079114
4.271523178807947,3.102334247017056
4.291390728476821,3.133793175167172
4.311258278145695,3.166287731726061
4.33112582781457,3.1996620368930353
4.3509933774834435,3.233761096317801
4.370860927152318,3.268431630975676
4.390728476821192,3.3035227953908652
4.410596026490066,3.338886790555159
4.43046357615894,3.3743793794393224
4.450331125827815,3.4098603139342534
4.470198675496689,3.445193682492967
4.490066225165563,3.480248187778158
4.509933774834438,3.5148973633505634
4.529801324503311,3.5490197379482025
4.549668874172186,3.5824989552791258
4.569536423841059,3.615223856540461
4.589403973509934,3.647088532131941
4.6092715231788075,3.677992348287735
4.629139072847682,3.707839953632293
4.649006622516556,3.736541269990904
4.66887417218543,3.7640114711646975
4.688741721854305,3.790170952818529
4.708609271523179,3.814945296129666
4.728476821192054,3.8382652274056777
4.748344370860927,3.86006657549716
4.768211920529802,3.8802902285021097
4.788079470198675,3.8988820909783626
4.80794701986755,3.9157930426440837
4.827814569536423,3.9309788993485912
4.847682119205298,3.944400376931954
4.867549668874172,3.956023058457572
4.887417218543046,3.9658173651927418
4.9072847682119205,3.9737585316242523
4.927152317880794,3.9798265847260805
4.947019867549669,3.98400632764075
4.966887417218543,3.986287327892164
4.986754966887418,3.986663910213066
5.006622516556291,3.9851351540424393
5.026490066225166,3.981704895724451
5.04635761589404,3.9763817354195945
5.066225165562914,3.9691790487173235
5.086092715231788,3.9601150029167616
5.105960264900662,3.9492125779150813
5.125827814569536,3.9364995916096253
5.14569536423841,3.922008729677984
5.1655629139072845,3.90577757954687
5.185430463576159,3.8878486682927824
5.205298013245033,3.86826950413246
5.225165562913908,3.8470926210549594
5.245033112582782,3.824375626015967
5.264900662251656,3.8001812479546864
5.28476821192053,3.774577387699214
5.304635761589404,3.7476371675930142
5.324503311258278,3.719438979397607
5.344370860927152,3.690066528699582
5.364238410596027,3.659608873668491
5.3841059602649,3.628160455571644
5.403973509933775,3.5958211179484385
5.4238410596026485,3.5626961107797306
5.443708609271523,3.528896075356361
5.463576158940397,3.4945370048613693
5.483443708609272,3.459740174940739
5.503311258278146,3.4246320377645634
5.52317880794702,3.3893440722979427
5.543046357615895,3.3540125827432887
5.562913907284768,3.3187784364290973
5.582781456953643,3.2837867318633913
5.602649006622516,3.2491863873178786
5.622516556291391,3.215129640247713
5.642384105960264,3.18177144818335
5.662251655629139,3.1492687825631065
5.682119205298013,3.117779808419563
5.701986754966887,3.0874629449935433
5.7218543046357615,3.0584758053076198
5.741721854304636,3.030974016535002
5.7615894039735105,3.0051099276371698
5.781456953642384,2.981031216134078
5.801324503311259,2.9588794118383683
5.821192052980132,2.938788361658503
5.841059602649007,2.920882665780691
5.860927152317881,2.905276121217229
5.880794701986755,2.892070213345073
5.900662251655629,2.881352699128056
5.920529801324503,2.8731963267460165
5.940397350993377,2.8676577349855443
5.960264900662251,2.8647765717995317
5.980132450331126,2.8645748649627767
6.0,2.867056669029279
6.0198675496688745,2.8722080023614818
6.039735099337749,2.8799970765704628
6.059602649006623,2.8903748091066612
6.079470198675497,2.903275598824335
6.099337748344371,2.9186183348783303
6.119205298013245,2.9363076019074628
6.139072847682119,2.9562350395004513
6.158940397350993,2.978280811567379
6.178807947019867,3.0023151413555573
6.198675496688741,3.028199870157249
6.218543046357616,3.0557900018220567
6.23841059602649,3.0849352004981347
6.258278145695365,3.1154812150600018
6.2781456953642385,3.1472712099529714
6.298013245033113,3.180146988287344
6.317880794701987,3.213950098637943
6.337748344370861,3.2485228219349276
6.357615894039735,3.2837090389543473
6.377483443708609,3.3193549821950232
6.397350993377484,3.3553098783885575
6.417218543046357,3.391426489601523
6.437086092715232,3.427561561949914
6.456953642384105,3.4635761914642673
6.47682119205298,3.499336116730076
6.496688741721854,3.534711947685644
6.516556291390729,3.5695793394807493
6.5364238410596025,3.6038191196639304
6.556291390728477,3.6373173762373945
6.5761589403973515,3.66996551334864
6.596026490066225,3.701660280614203
6.6158940397351,3.7323037813221185
6.635761589403973,3.7618034640544695
6.655629139072848,3.7900721016210546
6.675496688741721,3.8170277606068446
6.695364238410596,3.8425937643112307
6.715231788079469,3.8666986513951445
6.735099337748344,3.889276132150709
6.754966887417219,3.9102650439622977
6.774834437086093,3.9296093072338
6.794701986754967,3.947257882808272
6.814569536423841,3.9631647316986065
6.8344370860927155,3.97728877777632
6.854304635761589,3.989593873924364
6.874172185430464,4.000048772045816
6.894039735099337,4.008627097228385
6.913907284768212,4.015307326291765
6.933774834437086,4.020072770887445
6.95364238410596,4.022911565275551
6.973509933774834,4.02381665886833
6.993377483443709,4.02278581360176
7.013245033112583,4.019821606174366
7.033112582781457,4.014931435172008
7.052980132450331,4.0081275330780235
7.072847682119205,3.9994269831475577
7.0927152317880795,3.9888517411003765
7.112582781456954,3.9764286615562376
7.132450331125828,3.9621895290983975
7.152317880794702,3.9461710938013788
7.172185430463576,3.928415110995861
7.19205298013245,3.9089683849633508
7.211920529801324,3.8878828161520036
7.231788079470198,3.8652154513800427
7.251655629139073,3.841028536337933
7.271523178807947,3.8153895695125515
7.291390728476822,3.78837135642896
7.311258278145695,3.760052062833444
7.33112582781457,3.7305152651191955
7.3509933774834435,3.699849995918312
7.370860927152318,3.6681507823448647
7.390728476821192,3.635517673869658
7.410596026490066,3.6020562562358593
7.430463576158941,3.5678776471836904
7.450331125827814,3.53309846904769
7.470198675496689,3.4978407925263975
7.490066225165562,3.4622320451184634
7.509933774834438,3.4264048768910755
7.52980132450331,3.390496975430475
7.549668874172186,3.3546508210629153
7.569536423841059,3.319013372786753
7.589403973509934,3.2837356748946855
7.6092715231788075,3.2489723740795
7.629139072847682,3.214881137008382
7.649006622516557,3.1816219590342834
7.66887417218543,3.149356356008265
7.6887417218543055,3.1182464331765276
7.708609271523178,3.0884538279900435
7.728476821192054,3.0601385273849266
7.748344370860927,3.033457564720388
7.768211920529802,3.008563607023789
7.788079470198675,2.9856034493368147
7.80794701986755,2.9647164395196803
7.827814569536423,2.9460328634878503
7.847682119205298,2.9296723270560907
7.8675496688741715,2.9157421758147115
7.887417218543046,2.9043359981963808
7.907284768211921,2.895532258584586
7.927152317880795,2.8893931065425473
7.9470198675496695,2.885963404760792
7.966887417218543,2.8852700121161585
7.986754966887418,2.8873213495540715
8.006622516556291,2.8921072658552576
8.026490066225167,2.8995992084547324
8.046357615894038,2.9097506922093292
8.066225165562914,2.922498047273268
8.086092715231787,2.937761416885915
8.105960264900663,2.955445967593036
8.125827814569536,2.975443268674067
8.14569536423841,2.9976327945339944
8.165562913907285,3.021883503480552
8.185430463576159,3.0480554483644426
8.205298013245034,3.076001378567565
8.225165562913906,3.1055682982468595
8.245033112582782,3.136598952016841
8.264900662251655,3.1689332158578485
8.28476821192053,3.202409377519605
8.304635761589404,3.236865296703307
8.324503311258278,3.2721394406093838
8.344370860927151,3.3080717948961156
8.364238410596027,3.344504653657967
8.3841059602649,3.3812832947222558
8.403973509933774,3.418256548449582
8.42384105960265,3.4552772694074068
8.443708609271523,3.4922027208831765
8.463576158940398,3.528894882330973
8.483443708609272,3.5652206896153587
8.503311258278146,3.6010522174277626
8.52317880794702,3.636266812589883
8.543046357615895,3.6707471861951024
8.562913907284768,3.7043814717278885
8.582781456953642,3.7370632554850696
8.602649006622515,3.7686915848309304
8.62251655629139,3.799170959072271
8.642384105960264,3.8284113070512165
8.66225165562914,3.8563279549311806
8.682119205298013,3.8828415870959234
8.701986754966887,3.907878202593771
8.721854304635762,3.9313690691340595
8.741721854304636,3.9532506762788557
8.76158940397351,3.973464689161569
8.781456953642383,3.991957903803092
8.801324503311259,4.008682204877486
8.821192052980132,4.023594526598641
8.841059602649008,4.036656817252026
8.86092715231788,4.047836007776028
8.880794701986755,4.05710398470176
8.90066225165563,4.064437567684872
8.920529801324504,4.069818491803707
8.940397350993377,4.073233394752513
8.960264900662251,4.0746738090233325
8.980132450331126,4.074136159143121
9.0,4.071621764010936
9.019867549668875,4.0671368443621025
9.039735099337747,4.060692535368757
9.059602649006623,4.052304904368774
9.079470198675496,4.041994973693243
9.099337748344372,4.029788748536558
9.119205298013245,4.015717249778476
9.139072847682119,3.9998165516224526
9.158940397350994,3.982127823856315
9.178807947019868,3.962697378465961
9.198675496688743,3.9415767202373027
9.218543046357615,3.9188226008618265
9.23841059602649,3.8944970759119997
9.258278145695364,3.868667563870042
9.27814569536424,3.8414069061710037
9.298013245033111,3.81279342695362
9.317880794701987,3.7829109908933627
9.33774834437086,3.7518490571153054
9.357615894039736,3.7197027267446137
9.37748344370861,3.6865727811433993
9.397350993377483,3.652565707301468
9.417218543046358,3.6177937061924794
9.437086092715232,3.582374679178326
9.456953642384107,3.5464321867485147
9.47682119205298,3.5100953730308486
9.496688741721854,3.4734988486235765
9.516556291390728,3.4367825234094536
9.536423841059603,3.4000913801600054
9.556291390728477,3.3635751789808848
9.57615894039735,3.327388082061355
9.596026490066224,3.291688187860065
9.6158940397351,3.256636963895218
9.635761589403973,3.2223985678277165
9.655629139072847,3.189139047662235
9.675496688741722,3.1570254137703406
9.695364238410596,3.1262245781778106
9.715231788079471,3.0969021602396096
9.735099337748345,3.069221162484237
9.754966887417218,3.043340526005141
9.774834437086092,3.0194135811750624
9.794701986754967,2.997586416413713
9.814569536423841,2.977996194882491
9.834437086092716,2.9607694558323154
9.854304635761588,2.946020443322843
9.874172185430464,2.933849509550274
9.894039735099337,2.924341642473836
9.913907284768213,2.917565167318379
9.933774834437086,2.913570668530201
9.95364238410596,2.9123901727902983
9.973509933774835,2.9140366249462883
9.993377483443709,2.91850367770116
10.013245033112582,2.925765803337986
10.033112582781456,2.9357787225867233
10.052980132450331,2.948480132944276
10.072847682119205,2.9637907072924463
10.09271523178808,2.981615324310405
10.112582781456952,3.0018444855053206
10.132450331125828,3.024355869954074
10.152317880794701,3.049015977043543
10.172185430463577,3.0756818093430662
10.192052980132452,3.104202551779487
10.211920529801324,3.1344212089359624
10.2317880794702,3.1661761689489016
10.251655629139073,3.1993026695515314
10.271523178807948,3.2336341488064106
10.29139072847682,3.269003469588972
10.311258278145695,3.3052440126578153
10.331125827814569,3.342190638013538
10.350993377483444,3.3796805181480916
10.370860927152318,3.417553849736943
10.390728476821192,3.4556544524016255
10.410596026490065,3.493830264477676
10.43046357615894,3.531933746389714
10.450331125827816,3.5698222023875616
10.470198675496688,3.6073580311594595
10.490066225165563,3.6444089153184924
10.509933774834437,3.6808479590495833
10.529801324503312,3.716553782385007
10.549668874172186,3.751410579704879
10.56953642384106,3.7853081491822134
10.589403973509933,3.8181418990426566
10.609271523178808,3.849812835708862
10.629139072847682,3.8802275381628064
10.649006622516556,3.9092981221935066
10.66887417218543,3.9369421976049987
10.688741721854305,3.963082820938907
10.70860927152318,3.9876484458148758
10.728476821192054,4.010572872604244
10.748344370860927,4.031795198823956
10.7682119205298,4.051259771360796
10.788079470198676,4.06891614140607
