Time (s),Filtered Signal
0.0,0.01581298359337553
0.033370165745856356,0.16524001610134137
0.06674033149171271,0.28049344328429593
0.10011049723756907,0.34912589837994507
0.13348066298342542,0.38964142822956477
0.16685082872928178,0.4430123001413197
0.20022099447513814,0.5494216561639287
0.2335911602209945,0.7215229125708631
0.26696132596685085,0.9283419792212834
0.30033149171270723,1.0997092903018824
0.33370165745856356,1.1514402363738285
0.3670718232044199,1.0209968514683205
0.4004419889502763,0.6974489233116135
0.43381215469613266,0.23151456026556452
0.467182320441989,-0.27943197991003144
0.5005524861878453,-0.7248207583528935
0.5339226519337017,-1.0180091973842484
0.5672928176795581,-1.1215366267445865
0.6006629834254145,-1.0516676433379355
0.6340331491712707,-0.8634570836831432
0.6674033149171271,-0.6256329868660127
0.7007734806629835,-0.3970000486221206
0.7341436464088398,-0.2126782924962565
0.7675138121546962,-0.08220407131330719
0.8008839779005525,0.0038578350764933095
0.8342541436464089,0.06417319659862572
0.8676243093922653,0.11787242123085612
0.9009944751381216,0.17824083587144085
0.934364640883978,0.24862707243403318
0.9677348066298344,0.320470143540317
1.0011049723756906,0.374491926868125
1.0344751381215471,0.3864410380618552
1.0678453038674034,0.33711546861644753
1.1012154696132597,0.22334448565120146
1.1345856353591162,0.06438392412123067
1.1679558011049724,-0.10100979995014632
1.201325966850829,-0.22734994315086401
1.2346961325966852,-0.28007745513541676
1.2680662983425415,-0.24979506428290674
1.301436464088398,-0.15588454118502015
1.3348066298342542,-0.03753716487382232
1.3681767955801105,0.06336770321740921
1.401546961325967,0.11914090474127613
1.4349171270718233,0.12512106056479885
1.4682872928176796,0.09726375830320963
1.501657458563536,0.0611171942479554
1.5350276243093923,0.038712550582717276
1.5683977900552488,0.039987693199260786
1.601767955801105,0.062020624272615156
1.6351381215469614,0.09474384527516748
1.6685082872928179,0.12856466255571142
1.7018784530386741,0.15904785290726
1.7352486187845306,0.18634641140853403
1.768618784530387,0.21066150929726793
1.8019889502762432,0.22748369951555958
1.8353591160220997,0.2263444094988998
1.868729281767956,0.19446282750179555
1.9020994475138122,0.12351483687022789
1.9354696132596687,0.015676238941956466
1.968839779005525,-0.11469963978929473
2.0022099447513813,-0.24506804577176372
2.0355801104972375,-0.35253981076488417
2.0689502762430942,-0.4217236135072761
2.1023204419889505,-0.44884552443216763
2.135690607734807,-0.44064294684436645
2.169060773480663,-0.4094429318887523
2.2024309392265193,-0.3676867558050621
2.235801104972376,-0.3248844464224566
2.2691712707182323,-0.28784958827748125
2.3025414364640886,-0.26252620994371095
2.335911602209945,-0.2545075085937226
2.369281767955801,-0.26637753008178156
2.402651933701658,-0.29273479396069807
2.436022099447514,-0.31639680973759715
2.4693922651933704,-0.3098637741839021
2.5027624309392267,-0.243785956972291
2.536132596685083,-0.0999543864159541
2.5695027624309392,0.11727808931204536
2.602872928176796,0.37772323893839094
2.636243093922652,0.6333451744034672
2.6696132596685085,0.8348557618362754
2.7029834254143648,0.9494752955313135
2.736353591160221,0.9715125265944639
2.7697237569060777,0.9210595824293158
2.803093922651934,0.8322380272066686
2.8364640883977903,0.7375736139780937
2.8698342541436466,0.6563814123075815
2.903204419889503,0.5919752840708356
2.936574585635359,0.5370773109504049
2.969944751381216,0.48229506828374225
3.003314917127072,0.42159935262781806
3.0366850828729284,0.35178071870226246
3.0700552486187846,0.2677897887714602
3.103425414364641,0.15930931715479763
3.1367955801104976,0.01334246130428143
3.170165745856354,-0.17692659151515908
3.20353591160221,-0.4024102577670271
3.2369060773480665,-0.6357063711534279
3.2702762430939227,-0.8413215574585914
3.3036464088397794,-0.9960637336552084
3.3370165745856357,-1.1086500354744762
3.370386740331492,-1.2241219139472561
3.4037569060773483,-1.4040228401028592
3.4371270718232045,-1.68638934799629
3.4704972375690613,-2.044029467294706
3.5038674033149175,-2.3664553020241126
3.537237569060774,-2.48395786869083
3.57060773480663,-2.232567762926161
3.6039779005524863,-1.5350697701048628
3.6373480662983426,-0.45905373032580454
3.6707182320441993,0.7818039135780664
3.7040883977900556,1.892407718799209
3.737458563535912,2.603523155222084
3.770828729281768,2.775292211727582
3.8041988950276244,2.4501519968394305
3.837569060773481,1.8312582969511129
3.8709392265193374,1.1968680557245395
3.9043093922651937,0.7893728557476142
3.93767955801105,0.726546248195722
3.9710497237569062,0.9694775640572931
4.0044198895027625,1.3546952947595654
4.037790055248619,1.6706755170111531
4.071160220994475,1.7432850002886346
4.104530386740332,1.49592807755194
4.1379005524861885,0.9652737469518979
4.171270718232044,0.27385201022095057
4.204640883977901,-0.42288834343632636
4.238011049723757,-0.9911671122759079
4.271381215469614,-1.3553945504324254
4.30475138121547,-1.5076580228761227
4.338121546961326,-1.4929002230763746
4.371491712707183,-1.380585952689811
4.404861878453039,-1.2359996391584538
4.438232044198895,-1.1013787591348265
4.471602209944752,-0.9910423299953979
4.504972375690608,-0.8983444337183798
4.538342541436465,-0.8081342737061783
4.5717127071823205,-0.7077385839323947
4.605082872928177,-0.5920379990856425
4.638453038674034,-0.46234737301603623
4.67182320441989,-0.3222841955988882
4.7051933701657465,-0.1748434357861242
4.738563535911602,-0.023111676493904325
4.771933701657459,0.12626751576655293
4.805303867403316,0.26035545912812624
4.8386740331491715,0.3613956287311699
4.872044198895028,0.41327788495391565
4.905414364640884,0.41010068589065474
4.938784530386741,0.36188587739031575
4.972154696132597,0.29355963009589714
5.005524861878453,0.23687616653497384
5.03889502762431,0.2187750563192994
5.072265193370166,0.2514574637677046
5.105635359116023,0.3284145658360881
5.1390055248618784,0.4276445022284722
5.172375690607735,0.520137044700832
5.205745856353592,0.5798806753290188
5.239116022099448,0.591644834149511
5.272486187845304,0.554143738644347
5.30585635359116,0.47805269524730915
5.339226519337017,0.3800809373008357
5.372596685082874,0.2756038517583468
5.4059668508287295,0.1729836959221067
5.439337016574586,0.07227363511464155
5.472707182320442,-0.030787515326921127
5.506077348066299,-0.1373623476744979
5.5394475138121555,-0.23904557301939675
5.572817679558011,-0.31719932791838074
5.606187845303868,-0.3504769275914162
5.639558011049724,-0.32818204869744044
5.672928176795581,-0.2625464037661759
5.706298342541437,-0.19156927212280295
5.739668508287293,-0.16741955721502044
5.77303867403315,-0.2326469578782436
5.806408839779006,-0.39415317033737945
5.839779005524862,-0.6086382039310225
5.873149171270718,-0.7900761497937029
5.906519337016575,-0.8401288849691779
5.939889502762432,-0.6905313801439649
5.9732596685082875,-0.33862753947900326
6.006629834254144,0.14173190600663566
6.04,0.6213792132832595
6.073370165745857,0.9616718377183741
6.1067403314917135,1.0656972877205928
6.140110497237569,0.9129177933294055
6.173480662983426,0.5632202600652717
6.206850828729282,0.13049068432247857
6.240220994475139,-0.26104289552234555
6.273591160220995,-0.5185906269781456
6.306961325966851,-0.6049484726193828
6.340331491712708,-0.5389671943702024
6.373701657458564,-0.3768560059845638
6.40707182320442,-0.18535276035632817
6.440441988950277,-0.0183166294409301
6.473812154696133,0.09591911778834063
6.50718232044199,0.15503237015073826
6.5405524861878455,0.17439089117457257
6.573922651933702,0.17535106398703665
6.607292817679559,0.1750833155869926
6.640662983425415,0.1808330458838814
6.674033149171271,0.18932034696853783
6.707403314917127,0.19035610293389202
6.740773480662984,0.17286184314808134
6.774143646408841,0.1311246194841165
6.8075138121546965,0.06912333394349698
6.840883977900553,0.0011752893097894577
6.874254143646409,-0.051866254058602096
6.907624309392266,-0.07008106772605802
6.9409944751381225,-0.04311361185627871
6.974364640883978,0.023642440902786534
7.007734806629835,0.10859156330175287
7.041104972375691,0.18045315927272895
7.074475138121548,0.20984873159102163
7.107845303867403,0.18128503110932703
7.14121546961326,0.1000295003077086
7.174585635359117,-0.009727312566780616
7.207955801104973,-0.1150457382966271
7.241325966850829,-0.18822167992910474
7.274696132596685,-0.217977661055572
7.308066298342542,-0.21253422830373486
7.341436464088399,-0.19334959557197792
7.3748066298342545,-0.18308303539453294
7.408176795580111,-0.19411712690061453
7.441546961325967,-0.22325539434903008
7.474917127071824,-0.25455768204393114
7.5082872928176805,-0.26793432621220603
7.541657458563536,-0.24856432829921948
7.575027624309393,-0.19260979529933112
7.608397790055249,-0.10738389605048478
7.641767955801106,-0.007209652180943179
7.675138121546962,0.09207784763515058
7.708508287292818,0.17729096240511152
7.741878453038675,0.23958609728516306
7.775248618784531,0.2742185246748424
7.808618784530387,0.2796580016154607
7.841988950276244,0.25710181226754103
7.8753591160221,0.21057475413852925
7.908729281767957,0.14705939871249232
7.9420994475138125,0.07592433181082683
7.975469613259669,0.007352335758159566
8.008839779005525,-0.049828859693260626
8.042209944751383,-0.09002287087868265
8.075580110497238,-0.11160405345540804
8.108950276243094,-0.11623836582267985
8.14232044198895,-0.10724248975155828
8.175690607734808,-0.0879000897190031
8.209060773480664,-0.060561832285553605
8.24243093922652,-0.026787172302902444
8.275801104972377,0.011879864637026215
8.309171270718233,0.05324341959642162
8.342541436464089,0.09444060352421081
8.375911602209946,0.13254011640820978
8.409281767955802,0.16517080962562736
8.442651933701658,0.19051561994352303
8.476022099447514,0.20652531776304095
8.509392265193371,0.2100044007822847
8.542762430939227,0.19666497310921063
8.576132596685083,0.16282611283240161
8.60950276243094,0.1082397208720233
8.642872928176796,0.038323721930874056
8.676243093922652,-0.03611812233984778
8.709613259668508,-0.10236571511440369
8.742983425414366,-0.1510378939984736
8.776353591160222,-0.18021494309745364
8.809723756906077,-0.19577065159160267
8.843093922651935,-0.20735019067432514
8.87646408839779,-0.22210599578652315
8.909834254143647,-0.23983111093451787
8.943204419889504,-0.2524812356379324
8.97657458563536,-0.2485966646222089
9.009944751381216,-0.22028060260298565
9.043314917127072,-0.1688165388860214
9.07668508287293,-0.10561459998085322
9.110055248618785,-0.047644585931849975
9.143425414364641,-0.009511274663958454
9.176795580110499,0.003760309209992038
9.210165745856354,-0.0006158908248758377
9.24353591160221,-0.0066438284428641525
9.276906077348068,0.0024994194004838003
9.310276243093924,0.03601958489199666
9.34364640883978,0.09087493066791466
9.377016574585635,0.15325325483782595
9.410386740331493,0.20522748438312563
9.443756906077349,0.23303525060838273
9.477127071823205,0.23284684928310836
9.510497237569062,0.21153061921843086
9.543867403314918,0.1826420725098759
9.577237569060774,0.16001264794121017
9.610607734806631,0.1518776963786891
9.643977900552487,0.15760427294243637
9.677348066298343,0.16769957978105743
9.710718232044199,0.16677799527664836
9.744088397790057,0.1387276989389068
9.777458563535912,0.07302839249353245
9.810828729281768,-0.02937264401764269
9.844198895027626,-0.1528472901411973
9.877569060773482,-0.268758417086794
9.910939226519337,-0.3429700863028049
9.944309392265193,-0.3477116328919967
9.97767955801105,-0.2737325382098411
10.011049723756907,-0.1374308000036735
10.044419889502763,0.021246891466151798
10.07779005524862,0.1509158560941314
10.111160220994476,0.20723383163239176
10.144530386740332,0.1706926380620475
10.17790055248619,0.05605371233779336
10.211270718232045,-0.09137702200867609
10.244640883977901,-0.2120727792685117
10.278011049723757,-0.25509375726123346
10.311381215469615,-0.19814711538999455
10.34475138121547,-0.05657381150670429
10.378121546961326,0.12243690333273363
10.411491712707184,0.2778493735229547
10.44486187845304,0.3574072479375535
10.478232044198895,0.3356969594296618
10.511602209944753,0.22088520069955014
10.544972375690609,0.048525641957402166
10.578342541436465,-0.13372688741885788
10.61171270718232,-0.283362801169512
10.645082872928178,-0.37523163125395864
10.678453038674034,-0.4048984419068211
10.71182320441989,-0.3837270856939669
10.745193370165747,-0.3297199221722563
10.778563535911603,-0.25912379722816326
10.811933701657459,-0.18222068168341551
10.845303867403315,-0.10377325042806847
10.878674033149172,-0.02606224822522106
10.912044198895028,0.04835937969366111
10.945414364640884,0.1160158530660322
10.978784530386742,0.17384142186351265
11.012154696132598,0.2209269282297876
11.045524861878453,0.25900168686815395
11.078895027624311,0.2910595695025643
11.112265193370167,0.3189333211602334
11.145635359116023,0.3413851894380201
11.179005524861878,0.3540042166246007
11.212375690607736,0.3511308336038438
11.245745856353592,0.3288240691259013
11.279116022099448,0.28722514909539054
11.312486187845305,0.23093617854320314
11.345856353591161,0.16712861368348192
11.379226519337017,0.10245364800148396
11.412596685082875,0.040641548997664326
11.44596685082873,-0.017647833805149712
11.479337016574586,-0.07258586647987295
11.512707182320442,-0.1221493049009385
11.5460773480663,-0.16082163364301683
11.579447513812156,-0.18183131586502022
11.612817679558011,-0.18256928731971922
11.646187845303869,-0.17033539403957595
11.679558011049725,-0.16430345759676013
11.71292817679558,-0.19066284191989905
11.746298342541436,-0.27119137473269267
11.779668508287294,-0.40957487992689223
11.81303867403315,-0.5823629588086275
11.846408839779006,-0.7406747491371555
11.879779005524863,-0.8243669973398103
11.91314917127072,-0.7841676222045502
11.946519337016575,-0.6024874558613277
11.979889502762433,-0.30317631359173114
12.013259668508288,0.05484200915124559
12.046629834254144,0.3975171964316716
12.08,0.66023253037857
12.113370165745858,0.8063379069421025
12.146740331491714,0.8328626914823435
12.18011049723757,0.7634316394009347
12.213480662983427,0.6341291388690365
12.246850828729283,0.479798567985924
12.280220994475139,0.325928615321857
12.313591160220996,0.18710928465068374
12.346961325966852,0.06975690312474313
12.380331491712708,-0.02414064900541239
12.413701657458564,-0.09445335490480528
12.447071823204421,-0.14201310929143848
12.480441988950277,-0.16875764072675112
12.513812154696133,-0.17805235911934494
12.54718232044199,-0.17463646583186102
12.580552486187846,-0.16398564648376346
12.613922651933702,-0.15108543303813385
12.64729281767956,-0.13879063523750898
12.680662983425416,-0.12624478360185
12.714033149171271,-0.10817577933394017
12.747403314917127,-0.07599720033206595
12.780773480662985,-0.021236930205699084
12.81414364640884,0.0592077588316486
12.847513812154697,0.1578466453320889
12.880883977900554,0.2542611251027
12.91425414364641,0.3182869082163541
12.947624309392266,0.3193971406957901
12.980994475138122,0.23975367028542982
13.01436464088398,0.08544619238377867
13.047734806629835,-0.11027826029105042
13.081104972375691,-0.295318117782948
13.114475138121549,-0.4167240681136933
13.147845303867404,-0.4411870512064134
13.18121546961326,-0.368560654956465
13.214585635359118,-0.23166687430333907
13.247955801104974,-0.08216503024022825
13.28132596685083,0.030865063448505755
13.314696132596685,0.07958093184087943
13.348066298342543,0.06510399032585676
13.381436464088399,0.012024918476399634
13.414806629834255,-0.04609499123252601
13.448176795580112,-0.08229823364916192
13.481546961325968,-0.08561738969369852
13.514917127071824,-0.06116343294470285
13.548287292817681,-0.02287294156566769
13.581657458563537,0.01585772512827935
13.615027624309393,0.04836102754643096
13.648397790055249,0.07511875748476973
13.681767955801106,0.09946585303612707
13.715138121546962,0.12216186402499574
13.748508287292818,0.13863354834923114
13.781878453038676,0.14072785792517215
13.815248618784532,0.1219132150071516
13.848618784530387,0.08268407032924346
13.881988950276245,0.03267299267148391
13.9153591160221,-0.012205574105901963
13.948729281767957,-0.03639950796916106
13.982099447513813,-0.03173473831826341
14.01546961325967,-0.0010976809589064722
14.048839779005526,0.04307590334667941
14.082209944751382,0.08449421192762825
14.11558011049724,0.10970423104031324
14.148950276243095,0.11240026884520585
14.182320441988951,0.0937076284237786
14.215690607734807,0.059288865285116454
14.249060773480664,0.015753078023772977
14.28243093922652,-0.03129498262064611
14.315801104972376,-0.07686707826673345
14.349171270718234,-0.11507435623725638
14.38254143646409,-0.138548871790735
14.415911602209945,-0.14012284510094156
14.449281767955803,-0.11627315074816229
14.482651933701659,-0.07023744016679973
14.516022099447515,-0.012473938736964962
14.54939226519337,0.042475051748587844
14.582762430939228,0.08149052999569342
14.616132596685084,0.09798447105582435
14.64950276243094,0.09392352013021993
14.682872928176797,0.07775608889757361
14.716243093922653,0.059448727218919195
14.749613259668509,0.045292359922371274
14.782983425414367,0.035083104245336144
14.816353591160222,0.022913621205890033
14.849723756906078,0.0010051981269987229
14.883093922651934,-0.03530935183391715
14.916464088397792,-0.08371275323594847
14.949834254143648,-0.1338958167630585
14.983204419889503,-0.17013025678074858
15.016574585635361,-0.17687804155612372
15.049944751381217,-0.1456584783268464
15.083314917127073,-0.08050095078298852
15.116685082872928,0.0007608226402952283
15.150055248618786,0.07093096726236958
15.183425414364642,0.10289483411437614
15.216795580110498,0.08073821297837089
15.250165745856355,0.007729660063346772
15.283535911602211,-0.09292005461378296
15.316906077348067,-0.18563929032198517
15.350276243093925,-0.23563424292598506
15.38364640883978,-0.22200496636735256
15.417016574585636,-0.14515797552512735
15.450386740331492,-0.025566811835590453
15.48375690607735,0.10496539003095245
15.517127071823205,0.2151219579464538
15.550497237569061,0.28375782950935086
15.583867403314919,0.3040655722535292
15.617237569060775,0.28194155350622635
15.65060773480663,0.23081944045620417
15.683977900552488,0.1660267819574723
15.717348066298344,0.10080142730725712
15.7507182320442,0.044494820299497084
15.784088397790056,0.002316336796768497
15.817458563535913,-0.02426818269114875
15.85082872928177,-0.036953875818502825
15.884198895027625,-0.03983379831421678
15.917569060773483,-0.038332618014567964
15.950939226519338,-0.037882722357449966
15.984309392265194,-0.0425678396045928
16.01767955801105,-0.05397213853928736
16.051049723756908,-0.07040216664190173
16.084419889502765,-0.08668934392763425
16.11779005524862,-0.09495435869151911
16.151160220994477,-0.08675134491479478
16.18453038674033,-0.056558883471312944
16.21790055248619,-0.005628314829014021
16.251270718232046,0.05571942350136123
16.2846408839779,0.10930087440008268
16.318011049723758,0.13443327119483642
16.351381215469615,0.11590878170478704
16.38475138121547,0.05119626238051955
16.418121546961327,-0.04672015847698464
16.451491712707185,-0.15266685506330568
16.48486187845304,-0.2376694764956282
16.518232044198896,-0.2788946911838199
16.551602209944754,-0.26702297011418513
16.584972375690608,-0.208318803879096
16.618342541436466,-0.1211367372052062
16.651712707182323,-0.028817234518634577
16.685082872928177,0.048043341571329494
16.718453038674035,0.09725527744754063
16.751823204419892,0.11709088465318356
16.785193370165747,0.11460336698529763
16.818563535911604,0.1012924992137788
16.851933701657458,0.0879503021876853
16.885303867403316,0.0806563789267306
16.918674033149173,0.07936279484280366
16.952044198895027,0.0794283497072386
16.985414364640885,0.0751843215218519
17.018784530386743,0.063675770405668
17.052154696132597,0.04662660691441116
17.085524861878454,0.02958140027870323
17.118895027624312,0.01870214981462464
17.152265193370166,0.01704032311825081
17.185635359116024,0.022469485893197957
17.21900552486188,0.028572412096610898
