Frequency (Hz),Amplitude
0.0,8.095179570333215
0.01993355481727575,8.091181625738816
0.0398671096345515,8.07919174187429
0.059800664451827246,8.059221764657137
0.079734219269103,8.031291424493046
0.09966777408637874,7.99542831710803
0.11960132890365449,7.951667876748194
0.13953488372093023,7.900053341782387
0.159468438538206,7.840635712753307
0.17940199335548174,7.773473702933715
0.19933554817275748,7.698633681455808
0.21926910299003324,7.616189609094065
0.23920265780730898,7.526222966794825
0.25913621262458475,7.42882267706037
0.27906976744186046,7.3240850183110675
0.29900332225913623,7.212113532367116
0.318936877076412,7.0930189252120295
0.3388704318936877,6.9669189612242395
0.3588039867109635,6.833938351091994
0.37873754152823924,6.694208633661731
0.39867109634551495,6.547868052013574
0.4186046511627907,6.395061424112027
0.4385382059800665,6.235940008449969
0.4584717607973422,6.070661365194659
0.47840531561461797,5.899389213464525
0.49833887043189373,5.722293285526148
0.5182724252491695,5.539549178919168
0.5382059800664452,5.351338207818659
0.5581395348837209,5.15784725536647
0.5780730897009968,4.959268629304042
0.5980066445182725,4.755799924107368
0.6179401993355482,4.547643894101843
0.637873754152824,4.335008343947084
0.6578073089700996,4.118106045803363
0.6777408637873754,3.897154697052285
0.6976744186046512,3.672376939736149
0.717607973421927,3.4440004748512125
0.7375415282392027,3.2122583248716494
0.7574750830564785,2.9773893332690964
0.7774086378737541,2.73963905405284
0.7973421926910299,2.4992613062448883
0.8172757475083057,2.256520911420404
0.8372093023255814,2.0116986476139194
0.8571428571428572,1.765100624978767
0.877076411960133,1.517077198722179
0.8970099667774087,1.268064596700609
0.9169435215946844,1.018688181227614
0.9368770764119602,0.7700659592305059
0.9568106312292359,0.5249620220798824
0.9767441860465116,0.29452167175819777
0.9966777408637875,0.1650284187493852
1.0166112956810631,0.3119417594907042
1.036544850498339,0.5447013957117346
1.0564784053156147,0.7903393459991277
1.0764119601328903,1.0391516043970064
1.0963455149501662,1.2886095866843592
1.1162790697674418,1.5376580244191247
1.1362126245847177,1.7856937212894268
1.1561461794019936,2.0322898126907023
1.176079734219269,2.2771004016178806
1.196013289036545,2.5198216781996305
1.2159468438538206,2.7601741104399737
1.2358803986710964,2.9978935628868615
1.255813953488372,3.232726583843696
1.275747508305648,3.464427793848192
1.2956810631229239,3.6927584009585455
1.3156146179401993,3.917485351777485
1.3355481727574752,4.138380856561799
1.3554817275747508,4.35522214225004
1.3754152823920267,4.567791348356664
1.3953488372093024,4.775875514447875
1.4152823920265782,4.9792666272845745
1.435215946843854,5.177761707202221
1.4551495016611296,5.371162920308923
1.4750830564784054,5.559277707477742
1.495016611295681,5.741918923928841
1.514950166112957,5.918904985046944
1.5348837209302328,6.090060015315231
1.5548172757475083,6.25521399808988
1.5747508305647842,6.414202924521768
1.5946843853820598,6.566868940343426
1.6146179401993357,6.7130604895319905
1.6345514950166113,6.85263245407249
1.6544850498338872,6.985446289202036
1.6744186046511629,7.111370153633025
1.6943521594684385,7.230279034342044
1.7142857142857144,7.342054865579588
1.73421926910299,7.446586641809222
1.754152823920266,7.543770524327663
1.7740863787375416,7.633509941351032
1.7940199335548175,7.715715681381842
1.8139534883720931,7.79030597969434
1.8338870431893688,7.8572065977967025
1.8538205980066447,7.916350895746174
1.8737541528239203,7.967679897209052
1.893687707641196,8.01114234717156
1.9136212624584719,8.046694762221055
1.9335548172757475,8.07430147332862
1.9534883720930232,8.09393466107614
1.9734219269102993,8.105574383281562
1.993355481727575,8.109208594986793
2.0132890365448506,8.104833160782865
2.0332225913621262,8.092451859457398
2.0531561461794023,8.072076380959235
2.073089700996678,8.043726315685246
2.0930232558139537,8.007429136104681
2.1129568106312293,7.963220170746357
2.132890365448505,7.911142570584896
2.1528239202657806,7.85124726787315
2.1727574750830567,7.783592927479089
2.1926910299003324,7.708245890797908
2.212624584717608,7.625280112322877
2.2325581395348837,7.534777088972442
2.25249169435216,7.436825782286812
2.2724252491694354,7.331522533624521
2.292358803986711,7.2189709725093785
2.312292358803987,7.0992819183008935
2.332225913621263,6.972573275389148
2.352159468438538,6.838969922146988
2.3720930232558137,6.6986035939130675
2.39202657807309,6.551612760329075
2.4119601328903655,6.398142497417204
2.431893687707641,6.238344354865957
2.4518272425249172,6.072376219097729
2.471760797342193,5.900402172832488
2.4916943521594686,5.7225923520508895
2.511627906976744,5.539122801517223
2.5315614617940203,5.350175330379053
2.551495016611296,5.1559373698598945
2.5714285714285716,4.956601835773199
2.5913621262458477,4.752366999617099
2.611295681063123,4.5434363735273635
2.6312292358803986,4.330018616643891
2.6511627906976742,4.112327473931251
2.6710963455149503,3.890581763944462
2.691029900332226,3.6650054407620707
2.7109634551495017,3.4358277696719908
2.7308970099667778,3.2032836805387532
2.7508305647840534,2.967614405450656
2.770764119601329,2.7290685849548995
2.7906976744186047,2.4879041750820168
2.810631229235881,2.2443917836040512
2.8305647840531565,1.9988206942855236
2.850498338870432,1.7515102795893933
2.870431893687708,1.502833104810218
2.8903654485049834,1.2532660850136654
2.910299003322259,1.0035184897957152
2.9302325581395348,0.7549127773016352
2.950166112956811,0.5108563611021739
2.9700996677740865,0.28557407697871595
2.990033222591362,0.1799376726500825
3.0099667774086383,0.3371710265156563
3.029900332225914,0.570256554180866
3.0498338870431896,0.8161542686355951
3.0697674418604657,1.0654221409524824
3.089700996677741,1.3154581991473573
3.1096345514950166,1.5651563966595836
3.129568106312292,1.8138842250975058
3.1495016611295683,2.0611972831708614
3.169435215946844,2.3067385328044465
3.1893687707641196,2.5501966489770087
3.2093023255813957,2.791286740958446
3.2292358803986714,3.029740654671802
3.249169435215947,3.2653017855304336
3.2691029900332227,3.4977221798312454
3.289036544850499,3.7267608700167187
3.3089700996677744,3.952182909280962
3.32890365448505,4.1737588193712325
3.3488372093023258,4.391264291101057
3.3687707641196014,4.604480043880561
3.388704318936877,4.813191787607862
3.4086378737541527,5.017190251580475
3.428571428571429,5.216271257758436
3.4485049833887045,5.410235823467247
3.46843853820598,5.5988902835005705
3.4883720930232562,5.782046424715087
3.508305647840532,5.959521628267325
3.5282392026578075,6.131139016020254
3.548172757475083,6.296727598586851
3.5681063122923593,6.456122423129487
3.588039867109635,6.60916471949274
3.60797342192691,6.755702043575674
3.6279069767441863,6.895588417087521
3.647840531561462,7.028684463006268
3.6677740863787376,7.154857536190374
3.6877076411960132,7.273981848692954
3.7076411960132893,7.385938589404219
3.727574750830565,7.4906160377070785
3.7475083056478407,7.587909670878327
3.7674418604651168,7.677722265005659
3.787375415282392,7.759963989222049
3.807308970099668,7.834552493085177
3.8272425249169437,7.9014129869515175
3.8471760797342194,7.960478315214272
3.867109634551495,8.01168902229102
3.887043189368771,8.054993411262233
3.9069767441860463,8.090347595075823
3.9269102990033224,8.117715540245669
3.9468438538205985,8.13706910298418
3.9667774086378738,8.148388057720567
3.98671096345515,8.151660117967662
4.0066445182724255,8.146880949510852
4.026578073089701,8.134054175903502
4.046511627906977,8.113191376263932
4.0664451827242525,8.08431207537952
4.086378737541528,8.047443726134457
4.106312292358805,8.002621684288778
4.1262458471760795,7.949889175647625
4.146179401993356,7.88929725567169
4.166112956810632,7.820904761592508
4.186046511627907,7.744778257109716
4.205980066445183,7.660991969762076
4.225913621262459,7.569627721080371
4.245847176079734,7.470774849648245
4.26578073089701,7.364530127217916
4.2857142857142865,7.250997668051413
4.305647840531561,7.130288831686223
4.325581395348838,7.002522119358058
4.345514950166113,6.86782306435439
4.365448504983389,6.726324116623493
4.385382059800665,6.578164522027598
4.40531561461794,6.423490196710537
4.425249169435216,6.262453597156008
4.445182724252492,6.095213586651496
4.465116279069767,5.9219352990576395
4.485049833887043,5.742790001032335
4.50498338870432,5.557954954199555
4.524916943521594,5.367613279225783
4.544850498338871,5.1719538244315055
4.5647840531561465,4.9711710425143405
4.584717607973422,4.765464880336644
4.604651162790698,4.555040688761111
4.624584717607974,4.3401091625684
4.644518272425249,4.1208863251666665
4.664451827242526,3.8975935801271584
4.6843853820598005,3.6704578633331653
4.704318936877076,3.439711948900583
4.724252491694353,3.2055949949272318
4.7441860465116275,2.968353472923856
4.764119601328904,2.728242730302478
4.78405315614618,2.485529636687502
4.803986710963455,2.2404971694926608
4.823920265780731,1.993452658315437
4.8438538205980075,1.7447433921689859
4.863787375415282,1.4947882750950767
4.883720930232559,1.2441481955879428
4.9036544850498345,0.9937030975445598
4.92358803986711,0.745182272372656
4.943521594684386,0.5032219670428437
4.963455149501661,0.28725450277961234
4.983388704318937,0.2094965300123915
5.003322259136213,0.37091185026648615
5.023255813953488,0.6027232814761314
5.043189368770764,0.8486261411115592
5.063122923588041,1.098593798006021
5.083056478405315,1.3496843456882115
5.102990033222592,1.600632711155801
5.122923588039868,1.850725056644632
5.142857142857143,2.0994712457809523
5.162790697674419,2.3464863435459935
5.182724252491695,2.591440793646634
5.20265780730897,2.8340370604017733
5.222591362126246,3.0739977503011113
5.242524916943522,3.3110591903471183
5.262458471760797,3.5449677963471573
5.282392026578074,3.7754779548801363
5.3023255813953485,4.002350767835079
5.322259136212625,4.225353309077356
5.342192691029901,4.444258195816413
5.362126245847176,4.658843358981279
5.382059800664452,4.868891942428262
5.4019933554817285,5.074192287095628
5.421926910299003,5.274537971901044
5.44186046511628,5.469727892801581
5.4617940199335555,5.659566367495897
5.48172757475083,5.843863257152587
5.501661129568107,6.022434099118079
5.5215946843853825,6.195100246280777
5.541528239202658,6.361689009944548
5.561461794019934,6.522033803881625
5.5813953488372094,6.675974287810394
5.601328903654485,6.823356508955194
5.621262458471762,6.9640330406442095
5.641196013289036,7.0978631171209505
5.661129568106313,7.224712763908573
5.681063122923589,7.344454923190152
5.700996677740864,7.456969573762503
5.72093023255814,7.562143845195103
5.740863787375416,7.65987212588342
5.760797342192691,7.750056164732562
5.780730897009967,7.832605166245022
5.800664451827243,7.907435878817481
5.820598006644518,7.974472676077999
5.840531561461795,8.0336476311175
5.8604651162790695,8.084900583489093
5.880398671096346,8.128179198866436
5.900332225913622,8.163439021267706
5.920265780730897,8.190643517766913
5.940199335548173,8.209764115626983
5.960132890365449,8.220780231802767
5.980066445182724,8.223679294773449
6.0,8.218456758676773
6.0199335548172765,8.205116109728593
6.039867109634551,8.183668864923094
6.059800664451828,8.154134563021294
6.0797342192691035,8.11654074784705
6.099667774086379,8.070922943922309
6.119601328903655,8.017324624486745
6.139534883720931,7.955797171960328
6.159468438538206,7.886399830922122
6.179401993355482,7.809199653695382
6.1993355481727574,7.7242714386457925
6.219269102990033,7.631697661320808
6.23920265780731,7.531568398579946
6.259136212624584,7.423981245893078
6.279069767441861,7.3090412280145465
6.299003322259137,7.186860703278467
6.318936877076412,7.057559261806102
6.338870431893688,6.921263617972227
6.3588039867109645,6.778107497547746
6.378737541528239,6.628231520025086
6.398671096345516,6.471783076747797
6.418604651162791,6.308916205615361
6.438538205980066,6.139791463332047
6.458471760797343,5.964575796432582
6.4784053156146175,5.78344241267527
6.498338870431894,5.596570654883397
6.51827242524917,5.40414587999757
6.538205980066445,5.206359347061754
6.558139534883721,5.003408119239794
6.578073089700998,4.795494986954101
6.598006644518272,4.582828422186435
6.617940199335549,4.365622578415711
6.6378737541528245,4.14409735747556
6.6578073089701,3.9184785752930837
6.677740863787376,3.688998275632111
6.6976744186046515,3.4558952692948917
6.717607973421927,3.2194160244313763
6.737541528239203,2.9798161184273257
6.7574750830564785,2.7373626170068652
6.777408637873754,2.4923380429254327
6.797342192691031,2.2450471942016486
6.8172757475083055,1.9958293506965772
6.837209302325582,1.745081351287521
6.857142857142858,1.4933044268308877
6.877076411960133,1.241208471115058
6.897009966777409,0.9899747692287811
6.9169435215946855,0.7420414043312282
6.93687707641196,0.5041036228931887
6.956810631229236,0.30299622533612414
6.9767441860465125,0.25382348709416874
6.996677740863787,0.414956545186446
7.016611295681064,0.6440265612139293
7.036544850498339,0.8895578977820938
7.056478405315615,1.1403646404438201
7.076411960132891,1.3929156640117557
7.096345514950166,1.6456709264918656
7.116279069767442,1.8977755202169582
7.136212624584719,2.1486598471267238
7.156146179401993,2.3978905326336277
7.17607973421927,2.6451064573517877
7.196013289036546,2.889988308099982
7.21594684385382,3.1322428954662542
7.235880398671097,3.371594572600015
7.2558139534883725,3.607780317923252
7.275747508305648,3.8405468204662574
7.295681063122924,4.069648713602066
7.3156146179402,4.294847494446873
7.335548172757475,4.515910866856103
7.355481727574752,4.732612353763322
7.3754152823920265,4.9447310849557065
7.395348837209303,5.152051701385635
7.415282392026579,5.354364338075018
7.435215946843854,5.551464660573113
7.45514950166113,5.743153938076372
7.475083056478406,5.9292391415821015
7.495016611295681,6.109533058918344
7.514950166112956,6.283854420824472
7.5348837209302335,6.452028033851814
7.554817275747508,6.6138849169615925
7.574750830564784,6.769262439479141
7.5946843853820605,6.9180044586228595
7.614617940199336,7.059961455231553
7.634551495016611,7.194990666612466
7.6544850498338874,7.322956215653499
7.674418604651163,7.443729235510797
7.694352159468439,7.557187989310139
7.714285714285715,7.6632179843994646
7.73421926910299,7.761712080766914
7.754152823920266,7.852570593300488
7.774086378737542,7.9357013876145945
7.794019933554818,8.011019969209524
7.813953488372093,8.078449565763439
7.83388704318937,8.137921202385023
7.853820598006645,8.189373769679237
7.8737541528239205,8.232754084500508
7.893687707641197,8.268016943286131
7.913621262458472,8.295125167880729
7.9335548172757475,8.314049643777846
7.953488372093024,8.324769350720453
7.9734219269103,8.327271385615873
7.9933554817275745,8.321550977734786
8.013289036544851,8.3076114961777
8.033222591362128,8.285464449605428
8.053156146179402,8.255129478244532
8.073089700996679,8.216634338192351
8.093023255813954,8.170014878061322
8.11295681063123,8.115315008017944
8.132890365448505,8.052586661288487
8.152823920265782,7.981889748222128
8.172757475083056,7.903292103022478
8.192691029900331,7.8168694232817835
8.21262458471761,7.722705202477969
8.232558139534884,7.620890655626027
8.252491694352159,7.511524638310995
8.272425249169435,7.394713559373387
8.292358803986712,7.270571287570874
8.312292358803987,7.1392190526049815
8.332225913621263,7.000785340982942
8.352159468438538,6.855405787287599
8.372093023255815,6.703223061560193
8.392026578073091,6.544386753670733
8.411960132890366,6.379053255775094
8.43189368770764,6.207385644253168
8.451827242524917,6.029553562920903
8.471760797342194,5.845733109847964
8.491694352159469,5.656106730855004
8.511627906976745,5.46086312379726
8.53156146179402,5.260197159199168
8.551495016611296,5.054309824892898
8.571428571428573,4.8434082053508725
8.591362126245848,4.62770551089495
8.611295681063122,4.407421178731762
8.6312292358804,4.182781078161742
8.651162790697676,3.9540178686384126
8.67109634551495,3.721371585625322
8.691029900332227,3.4850905726143413
8.710963455149502,3.245432951609687
8.730897009966778,3.002668954656445
8.750830564784053,2.75708467754938
8.77076411960133,2.508988273488241
8.790697674418604,2.2587205246050526
8.81063122923588,2.0066736988757716
8.830564784053157,1.753327130157007
8.850498338870432,1.499319327347072
8.870431893687707,1.245608185330107
8.890365448504983,0.9938725134422836
8.91029900332226,0.7476946540103866
8.930232558139535,0.5168775472539577
8.950166112956811,0.3367742395911743
8.970099667774086,0.3139344739936711
8.990033222591363,0.4719874724089447
9.00996677740864,0.696932840925838
9.029900332225914,0.9415321105513128
9.049833887043189,1.1931585351994547
9.069767441860467,1.4474676114076936
9.089700996677742,1.7025185528165638
9.109634551495017,1.9572446347982781
9.129568106312293,2.2109548545042856
9.14950166112957,2.463141087873582
9.169435215946844,2.713393272365431
9.189368770764121,2.9613582948073294
9.209302325581396,3.2067185054629346
9.22923588039867,3.449179806170906
9.249169435215949,3.6884647334014864
9.269102990033224,3.9243082959243774
9.289036544850498,4.156455403915632
9.308970099667773,4.384659254435784
9.328903654485051,4.608680311266597
9.348837209302326,4.828285664875858
9.368770764119601,5.0432486415031095
9.388704318936878,5.2533485788883
9.408637873754152,5.458370715350155
9.428571428571429,5.658106156961457
9.448504983388705,5.852351898998907
9.46843853820598,6.040910885250999
9.488372093023255,6.223592093663224
9.508305647840533,6.4002106400978
9.528239202657808,6.570587894243982
9.548172757475083,6.73455160328754
9.56810631229236,6.891936020058065
9.588039867109636,7.042582033168296
9.60797342192691,7.186337297236043
9.627906976744187,7.323056361703472
9.647840531561462,7.452600797083254
9.667774086378738,7.574839317698249
9.687707641196015,7.689647900161737
9.70764119601329,7.796909896984288
9.727574750830565,7.896516144801572
9.747508305647841,7.988365066802973
9.767441860465118,8.072362769009226
9.787375415282392,8.148423130102616
9.807308970099669,8.216467884559007
9.827242524916944,8.276426698868848
9.84717607973422,8.328237240666633
9.867109634551497,8.371845240616084
9.887043189368772,8.407204546922973
9.906976744186046,8.434277172369129
9.926910299003321,8.453033333781272
9.9468438538206,8.463451483866752
9.966777408637874,8.465518335365937
9.986710963455149,8.459228877487691
10.006644518272426,8.444586384611158
10.026578073089702,8.421602417253554
10.046511627906977,8.390296815320808
10.066445182724253,8.350697683675163
10.086378737541528,8.302841370072809
10.106312292358805,8.246772435544152
10.126245847176081,8.18254361731149
10.146179401993356,8.110215784362964
10.16611295681063,8.029857885829053
10.186046511627907,7.941546892339382
10.205980066445184,7.845367730574422
10.225913621262459,7.741413211269838
10.245847176079735,7.62978395098352
10.26578073089701,7.510588287998388
10.285714285714286,7.383942192812207
10.305647840531563,7.249969173762216
10.325581395348838,7.108800178454941
10.345514950166113,6.96057349182698
10.36544850498339,6.805434631863009
10.385382059800666,6.643536244258269
10.40531561461794,6.475037997656223
10.425249169435217,6.300106481548474
10.445182724252492,6.118915109538854
10.465116279069768,5.931644031508781
10.485049833887045,5.738480059372398
10.50498338870432,5.5396166127142585
10.524916943521594,5.335253692870662
10.544850498338871,5.125597897266762
10.564784053156147,4.910862490555464
10.584717607973422,4.691267556111275
10.604651162790697,4.467040261995052
10.624584717607974,4.238415291746341
10.64451827242525,4.005635515879999
10.664451827242525,3.768953021042103
10.684385382059801,3.528630681692281
10.704318936877076,3.284944574865552
10.724252491694353,3.038187742384874
10.74418604651163,2.788676177984308
10.764119601328904,2.536758630295477
10.784053156146179,2.282833247907097
10.803986710963457,2.027377155507239
10.823920265780732,1.7710020583773363
10.843853820598007,1.514566404288004
10.863787375415283,1.2594225917913966
10.88372093023256,1.008026809768867
