Frequency (Hz),Amplitude
0.0,2.508468205702517
0.019823788546255508,2.5090520607875972
0.039647577092511016,2.510800438147812
0.059471365638766524,2.513703805867464
0.07929515418502203,2.51774638258913
0.09911894273127755,2.5229062927454686
0.11894273127753305,2.5291557789538004
0.13876651982378857,2.536461466897306
0.15859030837004406,2.5447846770249494
0.17841409691629956,2.5540817766356176
0.1982378854625551,2.564304565390186
0.2180616740088106,2.575400687022467
0.2378854625550661,2.587314059986809
0.25770925110132165,2.599985319966928
0.27753303964757714,2.6133522675475103
0.29735682819383263,2.6273503148822845
0.31718061674008813,2.641912925840777
0.3370044052863437,2.656972044842701
0.3568281938325991,2.672458510356098
0.37665198237885467,2.688302449810536
0.3964757709251102,2.7044336534308258
0.41629955947136565,2.720781925208434
0.4361233480176212,2.7372774098782187
0.4559471365638767,2.7538508953480836
0.4757709251101322,2.7704340905307654
0.49559471365638774,2.786959878948616
0.5154185022026433,2.8033625488264535
0.5352422907488987,2.819578000656162
0.5550660792951543,2.835543933418733
0.5748898678414097,2.851200010789668
0.5947136563876653,2.8664880087411513
0.6145374449339208,2.881351945997355
0.6343612334801763,2.895738198804472
0.6541850220264318,2.9095956014529
0.6740088105726874,2.922875533941123
0.6938325991189428,2.9355319981059944
0.7136563876651982,2.9475216834663875
0.7334801762114539,2.9588040239416022
0.7533039647577093,2.9693412465155498
0.7731277533039648,2.979098412825462
0.7929515418502204,2.9880434545616663
0.8127753303964759,2.9961472034752097
0.8325991189427313,3.003383416702366
0.8524229074889869,3.0097287980323326
0.8722466960352424,3.015163015664421
0.8920704845814978,3.0196687169266623
0.9118942731277534,3.023231540356585
0.931718061674009,3.0258401254781417
0.9515418502202644,3.0274861205454244
0.9713656387665199,3.028164188463586
0.9911894273127755,3.0278720110392863
1.0110132158590308,3.0266102916571866
1.0308370044052866,3.024382756423834
1.0506607929515421,3.0211961537659544
1.0704845814977975,3.01706025241508
1.090308370044053,3.0119878376547957
1.1101321585903086,3.0059947056491443
1.1299559471365639,2.999099655610702
1.1497797356828194,2.9913244795037803
1.1696035242290752,2.9826939489115154
1.1894273127753305,2.9732357986248146
1.209251101321586,2.962980706435732
1.2290748898678416,2.9519622685381246
1.248898678414097,2.940216969853536
1.2687224669603525,2.927784148511503
1.288546255506608,2.9147059536201074
1.3083700440528636,2.901027295367045
1.3281938325991192,2.8867957863936846
1.3480176211453747,2.872061673287412
1.36784140969163,2.8568777569433315
1.3876651982378856,2.8412993004577656
1.4074889867841411,2.825383923138032
1.4273127753303965,2.8091914791494657
1.4471365638766522,2.7927839192777872
1.4669603524229078,2.7762251342694872
1.4867841409691631,2.759580778231337
1.5066079295154187,2.7429180706317258
1.5264317180616742,2.7263055755585053
1.5462555066079295,2.7098129570597123
1.5660792951541853,2.6935107096327755
1.5859030837004409,2.677469863242414
1.6057268722466962,2.6617616626423772
1.6255506607929517,2.646457221255603
1.6453744493392073,2.6316271504310667
1.6651982378854626,2.6173411655393726
1.6850220264317182,2.603667671084481
1.7048458149779737,2.5906733277805847
1.7246696035242293,2.5784226053508332
1.7444933920704848,2.5669773256209503
1.7643171806167404,2.5563962012733614
1.7841409691629957,2.5467343763586556
1.8039647577092512,2.538042975290302
1.8237885462555068,2.5303686675344887
1.8436123348017623,2.523753255509333
1.863436123348018,2.518233293292498
1.8832599118942732,2.51383974357593
1.9030837004405288,2.510597679886097
1.9229074889867843,2.5085260404047665
1.9427312775330399,2.50763743879193
1.9625550660792954,2.5079380362569252
1.982378854625551,2.509427477787711
2.002202643171806,2.5120988939867215
2.0220264317180616,2.5159389684365205
2.041850220264317,2.5209280689978946
2.061674008810573,2.5270404399930104
2.0814977973568287,2.534244450909641
2.1013215859030843,2.5425028961313907
2.1211453744493394,2.5517733392939297
2.140969162995595,2.5620084952145827
2.1607929515418505,2.573156641952485
2.180616740088106,2.58516205542506
2.2004405286343616,2.5979654591167733
2.220264317180617,2.6115044817392925
2.2400881057268722,2.625714116204409
2.2599118942731278,2.6405271739104133
2.2797356828193833,2.6558747290794757
2.299559471365639,2.671686548676557
2.319383259911895,2.6878915042532965
2.3392070484581504,2.7044179628608225
2.3590308370044055,2.721194154938007
2.378854625550661,2.7381485177855707
2.3986784140969166,2.7552100138685636
2.418502202643172,2.7723084237412015
2.4383259911894277,2.7893746138555704
2.4581497797356833,2.8063407798999553
2.4779735682819384,2.823140666617144
2.497797356828194,2.8397097652833847
2.5176211453744495,2.8559854901937243
2.537444933920705,2.8719073356050075
2.5572687224669606,2.887417014645044
2.577092511013216,2.9024585817118127
2.5969162995594717,2.916978539868218
2.6167400881057272,2.93092593469453
2.6365638766519828,2.944252435996202
2.6563876651982383,2.956912408686984
2.676211453744494,2.9688629740795247
2.6960352422907494,2.9800640627226773
2.715859030837005,2.9904784598286205
2.73568281938326,3.0000718442373766
2.7555066079295156,3.0088128217721772
2.775330396475771,3.0166729537479293
2.7951541850220267,3.0236267813081628
2.8149779735682823,3.029651846183012
2.834801762114538,3.034728708382795
2.854625550660793,3.0388409612682334
2.874449339207049,3.0419752443692945
2.8942731277533045,3.044121254259366
2.91409691629956,3.045271753729708
2.9339207048458156,3.0454225794502072
2.953744493392071,3.0445726482456195
2.9735682819383262,3.0427239620609794
2.993392070484582,3.039881611635315
3.0132158590308373,3.036053778847634
3.033039647577093,3.031251737643377
3.0528634361233484,3.0254898533920414
3.072687224669604,3.018785580466467
3.092511013215859,3.0111594577705665
3.1123348017621146,3.00263510187539
3.1321585903083706,2.993239197350613
3.151982378854626,2.9830014838016785
3.1718061674008817,2.9719547390393894
3.1916299559471373,2.960134757719889
3.2114537444933924,2.9475803246979324
3.231277533039648,2.9343331822355214
3.2511013215859035,2.9204379901019415
3.270925110132159,2.90594227749129
3.2907488986784146,2.8908963855706578
3.31057268722467,2.875353399358975
3.3303964757709252,2.8593690675259746
3.350220264317181,2.843001708596158
3.3700440528634363,2.826312101949034
3.389867841409692,2.809363361930293
3.4096916299559474,2.7922207933346335
3.4295154185022034,2.774951726498889
3.4493392070484585,2.757625330261706
3.469162995594714,2.7403124011132123
3.4889867841409696,2.7230851269851306
3.508810572687225,2.7060168243292617
3.5286343612334807,2.689181647409175
3.5484581497797363,2.67265426909681
3.5682819383259914,2.6565095329270556
3.588105726872247,2.640822076725862
3.6079295154185025,2.6256659287884947
3.627753303964758,2.6111140783398725
3.6475770925110136,2.5972380228475553
3.667400881057269,2.5841072956593867
3.6872246696035247,2.5717889783781067
3.7070484581497802,2.5603472033285315
3.726872246696036,2.549842652380269
3.7466960352422913,2.5403320592133114
3.7665198237885464,2.531867722805904
3.7863436123348024,2.5244970404347327
3.8061674008810575,2.5182620687593342
3.8259911894273135,2.513199121576979
3.8458149779735686,2.5093384125526943
3.8656387665198246,2.5067037506373793
3.8854625550660797,2.5053122949892033
3.905286343612335,2.505174375031267
3.925110132158591,2.506293379852437
3.9449339207048464,2.5086657195452062
3.964757709251102,2.5122808593450467
3.9845814977973575,2.5171214256679026
4.004405286343612,2.5231633814177754
4.024229074889869,2.530376266333166
4.044052863436123,2.538723496728029
4.06387665198238,2.5481627178163624
4.083700440528634,2.5586462009285427
4.103524229074891,2.570121277351987
4.123348017621146,2.582530800262442
4.143171806167401,2.595813626237972
4.162995594713657,2.609905108139122
4.182819383259912,2.624737591653801
4.2026431718061685,2.6402409084985825
4.222466960352423,2.656342860090398
4.242290748898679,2.6729696864033197
4.262114537444934,2.690046515660916
4.28193832599119,2.707497791444203
4.301762114537445,2.7252476746856815
4.321585903083701,2.743220418846794
4.3414096916299565,2.761340717319814
4.361233480176212,2.7795340227459895
4.381057268722468,2.7977268384939236
4.400881057268723,2.8158469829958666
4.420704845814979,2.8338238279990473
4.440528634361234,2.8515885120613276
4.46035242290749,2.869074130813793
4.4801762114537445,2.886215905637351
4.500000000000001,2.9029513324670395
4.5198237885462555,2.919220312454698
4.539647577092512,2.934965266199641
4.559471365638767,2.9501312332049148
4.579295154185023,2.964665958142137
4.599118942731278,2.9785199654168992
4.618942731277533,2.991646623425842
4.63876651982379,3.004002199788355
4.658590308370044,3.015545908727041
4.678414096916301,3.026239951661121
4.6982378854625555,3.036049551970826
4.718061674008811,3.044942984788228
4.737885462555067,3.0528916025726307
4.757709251101322,3.0598698571370626
4.777533039647578,3.0658553187064763
4.797356828193833,3.070828692508585
4.817180616740089,3.0747738333234977
4.837004405286344,3.0776777583491293
4.856828193832599,3.0795306586742823
4.876651982378855,3.08032590959015
4.896475770925111,3.080060079912569
4.9162995594713665,3.078732940431462
4.936123348017622,3.0763474715485546
4.955947136563877,3.072909870110325
4.975770925110133,3.068429555387394
4.995594713656388,3.06291917409512
5.015418502202644,3.0563946042904138
5.035242290748899,3.048874957917114
5.055066079295155,3.0403825817044896
5.07488986784141,3.030943056050938
5.094713656387666,3.020585191445631
5.114537444933921,3.009341021894555
5.134361233480177,2.9972457947235878
5.154185022026432,2.9843379560290724
5.174008810572688,2.9706591309353785
5.193832599118943,2.956254097699935
5.213656387665199,2.9411707545787293
5.2334801762114544,2.9254600782308695
5.25330396475771,2.909176072300631
5.2731277533039655,2.892375704671896
5.292951541850221,2.875118831746571
5.312775330396477,2.857468107958746
5.332599118942731,2.8394888786068906
5.352422907488988,2.8212490539727186
5.372246696035242,2.8028189626065787
5.392070484581499,2.7842711816050985
5.4118942731277535,2.7656803416974745
5.43171806167401,2.7471229050064854
5.451541850220265,2.7286769134707005
5.47136563876652,2.7104217061206017
5.491189427312777,2.6924376037068933
5.511013215859031,2.6748055595967473
5.530837004405288,2.6576067763939086
5.550660792951542,2.640922288407958
5.570484581497798,2.6248325108987807
5.5903083700440535,2.6094167579486522
5.610132158590309,2.594752731853928
5.6299559471365646,2.5809159880570043
5.64977973568282,2.567979380824694
5.669603524229076,2.5560124960767796
5.689427312775331,2.545081078924667
5.709251101321586,2.5352464645340915
5.729074889867842,2.526565021809328
5.748898678414098,2.5190876200451444
5.768722466960353,2.512859129041319
5.788546255506609,2.50791796317237
5.808370044052864,2.5042956795146845
5.82819383259912,2.502016639337528
5.848017621145375,2.5010977410726505
5.867841409691631,2.5015482313217507
5.887665198237886,2.503369598602137
5.907488986784142,2.5065555524490275
5.927312775330397,2.511092088286332
5.9471365638766525,2.5169576362538737
5.966960352422908,2.5241232900465196
5.986784140969164,2.532553109881191
6.00660792951542,2.5422044920478553
6.026431718061675,2.5530285961867416
6.04625550660793,2.5649708205070847
6.066079295154186,2.577971314638909
6.085903083700441,2.5919655196789266
6.105726872246697,2.6068847252242007
6.125550660792952,2.622656633734176
6.145374449339208,2.6392059233638574
6.1651982378854635,2.6564548014024476
6.185022026431718,2.674323541566033
6.204845814977975,2.6927309995674156
6.224669603524229,2.7115951025648606
6.244493392070486,2.73083330922801
6.264317180616741,2.7503630382170052
6.284140969162996,2.7701020638242495
6.303964757709252,2.789968878361011
6.323788546255507,2.8098830215758657
6.3436123348017635,2.8297653779683127
6.363436123348018,2.8495384433143043
6.3832599118942746,2.869126562059558
6.403083700440529,2.888456137474727
6.422907488986785,2.907455816614738
6.44273127753304,2.9260566521994487
6.462555066079296,2.944192243545153
6.482378854625551,2.961798858640731
6.502202643171807,2.978815539388828
6.5220264317180625,2.995184191931829
6.541850220264318,3.010849663862943
6.561674008810574,3.0257598099917775
6.581497797356829,3.0398655481969015
6.601321585903085,3.0531209067597667
6.62114537444934,3.065483064438711
6.640969162995596,3.076912384410725
6.6607929515418505,3.0873724430839333
6.680616740088107,3.0968300546675804
6.700440528634362,3.105255292277115
6.720264317180618,3.112621506252306
6.740088105726873,3.118905340274311
6.759911894273129,3.1240867457832135
6.779735682819384,3.128148995121053
6.799559471365639,3.1310786937541453
6.819383259911895,3.132865791863901
6.83920704845815,3.133503595534273
6.859030837004407,3.1329887777071193
6.8788546255506615,3.1313213890217955
6.898678414096917,3.128504868602134
6.918502202643173,3.1245460548006063
6.938325991189428,3.1194551958552648
6.958149779735684,3.1132459603587184
6.977973568281939,3.105935447378716
6.997797356828195,3.0975441960052907
7.01762114537445,3.0880961940294482
7.037444933920705,3.0776188853804918
7.0572687224669615,3.0661431758637985
7.077092511013216,3.0537034366449336
7.096916299559473,3.0403375048200236
7.116740088105728,3.0260866802944544
7.136563876651983,3.0109957180613316
7.156387665198239,2.9951128148278405
7.176211453744494,2.978489588780817
7.19603524229075,2.961181051113594
7.215859030837005,2.9432455677550147
7.235682819383261,2.9247448095506026
7.255506607929516,2.9057436889492876
7.275330396475772,2.8863102810485093
7.295154185022027,2.8665157266562025
7.314977973568283,2.8464341148433356
7.334801762114538,2.826142342298952
7.354625550660794,2.8057199466711755
7.374449339207049,2.7852489109969327
7.394273127753305,2.764813436308579
7.4140969162995605,2.744499679573122
7.433920704845816,2.724395454293005
7.453744493392072,2.7045898913941513
7.473568281938327,2.685173058470771
7.493392070484583,2.6662355360635486
7.513215859030838,2.6478679504347666
7.533039647577093,2.6301604632781217
7.552863436123348,2.613202219961985
7.572687224669605,2.5970807592427745
7.59251101321586,2.581881388870989
7.612334801762115,2.5676865331089624
7.6321585903083715,2.5545750598260586
7.651982378854627,2.5426215964612875
7.671806167400882,2.531895845658389
7.691629955947137,2.5224619126849412
7.711453744493394,2.5143776577475787
7.731277533039649,2.5076940869104885
7.751101321585904,2.502454795433554
7.7709251101321595,2.498695476906557
7.790748898678416,2.4964435105401517
7.81057268722467,2.495717637385883
7.830396475770926,2.4965277341482555
7.850220264317182,2.498874690704017
7.870044052863436,2.5027503945829213
7.889867841409693,2.508137822633584
7.909691629955948,2.515011237062398
7.929515418502204,2.523336480149943
7.9493392070484585,2.5330713593704965
7.969162995594715,2.544166112485615
7.9889867841409705,2.5565639405438754
8.008810572687224,2.5702015956443214
8.02863436123348,2.5850100098213797
8.048458149779737,2.600914951457211
8.068281938325994,2.6178376961641487
8.088105726872246,2.635695700025591
8.107929515418503,2.654403264342986
8.12775330396476,2.673872182509367
8.147577092511014,2.6940123612214055
8.167400881057269,2.7147324098628522
8.187224669603525,2.735940193470305
8.207048458149782,2.757543346168432
8.226872246696036,2.7794497432939056
8.246696035242293,2.80156793159031
8.266519823788547,2.823807517835467
8.286343612334802,2.846079517058151
8.306167400881058,2.8682966621209336
8.325991189427315,2.8903736769013713
8.345814977973568,2.912227515616502
8.365638766519824,2.933777571021958
8.38546255506608,2.954945854300861
8.405286343612337,2.9756571494562514
8.42511013215859,2.9958391449541146
8.444933920704846,3.0154225452492227
8.464757709251103,3.0343411646747076
8.484581497797357,3.0525320060044803
8.504405286343614,3.069935325811497
8.524229074889869,3.086494688555165
8.544052863436125,3.1021570111420202
8.56387665198238,3.11687259952139
8.583700440528636,3.1305951787031914
8.60352422907489,3.1432819174231934
8.623348017621145,3.1548934485298057
8.643171806167402,3.165393886029848
8.662995594713658,3.174750839605542
8.682819383259913,3.182935427302994
8.702643171806168,3.1899222869919113
8.722466960352424,3.195689587106451
8.74229074889868,3.2002190370967263
8.762114537444935,3.2034958979489536
8.78193832599119,3.2055089930675016
8.801762114537446,3.206250719753259
8.821585903083701,3.2057170614585813
8.841409691629957,3.2039076009482685
8.861233480176212,3.2008255344462313
8.881057268722468,3.1964776867995415
8.900881057268723,3.190874527640906
8.92070484581498,3.184030188478993
8.940528634361234,3.17596248058947
8.960352422907489,3.166692913517669
8.980176211453745,3.156246713934967
9.000000000000002,3.144652844512595
9.019823788546258,3.1319440223880615
9.039647577092511,3.1181567366978213
9.059471365638768,3.103331264534328
9.079295154185024,3.087511684553254
9.099118942731279,3.070745887307327
9.118942731277533,3.0530855812133177
9.13876651982379,3.03458629286915
9.158590308370046,3.015307360226106
9.1784140969163,2.9953119168883897
9.198237885462555,2.9746668655580066
9.218061674008812,2.953442838370514
9.237885462555067,2.9317141415791528
9.257709251101323,2.909558681747635
9.27753303964758,2.887057870312609
9.297356828193834,2.8642965030875494
9.317180616740089,2.841362611013143
9.337004405286345,2.8183472782351493
9.356828193832602,2.7953444234291287
9.376651982378855,2.772450540219743
9.396475770925111,2.749764392589619
9.416299559471367,2.7273866613719306
9.436123348017622,2.7054195383066793
9.455947136563877,2.683966264747412
9.475770925110133,2.663130612964725
9.49559471365639,2.643016309130732
9.515418502202644,2.623726398499891
9.5352422907489,2.60536255502641
9.555066079295155,2.5880243396564864
9.57488986784141,2.5718084137622643
9.594713656387666,2.556807716571206
9.614537444933923,2.543110617890165
9.634361233480178,2.53080005980134
9.654185022026432,2.5199527031668527
9.674008810572689,2.5106380965586923
9.693832599118945,2.502917886464866
9.713656387665198,2.4968450881626976
9.733480176211454,2.492463436374721
9.75330396475771,2.4898068336595394
9.773127753303967,2.48889891242697
9.792951541850222,2.4897527235580736
9.812775330396477,2.492370560982666
9.832599118942733,2.496743927405537
9.852422907488988,2.502853641914495
9.872246696035244,2.5106700857099247
9.892070484581499,2.5201535779331694
9.911894273127754,2.5312548697823187
9.93171806167401,2.543915741989827
9.951541850220266,2.5580696884366843
9.971365638766521,2.573642667264796
9.991189427312776,2.5905539003268605
10.011013215859032,2.608716702121751
10.030837004405289,2.628039320395594
10.050660792951543,2.648425772200949
10.070484581497798,2.66977666123891
10.090308370044054,2.6919899645981875
10.11013215859031,2.7149617794011998
10.129955947136565,2.738587022236631
10.14977973568282,2.7627600764974383
10.169603524229077,2.7873753847736618
10.189427312775331,2.8123279852222103
10.209251101321588,2.837513992325081
10.229074889867842,2.8628310236484817
10.248898678414099,2.8881785751392153
10.268722466960353,2.913458348164582
10.28854625550661,2.93857453194632
10.308370044052865,2.9634340452921797
10.32819383259912,2.9879467416236123
10.348017621145376,3.012025581267604
10.367841409691632,3.035586774854865
10.387665198237887,3.058549901471434
10.407488986784141,3.0808380049692556
10.427312775330398,3.1023776715713827
10.447136563876654,3.1230990916243457
10.466960352422909,3.142936108065891
10.486784140969164,3.1618262538982944
10.50660792951542,3.179710780692939
10.526431718061675,3.1965346799044667
10.546255506607931,3.2122466985448925
10.566079295154186,3.2267993505613033
10.585903083700442,3.2401489250746995
10.605726872246697,3.25225549247228
10.625550660792953,3.2630829091995386
10.645374449339208,3.2725988219709876
10.665198237885463,3.2807746720071393
10.685022026431719,3.2875856998091644
10.704845814977975,3.2930109508996663
10.724669603524232,3.2970332828861926
