Time (s),Filtered Signal
0.0,0.04159810827265359
0.03337008452774715,-0.06807208066624935
0.0667401690554943,-0.1476273579231913
0.10011025358324147,-0.17674937967287865
0.1334803381109886,-0.15183597446698863
0.16685042263873576,-0.08688705087537096
0.20022050716648293,-0.00780099595401312
0.23359059169423008,0.05811510669142637
0.2669606762219772,0.09330395507366326
0.30033076074972437,0.09684551880916976
0.3337008452774715,0.08364434242872104
0.36707092980521866,0.07597690668040415
0.40044101433296586,0.09132901043931214
0.433811098860713,0.13264676068393536
0.46718118338846015,0.1862814864673299
0.5005512679162073,0.22919555035958505
0.5339213524439544,0.24214460020174355
0.5672914369717016,0.22205301332740546
0.6006615214994487,0.18662885073776325
0.6340316060271959,0.16778206765124823
0.667401690554943,0.19603722008689728
0.7007717750826902,0.28306158915545676
0.7341418596104373,0.41105405822281016
0.7675119441381845,0.5350477455568002
0.8008820286659317,0.5983267528777925
0.8342521131936789,0.5549002601129746
0.867622197721426,0.38930770082663685
0.9009922822491732,0.12475321474554177
0.9343623667769203,-0.18451587203553174
0.9677324513046675,-0.4736930332593838
1.0011025358324146,-0.6919679366049006
1.0344726203601617,-0.8203187952558311
1.0678427048879089,-0.8746317323597999
1.101212789415656,-0.8929644349544467
1.1345828739434032,-0.9132464499819101
1.1679529584711503,-0.9523214135916712
1.2013230429988975,-0.9965829090381585
1.2346931275266446,-1.0086719605622996
1.2680632120543918,-0.9465873904680555
1.301433296582139,-0.7852591739238265
1.334803381109886,-0.5295053402716164
1.3681734656376332,-0.21203577198130932
1.4015435501653803,0.12170203164371204
1.4349136346931275,0.43297309881010393
1.4682837192208746,0.7026276613498476
1.5016538037486218,0.9307552831872917
1.535023888276369,1.1245146707343512
1.568393972804116,1.282629091043379
1.6017640573318634,1.3869481976769156
1.6351341418596106,1.4070558238143243
1.6685042263873577,1.315850993528142
1.7018743109151049,1.107245992005897
1.735244395442852,0.8056582406944894
1.7686144799705992,0.46153557618833874
1.8019845644983463,0.13482892666098423
1.8353546490260935,-0.1254487894297313
1.8687247335538406,-0.2960176926612622
1.9020948180815878,-0.3826011927237923
1.935464902609335,-0.41198753179267683
1.968834987137082,-0.41826842000477915
2.002205071664829,-0.43010223706823497
2.0355751561925763,-0.46361461610630694
2.0689452407203235,-0.5216043122872086
2.1023153252480706,-0.5966401700235728
2.1356854097758178,-0.6749545462593443
2.169055494303565,-0.7395052525858029
2.202425578831312,-0.7726032631829127
2.235795663359059,-0.7593999829376328
2.2691657478868064,-0.6926539526381763
2.3025358324145535,-0.5773041398219843
2.3359059169423007,-0.4320224139767832
2.369276001470048,-0.28537119984134124
2.402646085997795,-0.16654723057999693
2.436016170525542,-0.09374528571534275
2.4693862550532892,-0.0651467276204966
2.5027563395810364,-0.05715252414100937
2.5361264241087835,-0.03171582551247263
2.5694965086365307,0.0492980195044867
2.602866593164278,0.20808511361646684
2.636236677692025,0.43969984434559956
2.669606762219772,0.7105411293546825
2.7029768467475193,0.967600828103892
2.7363469312752664,1.15513760212177
2.7697170158030135,1.2323461160653735
2.8030871003307607,1.185270801047382
2.836457184858508,1.028859934952267
2.869827269386255,0.7993649800471248
2.903197353914002,0.541092350026756
2.9365674384417493,0.2930314496445932
2.9699375229694964,0.07977899837931898
3.0033076074972436,-0.09138601520039955
3.0366776920249907,-0.22779301142776148
3.070047776552738,-0.34479058117309336
3.103417861080485,-0.4573634232346721
3.136787945608232,-0.5722324701635704
3.1701580301359793,-0.6830440516477361
3.203528114663727,-0.771091927732552
3.236898199191474,-0.812455986537215
3.270268283719221,-0.7894446087105246
3.3036383682469683,-0.7012171816909416
3.3370084527747155,-0.5676458693952423
3.3703785373024626,-0.42319087156433305
3.4037486218302098,-0.302882386595716
3.437118706357957,-0.22735532839176353
3.470488790885704,-0.19495047811455762
3.503858875413451,-0.18505453622102605
3.5372289599411983,-0.17028305540376895
3.5705990444689455,-0.13002678361458275
3.6039691289966926,-0.05764406874426946
3.63733921352444,0.04169625763367318
3.670709298052187,0.15910047758211818
3.704079382579934,0.28884003465907676
3.7374494671076812,0.4284472206571002
3.7708195516354284,0.5720384173386209
3.8041896361631755,0.7025761752716346
3.8375597206909227,0.7904133447851622
3.87092980521867,0.8017244860720083
3.904299889746417,0.7137642470562228
3.937669974274164,0.5287766139422855
3.9710400588019112,0.27822472238428037
4.004410143329658,0.013938771178170748
4.0377802278574055,-0.21025646038635032
4.071150312385153,-0.3579364883786213
4.1045203969129,-0.42165551659581674
4.137890481440647,-0.42193792849913847
4.171260565968394,-0.3949538810856229
4.204630650496141,-0.37508485427538096
4.238000735023888,-0.380284010102362
4.2713708195516356,-0.40621388905032124
4.304740904079383,-0.43081523843888847
4.33811098860713,-0.42629237990205515
4.371481073134877,-0.3724977058532518
4.404851157662624,-0.26554459460280877
4.438221242190371,-0.11811320610452017
4.471591326718118,0.04793403776881677
4.504961411245866,0.21228820020460418
4.538331495773613,0.36440652334943946
4.57170158030136,0.5047389244191628
4.605071664829107,0.6382600076750766
4.638441749356854,0.7639494797680021
4.671811833884601,0.8666173630386955
4.7051819184123485,0.9169642026733514
4.738552002940096,0.881810990214584
4.771922087467843,0.7407183079095743
4.80529217199559,0.5007353791492928
4.838662256523337,0.20057638084922033
4.872032341051084,-0.09999691310199861
4.905402425578831,-0.3422856143907986
4.9387725101065785,-0.4923419228823248
4.972142594634326,-0.5544925732848194
5.005512679162073,-0.5673594153702809
5.03888276368982,-0.5836103096603659
5.072252848217567,-0.6429035037077271
5.105622932745314,-0.7510166999419927
5.138993017273061,-0.8752151174720216
5.1723631018008085,-0.9581609672843435
5.205733186328556,-0.9440382033874712
5.239103270856303,-0.8051170892077107
5.27247335538405,-0.5569704980329696
5.305843439911797,-0.25564876516136625
5.339213524439544,0.022136279064813295
5.372583608967291,0.2077148084741605
5.4059536934950385,0.2664113871085361
5.439323778022786,0.21037656849695935
5.472693862550533,0.09335723579704577
5.50606394707828,-0.010225815200835243
5.539434031606027,-0.03335552752328922
5.572804116133774,0.05939255204439223
5.606174200661521,0.26050460152364174
5.6395442851892685,0.5243653099185551
5.672914369717016,0.7850431283105068
5.706284454244763,0.979119287665029
5.73965453877251,1.06471635434374
5.773024623300257,1.0306587662000015
5.806394707828004,0.8944577503189011
5.839764792355751,0.6921397865649185
5.873134876883499,0.46507907426952855
5.906504961411246,0.24864983705966986
5.939875045938993,0.06559351787653181
5.97324513046674,-0.07527435089029698
6.006615214994487,-0.17618151948268618
6.039985299522234,-0.24547614237693632
6.073355384049981,-0.29288327993866964
6.106725468577729,-0.32645554401434135
6.140095553105476,-0.35159113869685454
6.173465637633223,-0.3714860589155108
6.20683572216097,-0.38800247831335044
6.240205806688717,-0.4022322951490476
6.273575891216464,-0.41461657327940465
6.3069459757442115,-0.42484649223202814
6.340316060271959,-0.43173895151099545
6.373686144799706,-0.4330935390689452
6.407056229327454,-0.4255477296254388
6.440426313855201,-0.4046995076743458
6.473796398382948,-0.3659303199852152
6.507166482910695,-0.3060885106165897
6.540536567438442,-0.22553452059626797
6.5739066519661895,-0.12947872521270035
6.607276736493937,-0.027564063934474095
6.640646821021684,0.06863155001070834
6.674016905549431,0.14943139390459637
6.707386990077178,0.21064426979280254
6.740757074604925,0.2551255989271082
6.774127159132672,0.2912004463718766
6.8074972436604195,0.3281690887242002
6.840867328188167,0.3706378388125155
6.874237412715914,0.4143948429455011
6.907607497243661,0.4463074399312347
6.940977581771408,0.4490729281567155
6.974347666299155,0.40921566925622876
7.007717750826902,0.32473078982407527
7.0410878353546495,0.20844741680603177
7.074457919882397,0.08492575575002773
7.107828004410144,-0.018266998916897068
7.141198088937891,-0.08130842260871834
7.174568173465638,-0.10027211572562031
7.207938257993385,-0.08917944752412948
7.241308342521132,-0.0750346354865057
7.27467842704888,-0.08764897049297717
7.308048511576627,-0.14784063640152054
7.341418596104374,-0.2580485016167463
7.374788680632121,-0.39869616651075795
7.408158765159868,-0.532095629504803
7.441528849687615,-0.6135162427918714
7.4748989342153624,-0.6065737900839357
7.50826901874311,-0.4979672758749943
7.541639103270857,-0.30577205377533395
7.575009187798604,-0.07683666989901201
7.608379272326351,0.12755211673504105
7.641749356854098,0.2536944474314723
7.675119441381845,0.27702668435270433
7.7084895259095925,0.2138632732459251
7.74185961043734,0.11701604320835453
7.775229694965087,0.055483325228059224
7.808599779492834,0.08573122229588948
7.841969864020581,0.22667025070434701
7.875339948548328,0.4496211511234741
7.908710033076075,0.6882680698725822
7.9420801176038225,0.8646015352338389
7.97545020213157,0.9195108558551891
8.008820286659317,0.8346373112293265
8.042190371187063,0.6363519721288302
8.075560455714811,0.38114878759550713
8.108930540242557,0.13021471739072824
8.142300624770305,-0.07459519882558864
8.175670709298052,-0.2226904678009442
8.2090407938258,-0.3304725862518402
8.242410878353546,-0.42492590587194323
8.275780962881294,-0.5247710975829109
8.30915104740904,-0.6291945954755616
8.342521131936788,-0.7192521312051704
8.375891216464534,-0.7697979415942329
8.409261300992283,-0.7642921217922123
8.442631385520029,-0.7040003617371438
8.476001470047777,-0.607028647825321
8.509371554575523,-0.49872087501740553
8.542741639103271,-0.3995799707168424
8.57611172363102,-0.31760478205651654
8.609481808158765,-0.2487327887112791
8.642851892686513,-0.18407074212491173
8.67622197721426,-0.11869443244940622
8.709592061742008,-0.056105543866641565
8.742962146269754,-0.005221425390976029
8.776332230797502,0.02855306081337669
8.809702315325248,0.05265897640678705
8.843072399852996,0.09060896296805863
8.876442484380743,0.1752943565367201
8.90981256890849,0.3337641801716651
8.943182653436237,0.5699595998064292
8.976552737963985,0.8541394164386238
9.009922822491731,1.1256875453685797
9.04329290701948,1.3102997229749158
9.076662991547225,1.3457547814828177
9.110033076074973,1.205872455170604
9.14340316060272,0.9122660550758201
9.176773245130468,0.528394366305224
9.210143329658214,0.13805450132002337
9.243513414185962,-0.18278100590051727
9.276883498713708,-0.38925804673502984
9.310253583241456,-0.47724368208260404
9.343623667769203,-0.4769298816997033
9.37699375229695,-0.4351237970621419
9.410363836824697,-0.39506412849859035
9.443733921352445,-0.3822982015650909
9.477104005880191,-0.40109340028917095
9.51047409040794,-0.44043283631117747
9.543844174935685,-0.4845660347983746
9.577214259463434,-0.5220449038787632
9.61058434399118,-0.5491959964336696
9.643954428518928,-0.5676311267710621
9.677324513046674,-0.578660024245131
9.710694597574422,-0.5787566175206851
9.744064682102168,-0.5591011660411708
9.777434766629916,-0.5094901634907096
9.810804851157663,-0.42417806149676623
9.84417493568541,-0.30603177540371207
9.877545020213157,-0.16638712052567967
9.910915104740905,-0.020566570994741913
9.944285189268651,0.11840971609122855
9.9776552737964,0.24436762851154348
10.011025358324146,0.3583376831315335
10.044395442851894,0.46478340829528947
10.07776552737964,0.5660750894278824
10.111135611907388,0.6583917121807987
10.144505696435134,0.7312092364136722
10.177875780962882,0.7704501461778185
10.211245865490628,0.7634977880926278
10.244615950018376,0.7036044557765613
10.277986034546123,0.5919448427139151
10.31135611907387,0.437084189508338
10.344726203601617,0.25295065540806794
10.378096288129365,0.05675397754505879
10.411466372657111,-0.1324064577419112
10.44483645718486,-0.29463082478537356
10.478206541712606,-0.4110693699367628
10.511576626240354,-0.46727608818300337
10.5449467107681,-0.4576360222701748
10.578316795295848,-0.38916176037688166
10.611686879823594,-0.28243511653924563
10.645056964351342,-0.168148008640099
10.678427048879088,-0.07936541360833153
10.711797133406836,-0.04158671938350182
10.745167217934583,-0.06405873732002901
10.77853730246233,-0.13590517349108178
10.811907386990077,-0.22921665788376702
10.845277471517825,-0.3086261494166373
10.878647556045571,-0.3440341136273147
10.91201764057332,-0.3213579505150744
10.945387725101066,-0.2465519851841378
10.978757809628814,-0.14089241386913218
11.01212789415656,-0.029629647000115087
11.045497978684308,0.07039267284475602
11.078868063212054,0.15766325562893038
11.112238147739802,0.2435462414667431
11.145608232267548,0.34149611761581417
11.178978316795297,0.4538128320905399
11.212348401323043,0.5636683169880418
11.24571848585079,0.6377379243280572
11.279088570378537,0.6392020583606107
11.312458654906285,0.5451457415301277
11.345828739434031,0.35969852226927657
11.37919882396178,0.11616729227664233
11.412568908489526,-0.1331481920262918
11.445938993017274,-0.3348401588256425
11.47930907754502,-0.4521115767530205
11.512679162072768,-0.47532537131545016
11.546049246600514,-0.42236269910078933
11.579419331128262,-0.3303118278875633
11.612789415656009,-0.24274369252709285
11.646159500183757,-0.19697634441315073
11.679529584711503,-0.21423386297072772
11.71289966923925,-0.29407225054420294
11.746269753766997,-0.4138018131322488
11.779639838294745,-0.5335395841189677
11.813009922822491,-0.6068944524107119
11.84638000735024,-0.5954547065988741
11.879750091877986,-0.4827944357523442
11.913120176405734,-0.28229335241634806
11.94649026093348,-0.034268233421168595
11.979860345461228,0.2080134730873391
12.013230429988974,0.39854910463862947
12.046600514516722,0.5163790211110467
12.079970599044469,0.5724152854273116
12.113340683572217,0.601391169250663
12.146710768099963,0.6420937087140447
12.180080852627711,0.7151336670658205
12.213450937155457,0.8093026244741592
12.246821021683205,0.8838082478011362
12.280191106210951,0.8859902131415235
12.3135611907387,0.7763268724627664
12.346931275266446,0.5487273562638053
12.380301359794194,0.23636556735229156
12.41367144432194,-0.099488419498099
12.447041528849688,-0.3918831137350428
12.480411613377434,-0.59108655067421
12.513781697905182,-0.6779845930439514
12.547151782432929,-0.6637351765558162
12.580521866960677,-0.5786564297765447
12.613891951488423,-0.45793454720094806
12.647262036016171,-0.3314761284486319
12.680632120543917,-0.22090459969157725
12.714002205071665,-0.1415006639225834
12.747372289599411,-0.10424140884859527
12.78074237412716,-0.1144620545396736
12.814112458654908,-0.16769790889258657
12.847482543182654,-0.2468206239849206
12.880852627710402,-0.32488902551086923
12.914222712238148,-0.37467802290375446
12.947592796765896,-0.38081166593920446
12.980962881293642,-0.3473549119564925
13.01433296582139,-0.295179333706223
13.047703050349137,-0.24909345598901966
13.081073134876885,-0.22131197010029738
13.114443219404631,-0.2010189599470453
13.147813303932379,-0.1571229352567641
13.181183388460125,-0.05402802932094978
13.214553472987873,0.12739639526951022
13.24792355751562,0.37486719154336895
13.281293642043368,0.6440710832359766
13.314663726571114,0.8731852893922225
13.348033811098862,1.005580978276768
13.381403895626608,1.0100186893547909
13.414773980154356,0.8896432648086267
13.448144064682102,0.6772100391874933
13.48151414920985,0.4205616698007303
13.514884233737597,0.1660112395618871
13.548254318265345,-0.053362739556244335
13.581624402793091,-0.22131812120916466
13.614994487320839,-0.3351968874855515
13.648364571848585,-0.39979215483696035
13.681734656376333,-0.42235360325351695
13.71510474090408,-0.41074373493292743
13.748474825431828,-0.37423746729291685
13.781844909959574,-0.3248716849937713
13.815214994487322,-0.27722482936792
13.848585079015068,-0.24572446743537532
13.881955163542816,-0.2401956083911273
13.915325248070562,-0.26154599592800576
13.94869533259831,-0.29976005437971065
13.982065417126057,-0.33565418456946333
14.015435501653805,-0.34636630098222443
14.048805586181551,-0.31284288934326154
14.082175670709299,-0.2264197936862288
14.115545755237045,-0.09170237995038755
14.148915839764793,0.07545483154832462
14.18228592429254,0.25365523141185226
14.215656008820288,0.4222473773010506
14.249026093348034,0.564945376186626
14.282396177875782,0.6693928329935631
14.315766262403528,0.7240978182428593
14.349136346931276,0.7161818454779372
14.382506431459023,0.6332026230811346
14.41587651598677,0.46980710818901383
14.449246600514517,0.23646671995282448
14.482616685042265,-0.03489847198824806
14.515986769570011,-0.2933486416534836
14.54935685409776,-0.48115951168890947
14.582726938625505,-0.5528564650020396
14.616097023153253,-0.49400349119639964
14.649467107681,-0.3314494766605829
14.682837192208748,-0.12909149655407265
14.716207276736494,0.03153569199187546
14.749577361264242,0.08029085159528934
14.782947445791988,-0.013323888810492932
14.816317530319736,-0.22438936387913502
14.849687614847483,-0.4775094393132482
14.88305769937523,-0.6730186137666395
14.916427783902977,-0.7257242639326672
14.949797868430725,-0.6006811794362457
14.983167952958471,-0.3300613317751296
15.01653803748622,-0.002331627591225075
15.049908122013965,0.2729275744656901
15.083278206541713,0.4097889175074844
15.11664829106946,0.3806440008952054
15.150018375597208,0.22547897967637248
15.183388460124954,0.03217875747753056
15.216758544652702,-0.10247259391398514
15.250128629180448,-0.11310527421254014
15.283498713708196,0.010189017614259914
15.316868798235943,0.22315477769753614
15.35023888276369,0.4510117094565091
15.383608967291437,0.6217071286147257
15.416979051819185,0.6930908212933834
15.450349136346931,0.6629628719514289
15.48371922087468,0.560302769919006
15.517089305402425,0.4251043400360783
15.550459389930174,0.28866831074967847
15.58382947445792,0.16417359723392597
15.617199558985668,0.05046907890642009
15.650569643513414,-0.055734206513203176
15.683939728041162,-0.14854566186674126
15.717309812568908,-0.21061248783778302
15.750679897096656,-0.22213242171447203
15.784049981624403,-0.17612841812440985
15.81742006615215,-0.09043389611297109
15.850790150679897,-0.007774764436088076
15.884160235207645,0.01857937045729082
15.917530319735391,-0.051930631807365346
15.95090040426314,-0.22614046378722338
15.984270488790886,-0.4694533359304002
16.017640573318634,-0.7164038893287896
16.05101065784638,-0.8953735425132751
16.084380742374126,-0.9560977923649762
16.117750826901876,-0.887224264904274
16.151120911429622,-0.71642994818084
16.18449099595737,-0.49450160316677794
16.217861080485115,-0.27236164328876394
16.251231165012864,-0.0823261730484554
16.28460124954061,0.06878982344815505
16.317971334068357,0.19406191140349285
16.351341418596103,0.3137393021786806
16.384711503123853,0.4429032341671276
16.4180815876516,0.5847702327804942
16.451451672179346,0.7306026833707886
16.484821756707092,0.8637431114949461
16.51819184123484,0.9644488814088709
16.551561925762588,1.0136486592898248
16.584932010290334,0.9957387499923741
16.61830209481808,0.9014224724208286
16.65167217934583,0.7309210823784528
16.685042263873576,0.49650554173724126
16.718412348401323,0.22253130104099478
16.75178243292907,-0.0582477113079253
16.78515251745682,-0.31164977352484496
16.818522601984565,-0.510182801465391
16.85189268651231,-0.6394233927473068
16.885262771040058,-0.7003528098839837
16.918632855567807,-0.7069171992743293
16.952002940095554,-0.6799096120048004
16.9853730246233,-0.6396077007528735
17.018743109151046,-0.5999236407402121
17.052113193678796,-0.5659966885839744
17.085483278206542,-0.5355296199241064
17.11885336273429,-0.5025072585003318
17.15222344726204,-0.4610918582971459
17.185593531789785,-0.4078848911640236
17.21896361631753,-0.34203795723313285
17.252333700845277,-0.2639918476063843
17.285703785373027,-0.17411735889721883
