Time (s),Filtered Signal
0.0,0.009764839147186219
0.03337028824833703,-0.12413215528381556
0.06674057649667406,-0.2173244125714237
0.10011086474501109,-0.24378713182026016
0.13348115299334812,-0.20063833292680472
0.16685144124168516,-0.10614110108649795
0.20022172949002218,0.010499497769785135
0.2335920177383592,0.1218193482198914
0.26696230598669624,0.21101850211950696
0.3003325942350333,0.2736628524127305
0.3337028824833703,0.31296940266112194
0.3670731707317073,0.3327726024531433
0.40044345898004435,0.33287358336768574
0.4338137472283814,0.30932751121679364
0.4671840354767184,0.258827097062065
0.5005543237250555,0.18377895015971704
0.5339246119733925,0.09437038858022682
0.5672949002217295,0.005894958182264222
0.6006651884700666,-0.06743964521184982
0.6340354767184035,-0.11879654606363041
0.6674057649667406,-0.15142369654317217
0.7007760532150776,-0.1759477131763183
0.7341463414634146,-0.20329401740806854
0.7675166297117517,-0.23677116202748774
0.8008869179600887,-0.26766544316201435
0.8342572062084257,-0.27731046041986807
0.8676274944567628,-0.24552589801091126
0.9009977827050998,-0.16192020407980826
0.9343680709534368,-0.0345228075006091
0.9677383592017739,0.10919231807470234
1.001108647450111,0.2305508568642244
1.0344789356984478,0.2942885047432804
1.067849223946785,0.2830952925529612
1.101219512195122,0.2051780799859895
1.134589800443459,0.09100120854557936
1.167960088691796,-0.01943609554025162
1.2013303769401331,-0.09280997935878137
1.23470066518847,-0.11464339073240333
1.268070953436807,-0.0922463077078004
1.3014412416851442,-0.04809312026501474
1.3348115299334813,-0.007949268130161294
1.3681818181818182,0.009999309832112295
1.4015521064301553,0.000294388843552157
1.4349223946784924,-0.0313516710812563
1.4682926829268292,-0.07373470515653914
1.5016629711751663,-0.1159231206684858
1.5350332594235034,-0.15016516164093124
1.5684035476718403,-0.17152981528313502
1.6017738359201774,-0.17609606946785283
1.6351441241685145,-0.16013905700856948
1.6685144124168514,-0.12163475239663224
1.7018847006651885,-0.0633785368727247
1.7352549889135256,0.004603367313581592
1.7686252771618625,0.06583043376593742
1.8019955654101996,0.10227778961088017
1.8353658536585367,0.1018852836714933
1.8687361419068735,0.0651327809935283
1.9021064301552106,0.006960640578068192
1.9354767184035477,-0.047690837345211776
1.9688470066518848,-0.073227555916524
2.002217294900222,-0.05349831718221936
2.035587583148559,0.011987579248091762
2.0689578713968957,0.10838611122053364
2.102328159645233,0.2117701740693518
2.13569844789357,0.2979623085478543
2.1690687361419068,0.3498616696125479
2.202439024390244,0.36059289647234016
2.235809312638581,0.3323154043617539
2.269179600886918,0.272613753851451
2.302549889135255,0.1909924812160967
2.335920177383592,0.09707254058883999
2.369290465631929,0.0004592819226765029
2.4026607538802662,-0.08897014619570004
2.436031042128603,-0.16171875991377094
2.46940133037694,-0.2106699577473949
2.5027716186252773,-0.23356220460202676
2.536141906873614,-0.23434702949594394
2.569512195121951,-0.22218753121003754
2.6028824833702884,-0.2080732724396398
2.6362527716186253,-0.20038054747370185
2.6696230598669626,-0.20139968468140595
2.7029933481152995,-0.20649951889716117
2.7363636363636363,-0.20640152090587321
2.7697339246119737,-0.19160184235991948
2.8031042128603105,-0.15698819745826162
2.8364745011086474,-0.10458963579232868
2.8698447893569847,-0.04320527570899653
2.9032150776053216,0.014979650014592569
2.9365853658536585,0.059359140883792516
2.969955654101996,0.08530442907960907
3.0033259423503327,0.09603834706608018
3.0366962305986696,0.10106644835786446
3.070066518847007,0.1117252315710121
3.1034368070953438,0.13572876090749705
3.1368070953436806,0.17315700625036104
3.170177383592018,0.2157924327291571
3.203547671840355,0.25022189066643025
3.2369179600886917,0.26334030429281496
3.270288248337029,0.2477205778507373
3.303658536585366,0.20439882202046347
3.337028824833703,0.14195343475239974
3.37039911308204,0.07262228238202371
3.403769401330377,0.007594536734847348
3.437139689578714,-0.04619607583435643
3.470509977827051,-0.08650759923393901
3.503880266075388,-0.11385547583171386
3.537250554323725,-0.12893218144592336
3.5706208425720622,-0.13133338098102101
3.603991130820399,-0.12054112973093731
3.637361419068736,-0.09847347029360913
3.6707317073170733,-0.0716352305515464
3.70410199556541,-0.05083282479078935
3.737472283813747,-0.04769392548236687
3.7708425720620844,-0.06920152114658132
3.8042128603104213,-0.11299675754603986
3.8375831485587586,-0.16635892648649175
3.8709534368070955,-0.210245712541824
3.9043237250554323,-0.2271843616511799
3.9376940133037697,-0.20945160730003234
3.9710643015521065,-0.16325618883779539
4.004434589800444,-0.1062234896649747
4.037804878048781,-0.05881331952753788
4.071175166297118,-0.03369909064062192
4.1045454545454545,-0.02865342753928722
4.137915742793791,-0.027049546148793388
4.171286031042128,-0.006241313585531153
4.204656319290466,0.0501834349392474
4.238026607538803,0.14258933153776623
4.27139689578714,0.25317675747417634
4.304767184035477,0.3528628166420277
4.3381374722838135,0.41374890446827034
4.371507760532151,0.4209066422981698
4.404878048780488,0.37775560010955384
4.438248337028825,0.30283770456192166
4.471618625277162,0.22025858176357035
4.504988913525499,0.1490181790134027
4.538359201773836,0.09644680328043714
4.571729490022173,0.058274704993932905
4.60509977827051,0.02419306054620209
4.638470066518847,-0.014829762596094297
4.671840354767184,-0.06148560768464569
4.705210643015521,-0.11145709232734714
4.738580931263858,-0.15661157011644403
4.771951219512196,-0.18965124498978306
4.8053215077605325,-0.20759742017379523
4.838691796008869,-0.2126782141387901
4.872062084257206,-0.21077966877017834
4.905432372505543,-0.20865718588502893
4.93880266075388,-0.2112666498028225
4.972172949002218,-0.22014280796799593
5.005543237250555,-0.23316545727503016
5.0389135254988915,-0.24555159229978937
5.072283813747228,-0.25153592940631925
5.105654101995565,-0.24600056899440115
5.139024390243902,-0.22541707598875105
5.17239467849224,-0.18792227194536137
5.205764966740577,-0.13294775431644898
5.239135254988914,-0.06114515485847221
5.2725055432372505,0.024905647953144355
5.305875831485587,0.11944515622047827
5.339246119733925,0.21269266626843394
5.372616407982262,0.29152821461365935
5.405986696230599,0.34221002115909144
5.439356984478936,0.35455162725642386
5.472727272727273,0.3260093497443294
5.5060975609756095,0.2638328187068266
5.539467849223947,0.18401521251983935
5.572838137472284,0.10700813029298532
5.606208425720621,0.05150608073414625
5.639578713968958,0.028483731901296428
5.672949002217295,0.037701995210156485
5.706319290465632,0.0680378488783365
5.7396895787139695,0.10155557848903535
5.773059866962306,0.11980472083337564
5.806430155210643,0.1100104958572297
5.83980044345898,0.06896773497524168
5.873170731707317,0.0034704738357348645
5.906541019955654,-0.07248924403850744
5.939911308203992,-0.14238701625823547
5.9732815964523285,-0.19192638152164107
6.006651884700665,-0.21249089657396278
6.040022172949002,-0.20266307859763225
6.073392461197339,-0.16787710207626794
6.106762749445676,-0.11858438933541514
6.140133037694014,-0.06733724593525624
6.173503325942351,-0.025278178471574306
6.2068736141906875,0.0011313018130322263
6.240243902439024,0.011929712481655788
6.273614190687361,0.012945049660974045
6.306984478935698,0.012460312602102772
6.340354767184036,0.016640823176158618
6.373725055432373,0.026137381249305758
6.40709534368071,0.035973784518397486
6.4404656319290465,0.03910127234795919
6.473835920177383,0.03176578287712407
6.507206208425721,0.017477081212381975
6.540576496674058,0.006862843502798208
6.573946784922395,0.01290403009521653
6.607317073170732,0.04375006866781578
6.640687361419069,0.09689594286135132
6.674057649667406,0.15798319603280994
6.707427937915743,0.2051365753156917
6.74079822616408,0.21693437145934488
6.774168514412417,0.18041495000955685
6.807538802660754,0.09575250121127371
6.840909090909091,-0.023978292030004386
6.874279379157428,-0.15732581376188648
6.9076496674057655,-0.2811233345144414
6.941019955654102,-0.37675328389674895
6.974390243902439,-0.43405584848022655
7.007760532150776,-0.45200634811693374
7.041130820399113,-0.4364595464634587
7.07450110864745,-0.3962242404902592
7.107871396895788,-0.33922810369107986
7.1412416851441245,-0.27034977201913074
7.174611973392461,-0.19162414220366783
7.207982261640798,-0.10429947607682813
7.241352549889135,-0.01123983873437178
7.274722838137472,0.08201566052600869
7.30809312638581,0.16843457707999523
7.341463414634147,0.2424261737670408
7.3748337028824835,0.30282579673758786
7.40820399113082,0.35391727314812604
7.441574279379157,0.4033673770091466
7.474944567627494,0.457640229945403
7.508314855875832,0.5170632206563235
7.541685144124169,0.5732876449090246
7.575055432372506,0.6109830847785416
7.6084257206208425,0.613567797635626
7.641796008869179,0.5705929423127276
7.675166297117517,0.4832056355216993
7.708536585365854,0.36464796275767364
7.741906873614191,0.23494975533307183
7.775277161862528,0.11193178815284455
7.808647450110865,0.0028999613756291926
7.842017738359202,-0.09837142651279049
7.875388026607539,-0.20708205773321856
7.908758314855876,-0.33695491893225654
7.942128603104213,-0.4891521911339954
7.97549889135255,-0.6468108409069518
8.008869179600888,-0.7789033016390369
8.042239467849225,-0.8521950215541959
8.075609756097561,-0.8455584109917592
8.108980044345898,-0.7595365633653673
8.142350332594235,-0.6166168933290336
8.175720620842572,-0.45249446388191744
8.209090909090909,-0.30277685481810507
8.242461197339246,-0.19098611707620944
8.275831485587583,-0.12219748040445984
8.30920177383592,-0.08369068569494967
8.342572062084257,-0.05135180383507311
8.375942350332595,0.0008180421149973235
8.409312638580932,0.09098912033266421
8.442682926829269,0.2222157216715547
8.476053215077606,0.3797176251448453
8.509423503325943,0.5339804592204072
8.54279379157428,0.6493560642949985
8.576164079822616,0.6958115072300437
8.609534368070953,0.6598204421282796
8.64290465631929,0.550130376390732
8.676274944567627,0.39575989557918795
8.709645232815964,0.23658982215538005
8.743015521064303,0.10998803686009362
8.77638580931264,0.03857908812344968
8.809756097560976,0.023740332331918565
8.843126385809313,0.0469839834955555
8.87649667405765,0.07825206099714702
8.909866962305987,0.08767261149511082
8.943237250554324,0.056374492035104175
8.97660753880266,-0.0173444133462318
9.009977827050998,-0.1183222738316073
9.043348115299334,-0.22081065076358383
9.076718403547671,-0.29819402802614287
9.110088691796008,-0.33251259595223626
9.143458980044347,-0.32032182458124586
9.176829268292684,-0.2728403636701287
9.21019955654102,-0.21052499257859517
9.243569844789358,-0.15437439002226197
9.276940133037694,-0.11755741546309546
9.310310421286031,-0.10081465353358417
9.343680709534368,-0.09347435159662598
9.377050997782705,-0.07948207872614581
9.410421286031042,-0.04563565581206183
9.443791574279379,0.011722696919588839
9.477161862527716,0.08450762436520824
9.510532150776053,0.15598261630187793
9.543902439024391,0.20749958949071537
9.577272727272728,0.22571690780031248
9.610643015521065,0.2072056040448198
9.644013303769402,0.15885910696953187
9.677383592017739,0.0945487033813003
9.710753880266076,0.029944638138476393
9.744124168514412,-0.02225975285757254
9.77749445676275,-0.055203178707170224
9.810864745011086,-0.06840274750946092
9.844235033259423,-0.06650271496051087
9.87760532150776,-0.05710452056886459
9.910975609756099,-0.048455420053908634
9.944345898004435,-0.04744495214403546
9.977716186252772,-0.05805318433870934
10.01108647450111,-0.08028161766256693
10.044456762749446,-0.10971453990844343
10.077827050997783,-0.13806789306872097
10.11119733924612,-0.15510890727567983
10.144567627494457,-0.15193675805173637
10.177937915742794,-0.12483536861553758
10.21130820399113,-0.07813711425296221
10.244678492239467,-0.02435111579788476
10.278048780487804,0.019392442583492223
10.311419068736143,0.037886734329327335
10.34478935698448,0.024931353627937147
10.378159645232817,-0.012357084994630955
10.411529933481154,-0.05458939892505399
10.44490022172949,-0.07686716023476549
10.478270509977827,-0.05887988351487508
10.511640798226164,0.005945319423491048
10.545011086474501,0.10648692452094723
10.578381374722838,0.21728099330905024
10.611751662971175,0.3079949632148179
10.645121951219512,0.3549510361290338
10.67849223946785,0.3496284983660298
10.711862527716187,0.30052424405946704
10.745232815964524,0.2279528395355511
10.778603104212861,0.15468561102080353
10.811973392461198,0.09705440352754405
10.845343680709535,0.06044793418178479
10.878713968957872,0.040512563929630825
10.912084257206208,0.028358835827501875
10.945454545454545,0.016308800323760187
10.978824833702882,0.0010226115049395907
11.012195121951219,-0.017169175196170925
11.045565410199556,-0.037502491631564626
11.078935698447895,-0.06192461353489846
11.112305986696231,-0.09572281169702322
11.145676274944568,-0.14485417302140774
11.179046563192905,-0.2112441809003825
11.212416851441242,-0.28866589855548497
11.245787139689579,-0.36179244393309407
11.279157427937916,-0.40967521258990774
11.312527716186253,-0.4128561451385405
11.34589800443459,-0.3614551640201795
11.379268292682926,-0.26071437511792867
11.412638580931263,-0.1311349973010595
11.4460088691796,-0.002442350191292255
11.479379157427939,0.09661736889560274
11.512749445676276,0.14849992455076022
11.546119733924613,0.15264909564929557
11.57949002217295,0.12430117095869563
11.612860310421286,0.08704605793032905
11.646230598669623,0.06281016161724225
11.67960088691796,0.06388962492203958
11.712971175166297,0.0901885003173512
11.746341463414634,0.13187561636373443
11.77971175166297,0.17504592493832952
11.813082039911308,0.20709431731066533
11.846452328159646,0.21960145449719215
11.879822616407983,0.2085746378623223
11.91319290465632,0.17343259135209582
11.946563192904657,0.1163038290128338
11.979933481152994,0.042231356657294265
12.01330376940133,-0.04030649722330131
12.046674057649668,-0.11965051967258039
12.080044345898004,-0.1826806275378093
12.113414634146341,-0.21780989625228497
12.146784922394678,-0.21828760239510522
12.180155210643015,-0.1845341497047823
12.213525498891352,-0.12444767546392779
12.24689578713969,-0.05129054446464977
12.280266075388028,0.02029363747643113
12.313636363636364,0.07870696901734128
12.347006651884701,0.11849731160143653
12.380376940133038,0.14085914409848171
12.413747228381375,0.15146250703506495
12.447117516629712,0.15681288975614943
12.480487804878049,0.16096287505495643
12.513858093126386,0.16402561954263759
12.547228381374723,0.1628778288560401
12.58059866962306,0.15336425216143068
12.613968957871396,0.1327881635811168
12.647339246119735,0.10160078731798014
12.680709534368072,0.06370210485032397
12.714079822616409,0.025289277982508095
12.747450110864746,-0.007400658625005015
12.780820399113082,-0.030754834375731094
12.81419068736142,-0.045845119582130806
12.847560975609756,-0.05879129664481355
12.880931263858093,-0.07875477095225673
12.91430155210643,-0.11387939447442658
12.947671840354767,-0.16668437707116346
12.981042128603104,-0.23112501092361767
13.014412416851442,-0.2931872891125171
13.04778270509978,-0.33541081424021985
13.081152993348116,-0.3437566524050677
13.114523281596453,-0.31379409939483976
13.14789356984479,-0.25317198723252793
13.181263858093127,-0.1789486644000062
13.214634146341464,-0.1108347062424653
13.2480044345898,-0.06343357691789983
13.281374722838137,-0.04101670501239197
13.314745011086474,-0.037003974273776344
13.348115299334811,-0.037952719333283466
13.381485587583148,-0.029823848341099024
13.414855875831487,-0.0036012457537858505
13.448226164079824,0.041888072791457905
13.48159645232816,0.10054843068867753
13.514966740576497,0.16214941879106684
13.548337028824834,0.2164651008056286
13.581707317073171,0.2569077667751146
13.615077605321508,0.2826272735590558
13.648447893569845,0.29858603677425355
13.681818181818182,0.3135379010970849
13.715188470066519,0.33622416434699426
13.748558758314855,0.370640006291574
13.781929046563192,0.41192004377973584
13.815299334811531,0.44487244307765816
13.848669623059868,0.44685567357358724
13.882039911308205,0.3951816322877345
13.915410199556542,0.2769248225186788
13.948780487804878,0.09709616956597954
13.982150776053215,-0.11904030532886069
14.015521064301552,-0.3315995532186524
14.048891352549889,-0.4981347782997979
14.082261640798226,-0.5874098974604475
14.115631929046563,-0.5892233461493037
14.1490022172949,-0.516463434860174
14.182372505543238,-0.3991256574196932
14.215742793791575,-0.2733296468487113
14.249113082039912,-0.1698767358040183
14.282483370288249,-0.10625074108937481
14.315853658536586,-0.08398709294112353
14.349223946784923,-0.09120921605899476
14.38259423503326,-0.10867642659723949
14.415964523281596,-0.11708892919121408
14.449334811529933,-0.10343819511466826
14.48270509977827,-0.06464598087359151
14.516075388026607,-0.007533980849683827
14.549445676274944,0.05472144033179114
14.582815964523283,0.10828330785424219
14.61618625277162,0.1442679852976272
14.649556541019956,0.1619994846322805
14.682926829268293,0.16854621773519401
14.71629711751663,0.17476826482179414
14.749667405764967,0.18967779684582772
14.783037694013304,0.2157321116207258
14.81640798226164,0.24728188908956614
14.849778270509978,0.27289929727868084
14.883148558758315,0.2804200047752286
14.916518847006651,0.2622282756662217
14.949889135254988,0.21828954455385735
14.983259423503327,0.1556722089501121
15.016629711751664,0.08508290323625284
15.05,0.016306167397162855
15.083370288248338,-0.045246995765992386
15.116740576496674,-0.0994312822580459
15.150110864745011,-0.14957325076798475
15.183481152993348,-0.19910035646068458
15.216851441241685,-0.24835193615376666
15.250221729490022,-0.29319429357975146
15.283592017738359,-0.3262211132723655
15.316962305986696,-0.34009432957463265
15.350332594235034,-0.3314631388733987
15.383702882483371,-0.30342494213845006
15.417073170731708,-0.26499859565277234
15.450443458980045,-0.2274613059215251
15.483813747228382,-0.19904296748916314
15.517184035476719,-0.18049881173420915
15.550554323725056,-0.16383425498186563
15.583924611973393,-0.13495189177023953
15.61729490022173,-0.07902550285731798
15.650665188470066,0.013863796625462912
15.684035476718403,0.14510111245427706
15.71740576496674,0.30673771729644167
15.750776053215079,0.4827146485763964
15.784146341463416,0.6507422356150478
15.817516629711752,0.784322216525776
15.85088691796009,0.8557879407048794
15.884257206208426,0.8416542508575231
15.917627494456763,0.7301690152836635
15.9509977827051,0.5284792118245496
15.984368070953437,0.26524066962495096
16.017738359201775,-0.014471272110296732
16.05110864745011,-0.26150271904321915
16.08447893569845,-0.4376569373011798
16.117849223946784,-0.5269138160612806
16.151219512195123,-0.5379094453318637
16.184589800443458,-0.49700804853390856
16.217960088691797,-0.43574844841684235
16.251330376940132,-0.37867387847045275
16.28470066518847,-0.33661186038696456
16.31807095343681,-0.3072232932483955
16.351441241685144,-0.2810275259703353
16.384811529933483,-0.24896284642584765
16.418181818181818,-0.20765222819085277
16.451552106430157,-0.16044030417630678
16.48492239467849,-0.11467978631233416
16.51829268292683,-0.07740534218780734
16.551662971175165,-0.0518208316527024
16.585033259423504,-0.03613925312400454
16.61840354767184,-0.024950948537553946
16.651773835920178,-0.012148254569497623
16.685144124168513,0.006125571698133177
16.71851441241685,0.029949333209038823
16.75188470066519,0.056311223696940985
16.785254988913525,0.0817378279489616
16.818625277161864,0.10546150190735767
16.8519955654102,0.1311120764744113
16.885365853658538,0.1653898186002608
16.918736141906873,0.2137751112352617
16.95210643015521,0.27530216556273795
16.985476718403547,0.3395318591340423
17.018847006651885,0.38819339051870366
17.05221729490022,0.401654736587852
17.08558758314856,0.36762813630893504
17.118957871396898,0.28789664806007065
