Frequency (Hz),Amplitude
0.0,0.39292187795625866
0.019823788546255508,0.4035285730196379
0.039647577092511016,0.43375654675596753
0.059471365638766524,0.47980722012535854
0.07929515418502203,0.5374739220445022
0.09911894273127755,0.6032416950079832
0.11894273127753305,0.6745240998417206
0.13876651982378857,0.7495075989034662
0.15859030837004406,0.8269288656935181
0.17841409691629956,0.9058946682439695
0.1982378854625551,0.9857572442787897
0.2180616740088106,1.066032572078831
0.2378854625550661,1.1463474926618804
0.25770925110132165,1.226405351316408
0.27753303964757714,1.3059633944106481
0.29735682819383263,1.3848176630449727
0.31718061674008813,1.4627927258477773
0.3370044052863437,1.5397345837821053
0.3568281938325991,1.6155056889409072
0.37665198237885467,1.6899813959324497
0.3964757709251102,1.7630473999774832
0.41629955947136565,1.834597865204888
0.4361233480176212,1.904534042811089
0.4559471365638767,1.9727632416448817
0.4757709251101322,2.0391980555439346
0.49559471365638774,2.103755779895176
0.5154185022026433,2.1663579691298978
0.5352422907488987,2.2269301001945023
0.5550660792951543,2.2854013163915767
0.5748898678414097,2.3417042326313
0.5947136563876653,2.3957747879080133
0.6145374449339208,2.4475521342849595
0.6343612334801763,2.496978554216144
0.6541850220264318,2.543999399920957
0.6740088105726874,2.588563049938331
0.6938325991189428,2.6306208790527608
0.7136563876651982,2.6701272385949197
0.7334801762114539,2.7070394447421626
0.7533039647577093,2.741317772925157
0.7731277533039648,2.7729254568223856
0.7929515418502204,2.8018286907185956
0.8127753303964759,2.827996634237058
0.8325991189427313,2.8514014186412493
0.8524229074889869,2.8720181540517875
0.8722466960352424,2.8898249370456828
0.8920704845814978,2.9048028582051004
0.9118942731277534,2.9169360092652625
0.931718061674009,2.926211489580679
0.9515418502202644,2.932619411688156
0.9713656387665199,2.9361529057963316
0.9911894273127755,2.9368081230772813
1.0110132158590308,2.9345842376770226
1.0308370044052866,2.929483447400419
1.0506607929515421,2.921510973063346
1.0704845814977975,2.910675056541968
1.090308370044053,2.896986957586963
1.1101321585903086,2.880460949510808
1.1299559471365639,2.8611143139002086
1.1497797356828194,2.8389673345546815
1.1696035242290752,2.8140432909085398
1.1894273127753305,2.7863684512588778
1.209251101321586,2.755972066199435
1.2290748898678416,2.7228863627534516
1.248898678414097,2.6871465398111223
1.2687224669603525,2.648790765616081
1.288546255506608,2.6078601782166952
1.3083700440528636,2.564398890012339
1.3281938325991192,2.518453997794556
1.3480176211453747,2.470075600025452
1.36784140969163,2.4193168235335656
1.3876651982378856,2.3662338623716965
1.4074889867841411,2.3108860323141966
1.4273127753303965,2.2533358454308954
1.4471365638766522,2.1936491104419864
1.4669603524229078,2.131895066245956
1.4867841409691631,2.0681465582810685
1.5066079295154187,2.0024802704589177
1.5264317180616742,1.9349770296282984
1.5462555066079295,1.8657222053724156
1.5660792951541853,1.794806236132283
1.5859030837004409,1.72232532425866
1.6057268722466962,1.6483823592623823
1.6255506607929517,1.573088152777654
1.6453744493392073,1.496563104514851
1.6651982378854626,1.4189394719994586
1.6850220264317182,1.3403644982070262
1.7048458149779737,1.261004776656177
1.7246696035242293,1.1810524300607794
1.7444933920704848,1.1007339910619893
1.7643171806167404,1.0203233764416397
1.7841409691629957,0.9401611622808109
1.8039647577092512,0.8606836906781591
1.8237885462555068,0.7824676421792981
1.8436123348017623,0.7062988481144112
1.863436123348018,0.633277996271642
1.8832599118942732,0.5649775962340818
1.9030837004405288,0.5036522772771168
1.9229074889867843,0.4524438169659343
1.9427312775330399,0.41535478830151046
1.9625550660792954,0.3965373579979484
1.982378854625551,0.3986709301929568
2.002202643171806,0.4214357513563717
2.0220264317180616,0.46171584123041753
2.041850220264317,0.5152885123809151
2.061674008810573,0.5782965099054409
2.0814977973568287,0.6477852902861864
2.1013215859030843,0.721653968800789
2.1211453744493394,0.798438818654269
2.140969162995595,0.8771120854029021
2.1607929515418505,0.9569361794039317
2.180616740088106,1.0373664815448
2.2004405286343616,1.117988231184277
2.220264317180617,1.198475608531487
2.2400881057268722,1.2785649482729
2.2599118942731278,1.3580369453672212
2.2797356828193833,1.4367046378288217
2.299559471365639,1.5144051541263703
2.319383259911895,1.5909939537973516
2.3392070484581504,1.666340747008614
2.3590308370044055,1.7403265634319245
2.378854625550661,1.8128416203687692
2.3986784140969166,1.883783755022968
2.418502202643172,1.953057260564165
2.4383259911894277,2.020572014971723
2.4581497797356833,2.0862428247179645
2.4779735682819384,2.1499889278328794
2.497797356828194,2.2117336163895795
2.5176211453744495,2.2714039492724325
2.537444933920705,2.328930533742083
2.5572687224669606,2.384247359785859
2.577092511013216,2.4372916752024967
2.5969162995594717,2.4880038922649503
2.6167400881057272,2.536327518942567
2.6365638766519828,2.5822091092574038
2.6563876651982383,2.6255982285476467
2.676211453744494,2.666447430320377
2.6960352422907494,2.7047122420712246
2.715859030837005,2.740351157984983
2.73568281938326,2.7733256368478325
2.7555066079295156,2.803600103828271
2.775330396475771,2.831141955041736
2.7951541850220267,2.8559215640184004
2.8149779735682823,2.8779122893585156
2.834801762114538,2.8970904829920694
2.854625550660793,2.9134354985688136
2.874449339207049,2.9269296995936074
2.8942731277533045,2.937558466997636
2.91409691629956,2.9453102058990845
2.9339207048458156,2.9501763513618413
2.953744493392071,2.9521513730088524
2.9735682819383262,2.9512327783901386
2.993392070484582,2.9474211150454783
3.0132158590308373,2.9407199712398455
3.033039647577093,2.931135975387363
3.0528634361233484,2.9186787942172305
3.072687224669604,2.9033611297750768
3.092511013215859,2.885198715396106
3.1123348017621146,2.8642103108340016
3.1321585903083706,2.840417696783441
3.151982378854626,2.813845669096586
3.1718061674008817,2.784522033067748
3.1916299559471373,2.7524775982478054
3.2114537444933924,2.7177461743566194
3.231277533039648,2.6803645689916453
3.2511013215859035,2.64037258799085
3.270925110132159,2.597813039508157
3.2907488986784146,2.5527317431099026
3.31057268722467,2.5051775455178684
3.3303964757709252,2.455202345028321
3.350220264317181,2.4028611271558806
3.3700440528634363,2.3482120147226495
3.389867841409692,2.291316336490092
3.4096916299559474,2.2322387195847897
3.4295154185022034,2.1710472124999884
3.4493392070484585,2.1078134475043457
3.469162995594714,2.042612854059074
3.4889867841409696,1.975524938624246
3.508810572687225,1.906633651447613
3.5286343612334807,1.8360278681953948
3.5484581497797363,1.7638020245325265
3.5682819383259914,1.6900569563899772
3.588105726872247,1.6149010198130676
3.6079295154185025,1.538451595296052
3.627753303964758,1.4608371276129204
3.6475770925110136,1.3821999217158625
3.667400881057269,1.3027000218242633
3.6872246696035247,1.222520666533353
3.7070484581497802,1.141876074286681
3.726872246696036,1.0610227317337984
3.7466960352422913,0.9802760327068135
3.7665198237885464,0.9000352086961013
3.7863436123348024,0.8208212407072007
3.8061674008810575,0.7433351213669087
3.8259911894273135,0.6685474518755714
3.8458149779735686,0.5978333933298313
3.8656387665198246,0.53316225368316
3.8854625550660797,0.477315137006463
3.905286343612335,0.433986022427976
3.925110132158591,0.4073974994354745
3.9449339207048464,0.4010192759071052
3.964757709251102,0.41582040663485914
3.9845814977973575,0.44967313613392546
4.004405286343612,0.4986065707136728
4.024229074889869,0.55851606225537
4.044052863436123,0.6260664514169526
4.06387665198238,0.6988255238947898
4.083700440528634,0.7750871147653186
4.103524229074891,0.8536568872771488
4.123348017621146,0.9336846803179494
4.143171806167401,1.0145494365157215
4.162995594713657,1.095783705577795
4.182819383259912,1.1770246170998269
4.2026431718061685,1.2579818670399336
4.222466960352423,1.338416547218513
4.242290748898679,1.4181269244329835
4.262114537444934,1.4969387289101757
4.28193832599119,1.5746984136858069
4.301762114537445,1.6512684035537046
4.321585903083701,1.7265236983882077
4.3414096916299565,1.8003494132103817
4.361233480176212,1.8726389760281432
4.381057268722468,1.94329279418247
4.400881057268723,2.012217258851184
4.420704845814979,2.079323996646073
4.440528634361234,2.1445293038148283
4.46035242290749,2.2077537167895604
4.4801762114537445,2.268921685496146
4.500000000000001,2.327961324759761
4.5198237885462555,2.3848042254966697
4.539647577092512,2.439385311961562
4.559471365638767,2.491642734654101
4.579295154185023,2.5415177909414077
4.599118942731278,2.5889548672755156
4.618942731277533,2.6339013982505963
4.63876651982379,2.6763078387777974
4.658590308370044,2.716127646443298
4.678414096916301,2.7533172717207646
4.6982378854625555,2.78783615417854
4.718061674008811,2.8196467231886357
4.737885462555067,2.8487144019326687
4.757709251101322,2.8750076137288154
4.777533039647578,2.898497789886491
4.797356828193833,2.9191593784431027
4.817180616740089,2.9369698532569366
4.837004405286344,2.951909723029082
4.856828193832599,2.963962539909005
4.876651982378855,2.9731149074078425
4.896475770925111,2.979356487402365
4.9162995594713665,2.9826800060643714
4.936123348017622,2.9830812585963478
4.955947136563877,2.9805591126964135
4.975770925110133,2.97511551071492
4.995594713656388,2.966755470504328
5.015418502202644,2.9554870850017383
5.035242290748899,2.9413215206242604
5.055066079295155,2.9242730145995477
5.07488986784141,2.904358871401195
5.094713656387666,2.881599458510994
5.114537444933921,2.8560182017912887
5.134361233480177,2.8276415808210134
5.154185022026432,2.7964991246340425
5.174008810572688,2.762623408399439
5.193832599118943,2.7260500517074258
5.213656387665199,2.686817719276626
5.2334801762114544,2.6449681250870976
5.25330396475771,2.6005460411794377
5.2731277533039655,2.5535993126585415
5.292951541850221,2.5041788808181846
5.312775330396477,2.452338816787758
5.332599118942731,2.398136368726981
5.352422907488988,2.34163202640766
5.372246696035242,2.2828896080868746
5.392070484581499,2.2219763759850917
5.4118942731277535,2.158963188560705
5.43171806167401,2.0939247003011947
5.451541850220265,2.0269396231853847
5.47136563876652,1.9580910686859188
5.491189427312777,1.8874669957202006
5.511013215859031,1.815160799131556
5.530837004405288,1.7412720863042168
5.550660792951542,1.6659077082324767
5.570484581497798,1.5891831386224826
5.5903083700440535,1.5112243348520558
5.610132158590309,1.432170274895491
5.6299559471365646,1.3521764559492164
5.64977973568282,1.271419781857446
5.669603524229076,1.190105487722253
5.689427312775331,1.1084771011170822
5.709251101321586,1.026831002087704
5.729074889867842,0.9455380506916213
5.748898678414098,0.865076201425006
5.768722466960353,0.7860802734773926
5.788546255506609,0.7094182317113498
5.808370044052864,0.6363067046845647
5.82819383259912,0.5684777115659275
5.848017621145375,0.5083884103855479
5.867841409691631,0.4593872764354932
5.887665198237886,0.4255662735007057
5.907488986784142,0.41085902836477783
5.927312775330397,0.41737071499905715
5.9471365638766525,0.44416416681731535
5.966960352422908,0.48783264216254335
5.986784140969164,0.5441963814660191
6.00660792951542,0.6095685509057784
6.026431718061675,0.6811527245482223
6.04625550660793,0.7569567134099973
6.066079295154186,0.8355828560128659
6.085903083700441,0.9160411913162783
6.105726872246697,0.9976148660518671
6.125550660792952,1.079770067037964
6.145374449339208,1.1620971224733743
6.1651982378854635,1.2442720153268245
6.185022026431718,1.3260309939970387
6.204845814977975,1.4071535848611987
6.224669603524229,1.4874510447744291
6.244493392070486,1.5667583843112385
6.264317180616741,1.64492877155353
6.284140969162996,1.721829548642845
6.303964757709252,1.797339358393559
6.323788546255507,1.8713460466919958
6.3436123348017635,1.9437451149496747
6.363436123348018,2.014438567872998
6.3832599118942746,2.0833340489384073
6.403083700440529,2.150344187702631
6.422907488986785,2.2153861047559573
6.44273127753304,2.2783810351319578
6.462555066079296,2.3392540415070937
6.482378854625551,2.397933795988009
6.502202643171807,2.45435241464259
6.5220264317180625,2.508445332818396
6.541850220264318,2.5601512121424888
6.561674008810574,2.6094118722063904
6.581497797356829,2.656172241517019
6.601321585903085,2.700380323482892
6.62114537444934,2.741987174108617
6.640969162995596,2.780946888763731
6.6607929515418505,2.817216595927126
6.680616740088107,2.850756456225108
6.700440528634362,2.8815296654083755
6.720264317180618,2.909502460171784
6.740088105726873,2.9346441259268854
6.759911894273129,2.956927005802958
6.779735682819384,2.9763265102867638
6.799559471365639,2.9928211270207137
6.819383259911895,3.0063924303709824
6.83920704845815,3.0170250904527234
6.859030837004407,3.024706881364834
6.8788546255506615,3.029428688443258
6.898678414096917,3.031184514390967
6.918502202643173,3.0299714841885996
6.938325991189428,3.025789848731188
6.958149779735684,3.018642987176978
6.977973568281939,3.00853740803457
6.997797356828195,2.995482749055079
7.01762114537445,2.9794917760394304
7.037444933920705,2.9605803807183735
7.0572687224669615,2.9387675779144082
7.077092511013216,2.9140755022554945
7.096916299559473,2.8865294047795573
7.116740088105728,2.856157649851163
7.136563876651983,2.8229917129106843
7.156387665198239,2.787066179695314
7.176211453744494,2.7484187477183335
7.19603524229075,2.7070902309740514
7.215859030837005,2.663124569061443
7.235682819383261,2.6165688422038316
7.255506607929516,2.567473294001494
7.275330396475772,2.51589136421295
7.295154185022027,2.4618797344512924
7.314977973568283,2.405498390446437
7.334801762114538,2.3468107055240495
7.354625550660794,2.285883551267428
7.374449339207049,2.2227874430767556
7.394273127753305,2.1575967306826156
7.4140969162995605,2.090389846838931
7.433920704845816,2.0212496317485944
7.453744493392072,1.9502637567480496
7.473568281938327,1.8775252791110284
7.493392070484583,1.8031333715937885
7.513215859030838,1.7271942871452852
7.533039647577093,1.6498226435130936
7.552863436123348,1.5711431481118014
7.572687224669605,1.491292936492799
7.59251101321586,1.4104247776263745
7.612334801762115,1.3287115213863188
7.6321585903083715,1.2463523531895722
7.651982378854627,1.1635817187476059
7.671806167400882,1.080682255460591
7.691629955947137,0.9980038241057754
7.711453744493394,0.915991940549583
7.731277533039649,0.8352307839422632
7.751101321585904,0.7565086833177427
7.7709251101321595,0.6809172124030447
7.790748898678416,0.6099961608269047
7.81057268722467,0.5459258249225278
7.830396475770926,0.4917176901771473
7.850220264317182,0.4512176184080833
7.870044052863436,0.4285376406304527
7.889867841409693,0.42665154838604974
7.909691629955948,0.4458577262354346
7.929515418502204,0.48360585504984593
7.9493392070484585,0.5358846245504081
7.969162995594715,0.5987434620362618
7.9889867841409705,0.6690129004904395
8.008810572687224,0.7443750758683861
8.02863436123348,0.823189055261379
8.048458149779737,0.9042933055593634
8.068281938325994,0.9868518040753134
8.088105726872246,1.0702475750310723
8.107929515418503,1.154012062788057
8.12775330396476,1.2377787425369458
8.147577092511014,1.321252504090435
8.167400881057269,1.4041892086195564
8.187224669603525,1.4863818372252615
8.207048458149782,1.5676509590080594
8.226872246696036,1.6478380701314477
8.246696035242293,1.72680087067449
8.266519823788547,1.804409869880432
8.286343612334802,1.880545915960488
8.306167400881058,1.9550983787780225
8.325991189427315,2.027963799918884
8.345814977973568,2.099044881663391
8.365638766519824,2.168249724630843
8.38546255506608,2.2354912498969197
8.405286343612337,2.3006867593346767
8.42511013215859,2.3637576004672667
8.444933920704846,2.424628910985347
8.464757709251103,2.4832294244226194
8.484581497797357,2.5394913230683867
8.504405286343614,2.59335012754667
8.524229074889869,2.6447446149642517
8.544052863436125,2.6936167593723392
8.56387665198238,2.7399116896713096
8.583700440528636,2.78357766113795
8.60352422907489,2.824566037557277
8.623348017621145,2.862831281559362
8.643171806167402,2.8983309512423396
8.662995594713658,2.931025701537992
8.682819383259913,2.960879289073528
8.702643171806168,2.9878585795179275
8.722466960352424,3.0119335565907597
8.74229074889868,3.0330773320632853
8.762114537444935,3.051266156206512
8.78193832599119,3.0664794282431393
8.801762114537446,3.078699706446127
8.821585903083701,3.0879127175989978
8.841409691629957,3.0941073655951468
8.861233480176212,3.0972757390083103
8.881057268722468,3.09741311751536
8.900881057268723,3.0945179770978624
8.92070484581498,3.088591993991729
8.940528634361234,3.0796400473965915
8.960352422907489,3.067670220999084
8.980176211453745,3.0526938034085958
9.000000000000002,3.0347252876522925
9.019823788546258,3.013782369929081
9.039647577092511,2.989885947882198
9.059471365638768,2.963060118719682
9.079295154185024,2.933332177593486
9.099118942731279,2.900732616745171
9.118942731277533,2.86529512604387
9.13876651982379,2.827056595685464
9.158590308370046,2.7860571219984718
9.1784140969163,2.742340017521981
9.198237885462555,2.6959518267959153
9.218061674008812,2.646942349651107
9.237885462555067,2.5953646742287124
9.257709251101323,2.541275222524596
9.27753303964758,2.484733811985614
9.297356828193834,2.425803737636753
9.317180616740089,2.3645518804665473
9.337004405286345,2.301048849450498
9.356828193832602,2.235369166796599
9.376651982378855,2.1675915089654856
9.396475770925111,2.097799020053426
9.416299559471367,2.0260797196672407
9.436123348017622,1.9525270351095332
9.455947136563877,1.8772404984805628
9.475770925110133,1.8003266646176403
9.49559471365639,1.7219003277987666
9.515418502202644,1.6420861471669217
9.5352422907489,1.5610208380722814
9.555066079295155,1.4788561571673098
9.57488986784141,1.3957630161813093
9.594713656387666,1.3119372238895746
9.614537444933923,1.2276076119878305
9.634361233480178,1.143047703650389
9.654185022026432,1.0585927217920579
9.674008810572689,0.974664742822932
9.693832599118945,0.8918103667159091
9.713656387665198,0.8107575710324495
9.733480176211454,0.7325013009785866
9.75330396475771,0.6584292300299173
9.773127753303967,0.590493587903682
9.792951541850222,0.531402984045471
9.812775330396477,0.48471114848788327
9.832599118942733,0.45450146767518446
9.852422907488988,0.44431403117358653
9.872246696035244,0.4555702799976515
9.892070484581499,0.4867770964065756
9.911894273127754,0.5343719798044723
9.93171806167401,0.5942957956281807
9.951541850220266,0.6630360979934259
9.971365638766521,0.7379220629420488
9.991189427312776,0.8170294668361557
10.011013215859032,0.8989894991595441
10.030837004405289,0.9828192701998426
10.050660792951543,1.067798172620963
10.070484581497798,1.1533838210748322
10.090308370044054,1.2391562165317282
10.11013215859031,1.3247807364757356
10.129955947136565,1.4099834080364273
10.14977973568282,1.4945341782215904
10.169603524229077,1.5782354298716672
10.189427312775331,1.66091398042041
10.209251101321588,1.7424154260017768
10.229074889867842,1.8226000886020397
10.248898678414099,1.9013400752689988
10.268722466960353,1.9785171199442595
10.28854625550661,2.0540209836718297
10.308370044052865,2.1277482583620224
10.32819383259912,2.19960146575052
10.348017621145376,2.2694883747112193
10.367841409691632,2.3373214817498615
10.387665198237887,2.4030176145925326
10.407488986784141,2.4664976294169763
10.427312775330398,2.527686179857235
10.447136563876654,2.586511541379176
10.466960352422909,2.6429054786075743
10.486784140969164,2.696803146116857
10.50660792951542,2.748143015374976
10.526431718061675,2.79686682216287
10.546255506607931,2.842919530026022
10.566079295154186,2.8862493062563908
10.585903083700442,2.926807507626147
10.605726872246697,2.964548673655381
10.625550660792953,2.9994305256332496
10.645374449339208,3.0314139699563376
10.665198237885463,3.060463104620607
10.685022026431719,3.0865452279212278
