Frequency (Hz),Amplitude
0.0,5.417137753473814
0.020066889632107024,5.416021268883642
0.04013377926421405,5.412674781112792
0.060200668896321065,5.407107189605015
0.0802675585284281,5.399333331550841
0.10033444816053512,5.389373988951862
0.12040133779264213,5.377255898282031
0.14046822742474915,5.363011762507656
0.1605351170568562,5.3466802651448
0.1806020066889632,5.328306085939787
0.20066889632107024,5.307939917651041
0.22073578595317725,5.285638483287274
0.24080267558528426,5.261464553014252
0.2608695652173913,5.235486959777553
0.2809364548494983,5.207780612498923
0.3010033444816054,5.178426505486122
0.3210702341137124,5.147511722447778
0.34113712374581934,5.115129433223613
0.3612040133779264,5.081378881024667
0.3812709030100334,5.046365357626482
0.4013377926421405,5.010200163571683
0.42140468227424743,4.9730005500179315
0.4414715719063545,4.934889638417757
0.4615384615384615,4.895996313743883
0.4816053511705685,4.85645508648952
0.5016722408026756,4.816405918188871
0.5217391304347826,4.775994004742028
0.5418060200668896,4.735369511411522
0.5618729096989966,4.6946872530191
0.5819397993311036,4.654106312646848
0.6020066889632107,4.613789592081484
0.6220735785953176,4.573903287384668
0.6421404682274248,4.534616283379911
0.6622073578595318,4.496099461575888
0.6822742474916387,4.45852491715153
0.7023411371237458,4.4220650821610565
0.7224080267558528,4.386891754114371
0.7424749163879598,4.353175031569074
0.7625418060200668,4.32108216132741
0.7826086956521738,4.290776305221604
0.802675585284281,4.262415238211418
0.8227424749163879,4.236149993478162
0.8428093645484949,4.212123474203525
0.862876254180602,4.190469055549303
0.882943143812709,4.171309203751826
0.903010033444816,4.154754141941428
0.923076923076923,4.14090059402478
0.9431438127090299,4.129830638489893
0.963210702341137,4.121610703129606
0.983277591973244,4.116290729334473
1.0033444816053512,4.113903530788248
1.0234113712374582,4.11446436623108
1.0434782608695652,4.117970739674058
1.0635451505016722,4.1244024343874734
1.0836120401337792,4.133721779550555
1.1036789297658862,4.1458741410823325
1.1237458193979932,4.160788621306761
1.1438127090301002,4.178378946126895
1.1638795986622072,4.198544513601142
1.1839464882943145,4.221171574430749
1.2040133779264215,4.2461345129713655
1.2240802675585283,4.273297196946192
1.2441471571906353,4.302514364942195
1.2642140468227423,4.333633022813305
1.2842809364548495,4.366493823046791
1.3043478260869565,4.400932404700167
1.3244147157190636,4.436780675418026
1.3444816053511706,4.47386802104634
1.3645484949832773,4.512022432268965
1.3846153846153846,4.551071541334168
1.4046822742474916,4.590843565203276
1.4247491638795986,4.631168154267926
1.4448160535117056,4.671877148115916
1.4648829431438126,4.712805241679488
1.4849498327759196,4.753790566499131
1.5050167224080266,4.794675192823201
1.5250836120401337,4.835305558890545
1.5451505016722407,4.875532834067
1.5652173913043477,4.915213222582921
1.5852842809364547,4.954208214502239
1.605351170568562,4.992384790291541
1.625418060200669,5.0296155849930795
1.6454849498327757,5.065779017573945
1.6655518394648827,5.100759390554115
1.6856187290969897,5.134446964531702
1.705685618729097,5.166738011742196
1.725752508361204,5.197534852322997
1.745819397993311,5.226745876513884
1.765886287625418,5.254285555614128
1.7859531772575248,5.280074444141471
1.806020066889632,5.304039175297713
1.826086956521739,5.326112451540926
1.846153846153846,5.346233031793393
1.866220735785953,5.364345716575746
1.8862876254180598,5.3804013321488595
1.9063545150501673,5.394356714563055
1.926421404682274,5.406174694356319
1.9464882943143813,5.415824082506573
1.966555183946488,5.423279658124645
1.9866220735785953,5.42852215827167
2.0066889632107023,5.431538270194613
2.026755852842809,5.4323206261933885
2.0468227424749164,5.430867801261023
2.0668896321070234,5.427184313570747
2.0869565217391304,5.421280627819646
2.1070234113712374,5.413173161374601
2.1270903010033444,5.4028842930999685
2.1471571906354514,5.390442374676613
2.1672240802675584,5.375881744144563
2.1872909698996654,5.359242741315769
2.2073578595317724,5.340571724605001
2.2274247491638794,5.319921088714978
2.2474916387959865,5.297349282481855
2.267558528428094,5.272920826037588
2.2876254180602005,5.246706326272862
2.3076923076923075,5.218782489386123
2.3277591973244145,5.1892321290764984
2.3478260869565215,5.158144168680764
2.367892976588629,5.125613635262464
2.3879598662207355,5.091741643335282
2.408026755852843,5.056635365541118
2.4280936454849495,5.0204079872071645
2.4481605351170566,4.983178641278505
2.468227424749164,4.945072319667427
2.4882943143812706,4.906219756586635
2.508361204013378,4.866757278951218
2.5284280936454846,4.826826618460401
2.548494983277592,4.786574679524924
2.568561872909699,4.746153256816461
2.5886287625418056,4.705718695914903
2.608695652173913,4.665431490356741
2.6287625418060196,4.625455808389315
2.648829431438127,4.585958942962649
2.668896321070234,4.547110678997957
2.688963210702341,4.50908257281622
2.709030100334448,4.472047139844848
2.7290969899665547,4.436176948391762
2.749163879598662,4.401643619415529
2.769230769230769,4.368616734838714
2.789297658862876,4.337262660030741
2.809364548494983,4.307743289571695
2.82943143812709,4.280214729202223
2.849498327759197,4.254825930824467
2.869565217391304,4.231717301354921
2.8896321070234112,4.211019309914099
2.9096989966555182,4.19285112101147
2.9297658862876252,4.177319283778991
2.9498327759197323,4.164516508664863
2.9698996655518393,4.154520563102761
2.9899665551839463,4.147393316366743
3.0100334448160533,4.143179961044385
3.0301003344481603,4.141908434352956
3.0501672240802673,4.143589057042227
3.0702341137123748,4.148214401136862
3.0903010033444813,4.155759390626002
3.1103678929765888,4.166181631821786
3.1304347826086953,4.179421962918612
3.1505016722408024,4.195405205709156
3.1705685618729094,4.214041096813739
3.1906354515050164,4.235225371429671
3.210702341137124,4.258840969675873
3.2307692307692304,4.284759334147796
3.250836120401338,4.312841767255086
3.270903010033445,4.342940818144534
3.2909698996655514,4.374901671299841
3.311036789297659,4.408563512004158
3.3311036789297654,4.4437608474827295
3.351170568561873,4.4803247664520125
3.3712374581939795,4.518084123756544
3.391304347826087,4.556866640582385
3.411371237458194,4.596499914248949
3.4314381270903005,4.636812334697596
3.451505016722408,4.6776339074570155
3.471571906354515,4.718796985050489
3.491638795986622,4.760136910526131
3.511705685618729,4.80149257806868
3.531772575250836,4.842706916534424
3.551839464882943,4.883627302292199
3.5719063545150496,4.924105908009699
3.591973244147157,4.963999994049836
3.612040133779264,5.003172148989076
3.632107023411371,5.0414904854838865
3.652173913043478,5.078828797333814
3.672240802675585,5.115066683152453
3.692307692307692,5.150089641589387
3.712374581939799,5.18378914256715
3.732441471571906,5.216062678524653
3.752508361204013,5.246813799203762
3.7725752508361197,5.275952133086782
3.7926421404682276,5.303393398195279
3.8127090301003346,5.329059404596729
3.832775919732441,5.352878050637359
3.852842809364548,5.374783314625002
3.872909698996655,5.394715243425307
3.8929765886287626,5.412619939204662
3.9130434782608696,5.428449545352267
3.933110367892976,5.442162232438636
3.953177257525083,5.453722184915693
3.9732441471571907,5.463099589131801
3.9933110367892977,5.470270623120588
4.013377926421405,5.475217448522365
4.033444816053511,5.477928204909123
4.053511705685618,5.478397006705148
4.073578595317726,5.4766239428236165
4.093645484949833,5.472615079072006
4.113712374581939,5.466382463313678
4.133779264214047,5.457944133307269
4.153846153846153,5.447324127077099
4.173913043478261,5.434552495594355
4.193979933110368,5.419665317467727
4.214046822742475,5.4027047152513195
4.234113712374581,5.383718872874128
4.254180602006689,5.362762053576529
4.274247491638796,5.339894617602527
4.294314381270903,5.315183038738814
4.314381270903009,5.288699918610549
4.334448160535117,5.260523997435914
4.354515050167224,5.230740159704953
4.374581939799331,5.199439432979849
4.394648829431437,5.166718977712609
4.414715719063545,5.132682065640656
4.434782608695651,5.0974380439505556
4.454849498327759,5.061102281998033
4.474916387959866,5.023796096939804
4.494983277591973,4.985646654177611
4.5150501672240795,4.946786838044452
4.535117056856188,4.907355087691676
4.555183946488294,4.867495192679408
4.575250836120401,4.827356042355465
4.595317725752508,4.787091322757149
4.615384615384615,4.746859154521188
4.635451505016722,4.706821665180359
4.655518394648829,4.667144489307951
4.6755852842809364,4.627996190294656
4.695652173913043,4.589547598161407
4.71571906354515,4.551971058779915
4.735785953177258,4.515439591240657
4.7558528428093645,4.480125951915634
4.775919732441471,4.446201606034916
4.795986622073578,4.413835610332064
4.816053511705686,4.383193413484917
4.8361204013377925,4.354435584616511
4.856187290969899,4.3277164839167686
4.8762541806020065,4.30318289334319
4.896321070234113,4.28097262916093
4.916387959866221,4.261213161554782
4.936454849498328,4.24402026943204
4.956521739130435,4.229496760575577
4.976588628762541,4.217731288260349
4.996655518394649,4.208797295119035
5.016722408026756,4.202752113310652
5.036789297658863,4.199636246878061
5.056856187290969,4.199472857653148
5.076923076923077,4.202267470366468
5.096989966555184,4.20800790602788
5.117056856187291,4.21666444553082
5.137123745819398,4.228190218207878
5.157190635451505,4.242521803152548
5.177257525083611,4.259580024914915
5.197324414715719,4.279270920007288
5.217391304347826,4.301486846759117
5.237458193979933,4.326107708570615
5.257525083612039,4.353002259555329
5.277591973244148,4.382029461855408
5.297658862876254,4.413039865399199
5.317725752508361,4.445876983329788
5.337792642140468,4.480378639512858
5.357859531772575,4.516378268172549
5.377926421404682,4.553706149558852
5.397993311036789,4.592190569401962
5.418060200668896,4.631658893581001
5.438127090301003,4.671938552793895
5.458193979933109,4.712857934972369
5.478260869565218,4.754247185693341
5.498327759197324,4.795938918880344
5.518394648829431,4.83776884167913
5.538461538461538,4.879576298562565
5.558528428093646,4.921204740516491
5.578595317725752,4.96250212563268
5.598662207357859,5.003321257641582
5.618729096989966,5.043520068909303
5.638795986622073,5.0829618542491986
5.65886287625418,5.121515461602743
5.678929765886288,5.159055445264013
5.698996655518394,5.1954621868895305
5.719063545150501,5.23062198907511
5.739130434782608,5.26442714581374
5.759197324414716,5.296775993689286
5.7792642140468224,5.327572947219427
5.799331103678929,5.356728521346519
5.8193979933110365,5.38415934369099
5.839464882943144,5.409788158830743
5.8595317725752505,5.433543826553034
5.879598662207358,5.455361315741769
5.8996655518394645,5.475181695311265
5.919732441471571,5.492952123375845
5.9397993311036785,5.508625835650392
5.959866220735786,5.522162133907258
5.9799331103678925,5.533526375167591
5.999999999999999,5.542689962176644
6.020066889632107,5.549630335600707
6.040133779264214,5.554330968285098
6.060200668896321,5.556781361825322
6.080267558528428,5.556977045625004
6.100334448160535,5.5549195785414485
6.120401337792642,5.550616553150899
6.1404682274247495,5.5440816025977915
6.160535117056856,5.5353344099238475
6.180602006688963,5.524400719700509
6.200668896321069,5.511312351710748
6.2207357859531776,5.496107216339922
6.240802675585284,5.47882933123888
6.260869565217391,5.459528838712228
6.280936454849498,5.438262023159009
6.301003344481605,5.415091327748093
6.321070234113712,5.390085369344717
6.341137123745819,5.363318950514362
6.361204013377926,5.334873067213296
6.381270903010033,5.304834910528805
6.40133779264214,5.273297860555249
6.421404682274248,5.240361470181857
6.441471571906354,5.20613143622563
6.461538461538461,5.170719554966993
6.481605351170568,5.134243658740578
6.501672240802676,5.096827529801808
6.521739130434782,5.058600787240204
6.54180602006689,5.019698742251397
6.561872909698996,4.980262216627598
6.581939799331103,4.940437318898159
6.60200668896321,4.900375172173462
6.622073578595318,4.860231587445448
6.642140468227424,4.820166675913741
6.662207357859531,4.780344393878046
6.682274247491639,4.7409320139139055
6.702341137123746,4.7020995164792465
6.722408026755852,4.664018896837158
6.742474916387959,4.626863383275956
6.762541806020066,4.590806564105806
6.782608695652174,4.556021422844955
6.80267558528428,4.522679283392839
6.822742474916388,4.490948669811954
6.842809364548494,4.460994088563843
6.862876254180601,4.432974744586325
6.882943143812709,4.407043206338642
6.903010033444816,4.383344038713308
6.9230769230769225,4.362012426316256
6.94314381270903,4.343172812816473
6.963210702341137,4.326937584614094
6.983277591973244,4.313405828726936
7.0033444816053505,4.30266219533135
7.023411371237458,4.294775894647031
7.0434782608695645,4.289799855737235
7.063545150501672,4.287770071304936
7.083612040133779,4.28870514780953
7.103678929765886,4.292606074413731
7.123745819397993,4.299456217695631
7.143812709030099,4.309221542092094
7.1638795986622075,4.321851049077525
7.183946488294314,4.337277421527765
7.204013377926421,4.355417853934273
7.224080267558528,4.376175044415447
7.2441471571906355,4.399438321021248
7.264214046822742,4.4250848727468615
7.2842809364548495,4.452981054957225
7.304347826086956,4.48298373948317
7.324414715719063,4.514941681313095
7.34448160535117,4.548696876352866
7.364548494983278,4.58408588791636
7.384615384615384,4.620941123192756
7.404682274247491,4.659092044682799
7.424749163879598,4.698366305305444
7.444816053511706,4.738590799385423
7.464882943143812,4.779592624923814
7.48494983277592,4.821199955347837
7.505016722408026,4.863242821294043
7.525083612040134,4.905553804890469
7.545150501672239,4.947968650483911
7.565217391304348,4.990326796841475
7.585284280936455,5.0324718365853744
7.605351170568561,5.074251909046119
7.625418060200669,5.115520032894844
7.645484949832775,5.156134384889632
7.665551839464882,5.195958530890186
7.685618729096991,5.234861615001626
7.705685618729096,5.272718512336143
7.725752508361204,5.3094099504608705
7.74581939799331,5.344822604155462
7.765886287625418,5.37884916765158
7.785953177257525,5.411388408083639
7.806020066889631,5.442345203455325
7.826086956521739,5.4716305680268
7.846153846153847,5.499161667657559
7.866220735785952,5.524861827301457
7.88628762541806,5.548660532544748
7.906354515050166,5.570493426803672
7.926421404682274,5.590302305554981
7.946488294314381,5.608035108757445
7.966555183946488,5.62364591243382
7.986622073578595,5.63709492021729
8.006688963210701,5.648348455522082
8.02675585284281,5.657378954871767
8.046822742474916,5.664164962807809
8.066889632107022,5.668691128703202
8.08695652173913,5.670948205718194
8.107023411371236,5.670933052055181
8.127090301003344,5.668648634595453
8.147157190635452,5.6641040349285925
8.167224080267557,5.657314457714576
8.187290969899665,5.64830124124589
8.207357859531772,5.637091870000039
8.227424749163879,5.623719988889882
8.247491638795987,5.608225418826997
8.267558528428093,5.590654173109865
8.2876254180602,5.571058474031472
8.307692307692307,5.549496768966958
8.327759197324415,5.526033745049034
8.347826086956522,5.500740341364135
8.367892976588628,5.473693757403314
8.387959866220736,5.44497745627586
8.408026755852843,5.414681160939357
8.42809364548495,5.382900841414677
8.448160535117056,5.349738690638387
8.468227424749163,5.315303086257445
8.488294314381271,5.279708535293833
8.508361204013378,5.243075598203288
8.528428093645484,5.20553078842715
8.548494983277592,5.167206443098944
8.568561872909697,5.128240560128559
8.588628762541806,5.088776596462832
8.608695652173914,5.048963221932385
8.628762541806019,5.008954022766267
8.648829431438127,4.9689071486193015
8.668896321070234,4.928984896848956
8.68896321070234,4.88935322784068
8.709030100334449,4.85018120545959
8.729096989966555,4.811640357250655
8.749163879598662,4.773903949868859
8.769230769230768,4.737146176440155
8.789297658862875,4.701541254172162
8.809364548494983,4.667262432574159
8.82943143812709,4.634480915114309
8.849498327759196,4.603364700016937
8.869565217391303,4.574077349130071
8.889632107023411,4.546776697283637
8.909698996655518,4.521613518180163
8.929765886287624,4.49873016644456
8.949832775919733,4.478259218803513
8.96989966555184,4.460322140241868
8.989966555183946,4.445028003157432
9.010033444816054,4.432472288782468
9.030100334448159,4.422735800267181
9.050167224080267,4.4158837156932575
9.070234113712376,4.411964806842681
9.09030100334448,4.411010845821119
9.110367892976589,4.4130362167540325
9.130434782608695,4.418037743959676
9.150501672240802,4.425994741558144
9.17056856187291,4.436869282755778
9.190635451505017,4.450606680430747
9.210702341137123,4.467136164509611
9.23076923076923,4.486371736294395
9.250836120401337,4.508213175634113
9.270903010033445,4.532547173803834
9.290969899665551,4.559248563231101
9.311036789297658,4.588181614773206
9.331103678929765,4.619201373994525
9.351170568561873,4.652155009651963
9.37123745819398,4.686883150156843
9.391304347826086,4.723221186911143
9.411371237458194,4.7610005268840645
9.4314381270903,4.800049780387537
9.451505016722408,4.840195873543409
9.471571906354516,4.8812650782633895
9.49163879598662,4.923083955578877
9.511705685618729,4.965480210791839
9.531772575250837,5.008283461135869
9.551839464882942,5.051325918431774
9.57190635451505,5.0944429906111655
9.591973244147155,5.137473806996169
9.612040133779264,5.180261672905761
9.632107023411372,5.222654459557222
9.652173913043477,5.264504935392708
9.672240802675585,5.305671044933569
9.692307692307692,5.3460161410919245
9.712374581939798,5.385409176588895
9.732441471571907,5.423724859774665
9.752508361204013,5.460843779745388
9.77257525083612,5.496652505227599
9.792642140468226,5.531043661270613
9.812709030100335,5.5639159873638775
9.832775919732441,5.595174380189875
9.852842809364548,5.624729923839999
9.872909698996656,5.652499909965214
9.89297658862876,5.678407850007678
9.91304347826087,5.702383481364157
9.933110367892976,5.724362769066888
9.953177257525082,5.744287904331051
9.97324414715719,5.762107301108801
9.993311036789297,5.777775591604659
10.013377926421404,5.7912536215451516
10.033444816053512,5.802508445852549
10.053511705685617,5.81151332524716
10.073578595317725,5.81824772419168
10.093645484949834,5.822697310491926
10.113712374581938,5.824853956779079
10.133779264214047,5.824715744015594
10.153846153846153,5.8222869670896795
10.17391304347826,5.81757814248725
10.193979933110368,5.810606017955059
10.214046822742475,5.801393583990749
10.234113712374581,5.789970086913025
10.254180602006688,5.776371043175553
10.274247491638796,5.760638254489445
10.294314381270903,5.742819823208028
10.31438127090301,5.722970167302633
10.334448160535118,5.701150034115855
10.354515050167223,5.677426511917507
10.37458193979933,5.651873038104901
10.394648829431437,5.624569402681942
10.414715719063544,5.595601745417512
10.434782608695652,5.565062544822538
10.454849498327757,5.533050596794016
10.474916387959865,5.499670980455125
10.494983277591974,5.465035008371681
10.515050167224079,5.429260157951602
10.535117056856187,5.392469980437239
10.555183946488295,5.354793983489592
10.5752508361204,5.31636748294617
10.595317725752508,5.277331418924544
10.615384615384615,5.237832131058429
10.635451505016722,5.198021087313909
10.65551839464883,5.158054560566688
10.675585284280936,5.118093246959073
10.695652173913043,5.078301820034023
10.71571906354515,5.03884841480466
10.735785953177256,4.999904036304928
10.755852842809364,4.96164188782732
10.775919732441471,4.924236615030092
10.795986622073578,4.887863463429643
10.816053511705684,4.852697348512974
10.836120401337793,4.8189118398257635
10.856187290969899,4.786678062907598
10.876254180602006,4.756163525825696
10.896321070234114,4.727530880237394
10.916387959866219,4.700936630291376
10.936454849498327,4.6765298061221365
10.956521739130435,4.654450622031285
10.97658862876254,4.634829142485654
10.996655518394649,4.61778398158023
11.016722408026755,4.603421063396879
