Frequency (Hz),Amplitude
0.0,7.236361071552942
0.01978021978021978,7.2350306656452
0.03956043956043956,7.231043260070064
0.05934065934065934,7.22441029137293
0.07912087912087912,7.215150820742574
0.0989010989010989,7.203291534230137
0.11868131868131868,7.18886674264905
0.13846153846153844,7.171918380739144
0.15824175824175823,7.15249600504259
0.17802197802197803,7.130656789793902
0.1978021978021978,7.106465519965349
0.21758241758241756,7.07999458043263
0.23736263736263735,7.051323940030023
0.2571428571428572,7.020541129047714
0.2769230769230769,6.987741208485039
0.2967032967032967,6.953026729110566
0.31648351648351647,6.9165076780921355
0.3362637362637363,6.878301410648399
0.35604395604395606,6.838532563838152
0.3758241758241758,6.797332949248395
0.3956043956043956,6.754841420970667
0.4153846153846154,6.711203714874209
0.4351648351648351,6.666572254803847
0.45494505494505494,6.621105920961526
0.4747252747252747,6.574969775389563
0.4945054945054945,6.52833473918031
0.5142857142857143,6.481377215814564
0.5340659340659341,6.434278654908144
0.5538461538461538,6.387225050654141
0.5736263736263736,6.340406369423451
0.5934065934065934,6.294015901365864
0.6131868131868132,6.248249531478617
0.6329670329670329,6.203304926515474
0.6527472527472528,6.159380635332475
0.6725274725274726,6.116675101832175
0.6923076923076923,6.075385591591591
0.7120879120879121,6.035707035538175
0.7318681318681318,5.9978307966502316
0.7516483516483516,5.961943368555537
0.7714285714285715,5.928225018007142
0.7912087912087912,5.896848386421959
0.810989010989011,5.86797706883922
0.8307692307692308,5.841764191629555
0.8505494505494506,5.81835101288147
0.8703296703296702,5.797865571420838
0.8901098901098901,5.780421411698462
0.9098901098901099,5.76611641214976
0.9296703296703297,5.75503174396652
0.9494505494505494,5.747230985454544
0.9692307692307692,5.742759414280905
0.989010989010989,5.741643496010499
1.0087912087912088,5.743890582538723
1.0285714285714287,5.7494888285573404
1.0483516483516484,5.758407328307493
1.0681318681318681,5.770596468876416
1.087912087912088,5.785988490488796
1.1076923076923075,5.8044982389212985
1.1274725274725275,5.826024090583129
1.1472527472527472,5.850449027151269
1.1670329670329669,5.877641834053486
1.1868131868131868,5.907458395606442
1.2065934065934065,5.939743059220415
1.2263736263736265,5.974330041692379
1.2461538461538462,6.011044852092095
1.2659340659340659,6.049705707933013
1.2857142857142858,6.090124924025605
1.3054945054945055,6.1321102564483265
1.3252747252747252,6.175466187262616
1.3450549450549452,6.2199951387886205
1.3648351648351649,6.265498609317104
1.3846153846153846,6.311778224961998
1.4043956043956045,6.3586367048879
1.4241758241758242,6.405878739335593
1.443956043956044,6.45331178170024
1.4637362637362636,6.500746757393429
1.4835164835164834,6.54799869336018
1.5032967032967033,6.594887272953788
1.523076923076923,6.641237321430671
1.542857142857143,6.68687922765235
1.5626373626373626,6.731649307711783
1.5824175824175823,6.7753901161739005
1.6021978021978023,6.817950710470098
1.621978021978022,6.859186873744811
1.6417582417582417,6.898961301145332
1.6615384615384616,6.937143754197886
1.6813186813186813,6.973611187539926
1.7010989010989013,7.008247851897998
1.720879120879121,7.040945376821621
1.7406593406593405,7.071602836316556
1.7604395604395604,7.100126800170563
1.7802197802197801,7.126431373435765
1.7999999999999998,7.150438226226359
1.8197802197802198,7.172076615709295
1.8395604395604395,7.191283401909038
1.8593406593406594,7.208003058714178
1.879120879120879,7.222187681263081
1.8989010989010988,7.233796990694802
1.9186813186813187,7.242798337079054
1.9384615384615385,7.249166701182448
1.9582417582417584,7.2528846955847275
1.978021978021978,7.253942565526542
1.9978021978021978,7.2523381897459185
2.0175824175824175,7.248077081442579
2.0373626373626372,7.241172389393678
2.0571428571428574,7.231644899130366
2.076923076923077,7.219523033967723
2.096703296703297,7.204842855559804
2.1164835164835165,7.187648063522961
2.1362637362637362,7.167989993533317
2.1560439560439564,7.145927613153672
2.175824175824176,7.121527514480854
2.195604395604396,7.094863902522519
2.215384615384615,7.066018578011833
2.2351648351648348,7.03508091314598
2.254945054945055,7.002147818489739
2.2747252747252746,6.96732369901654
2.2945054945054943,6.930720396966133
2.314285714285714,6.892457118881116
2.3340659340659338,6.8526603438453675
2.353846153846154,6.811463709589221
2.3736263736263736,6.769007872754176
2.3934065934065933,6.725440339231161
2.413186813186813,6.6809152601108615
2.4329670329670328,6.635593188425945
2.452747252747253,6.589640791539086
2.4725274725274726,6.543230513758998
2.4923076923076923,6.496540183573288
2.512087912087912,6.449752559800973
2.5318681318681318,6.4030548110217556
2.5516483516483515,6.356637922869787
2.5714285714285716,6.310696028224348
2.5912087912087913,6.265425656027935
2.610989010989011,6.221024895450182
2.6307692307692307,6.1776924734251475
2.6505494505494505,6.135626745244003
2.6703296703296706,6.095024599894165
2.6901098901098903,6.05608028419292
2.70989010989011,6.018984152438969
2.7296703296703297,5.9839213512439695
2.7494505494505495,5.951070452323646
2.769230769230769,5.920602049210717
2.7890109890109893,5.892677336957217
2.808791208791209,5.8674466967558025
2.8285714285714287,5.84504830984696
2.8483516483516484,5.825606826905207
2.8681318681318677,5.809232120136854
2.887912087912088,5.796018145424242
2.9076923076923076,5.786041940908844
2.9274725274725273,5.779362786366225
2.947252747252747,5.776021544606586
2.9670329670329667,5.776040202024228
2.986813186813187,5.779421620478349
3.0065934065934066,5.7861495071407
3.0263736263736263,5.796188603063168
3.046153846153846,5.809485085299487
3.0659340659340657,5.825967171760104
3.085714285714286,5.845545912868368
3.1054945054945056,5.868116149755848
3.1252747252747253,5.893557615361834
3.145054945054945,5.921736152493807
3.1648351648351647,5.952505021695168
3.184615384615385,5.985706271617848
3.2043956043956046,6.021172145415165
3.2241758241758243,6.058726498313682
3.243956043956044,6.098186203819579
3.2637362637362637,6.139362528782482
3.2835164835164834,6.18206246059228
3.3032967032967036,6.226089972953565
3.3230769230769233,6.271247219818855
3.342857142857143,6.317335650044919
3.3626373626373627,6.364157038075716
3.3824175824175824,6.411514428387785
3.4021978021978025,6.459212993525471
3.4219780219780223,6.507060807290176
3.441758241758242,6.554869536038226
3.4615384615384617,6.602455052104488
3.481318681318681,6.64963797413465
3.501098901098901,6.696244139613106
3.520879120879121,6.742105015154327
3.5406593406593405,6.787058050221529
3.5604395604395602,6.830946979884018
3.58021978021978,6.873622082057246
3.5999999999999996,6.91494039441722
3.61978021978022,6.9547658958688565
3.6395604395604395,6.9929696570981426
3.659340659340659,7.029429964367484
3.679120879120879,7.064032420336955
3.6989010989010986,7.096670025321613
3.718681318681319,7.127243242034662
3.7384615384615385,7.155660046523479
3.758241758241758,7.181835967684307
3.7780219780219784,7.205694117443059
3.7978021978021976,7.227165213415897
3.8175824175824173,7.246187595612919
3.8373626373626375,7.262707238520953
3.8571428571428568,7.276677759695791
3.876923076923077,7.288060425807627
3.896703296703296,7.296824156914645
3.916483516483517,7.302945529585818
3.936263736263736,7.306408779352587
3.956043956043956,7.307205802838187
3.9758241758241755,7.305336159789537
3.9956043956043956,7.300807075118316
4.015384615384615,7.293633440941748
4.035164835164835,7.283837818497404
4.054945054945055,7.27145043968773
4.0747252747252745,7.256509207885979
4.094505494505494,7.23905969750357
4.114285714285715,7.219155151677163
4.134065934065934,7.196856477279009
4.153846153846154,7.172232236284494
4.173626373626373,7.145358632343833
4.193406593406594,7.1163194911982
4.213186813186813,7.085206233352861
4.232967032967033,7.052117837169333
4.252747252747253,7.017160790264673
4.2725274725274724,6.980449026808174
4.292307692307692,6.942103847985593
4.312087912087913,6.902253822559952
4.331868131868132,6.861034664100219
4.351648351648352,6.818589081080379
4.371428571428571,6.775066595679416
4.391208791208792,6.7306233267486935
4.410989010989011,6.685421732071018
4.43076923076923,6.639630304733027
4.450549450549451,6.5934232181908135
4.4703296703296695,6.546979914453766
4.49010989010989,6.500484629772712
4.50989010989011,6.454125852328674
4.52967032967033,6.408095706714386
4.549450549450549,6.362589260519007
4.569230769230769,6.317803749104879
4.589010989010989,6.273937715738459
4.608791208791209,6.231190065633438
4.628571428571428,6.189759034202299
4.648351648351649,6.149841071897195
4.6681318681318675,6.111629650439192
4.687912087912088,6.075313997949507
4.707692307692308,6.041077773445775
4.7274725274725276,6.009097694258734
4.747252747252747,5.979542133040936
4.767032967032967,5.9525697040325385
4.786813186813187,5.928327860953121
4.806593406593407,5.906951531123454
4.826373626373626,5.888561812007358
4.846153846153847,5.873264757136099
4.8659340659340655,5.861150278199752
4.885714285714286,5.852291188870884
4.905494505494506,5.8467424136336
4.9252747252747255,5.844540381559227
4.945054945054945,5.845702620706414
4.964835164835165,5.850227563799872
4.984615384615385,5.858094570291601
5.004395604395604,5.869264164103011
5.024175824175824,5.883678480578837
5.043956043956045,5.901261910743969
5.0637362637362635,5.921921926106493
5.083516483516483,5.9455500632105425
5.103296703296703,5.972023044068864
5.123076923076923,6.001204006583849
5.142857142857143,6.0329438181138935
5.162637362637362,6.0670824454103975
5.182417582417583,6.103450355136277
5.2021978021978015,6.141869920933657
5.221978021978022,6.1821568153677005
5.241758241758242,6.224121367853012
5.2615384615384615,6.26756987269488
5.281318681318681,6.312305834485015
5.301098901098901,6.358131141144102
5.320879120879121,6.404847157787035
5.340659340659341,6.4522557372197555
5.36043956043956,6.500160145202547
5.380219780219781,6.548365900604513
5.3999999999999995,6.596681532218413
5.41978021978022,6.6449192553136625
5.43956043956044,6.6928955719987675
5.4593406593406595,6.740431800173624
5.479120879120879,6.787354536311779
5.498901098901099,6.833496057560223
5.518681318681319,6.8786946687168165
5.538461538461538,6.922794999577929
5.558241758241758,6.9656482579733545
5.578021978021979,7.007112443550611
5.5978021978021975,7.04705252706035
5.617582417582418,7.085340599549703
5.637362637362637,7.121855995506812
5.6571428571428575,7.156485393631562
5.676923076923077,7.189122898544031
5.696703296703297,7.219670106390879
5.716483516483517,7.248036156976712
5.736263736263735,7.274137774734246
5.756043956043956,7.297899300557325
5.775824175824176,7.319252716254051
5.795604395604395,7.338137663133144
5.815384615384615,7.354501456015268
5.835164835164835,7.368299093759338
5.854945054945055,7.37949326721147
5.874725274725275,7.388054365317779
5.894505494505494,7.3939604799904535
5.914285714285715,7.397197410176216
5.934065934065933,7.397758665445683
5.953846153846154,7.395645469297682
5.973626373626374,7.3908667622534825
5.993406593406593,7.383439204697402
6.013186813186813,7.373387179302143
6.032967032967033,7.360742792754848
6.052747252747253,7.345545876372512
6.072527472527473,7.327843985059432
6.092307692307692,7.307692393912641
6.112087912087913,7.2851540916216635
6.131868131868131,7.260299769633813
6.151648351648352,7.233207805863429
6.171428571428572,7.203964241511622
6.191208791208791,7.172662749329452
6.210989010989011,7.1394045914024735
6.230769230769231,7.104298564256167
6.2505494505494505,7.067460928781258
6.270329670329671,7.029015322156587
6.29010989010989,6.989092648606921
6.309890109890111,6.947830945479607
6.329670329670329,6.905375220762598
6.349450549450549,6.861877257806701
6.36923076923077,6.817495382667966
6.3890109890109885,6.7723941891681605
6.408791208791209,6.726744216498867
6.428571428571428,6.680721573992234
6.4483516483516485,6.634507507573409
6.468131868131868,6.5882879024268135
6.487912087912088,6.542252716583752
6.507692307692308,6.4965953405069845
6.527472527472527,6.451511878346407
6.547252747252747,6.407200347402093
6.567032967032967,6.3638597934900165
6.5868131868131865,6.321689321384488
6.606593406593407,6.280887041324229
6.626373626373626,6.241648934714681
6.6461538461538465,6.204167644616833
6.665934065934065,6.168631199339477
6.685714285714286,6.135221680378459
6.705494505494506,6.104113848975007
6.725274725274725,6.075473748573752
6.745054945054945,6.049457303299766
6.764835164835165,6.0262089350796355
6.7846153846153845,6.005860224028699
6.804395604395605,5.988528638047128
6.824175824175824,5.9743163580576955
6.8439560439560445,5.963309224860116
6.863736263736263,5.955575832097779
6.883516483516484,5.951166787318973
6.903296703296704,5.9501141596190665
6.923076923076923,5.952431127992493
6.942857142857143,5.958111839485759
6.962637362637362,5.96713148076072
6.9824175824175825,5.979446561017867
7.002197802197802,5.9949953986766
7.021978021978022,6.013698799035993
7.041758241758242,6.035460905590288
7.061538461538461,6.060170203944564
7.081318681318681,6.087700654503292
7.101098901098901,6.117912928356727
7.1208791208791204,6.150655720070076
7.140659340659341,6.18576711132859
7.16043956043956,6.2230759605005055
7.1802197802197805,6.262403295003978
7.199999999999999,6.303563685738012
7.21978021978022,6.346366585587228
7.23956043956044,6.390617616969328
7.259340659340659,6.4361197964099786
7.279120879120879,6.482674687073219
7.298901098901099,6.530083472942813
7.318681318681318,6.578147950866837
7.338461538461539,6.6266714388925365
7.358241758241758,6.675459601208016
7.3780219780219785,6.724321191563612
7.397802197802197,6.7730687182804585
7.417582417582418,6.8215190348875225
7.437362637362638,6.869493861091354
7.457142857142857,6.916820239209124
7.476923076923077,6.963330931420032
7.496703296703297,7.008864763249796
7.516483516483516,7.053266918629187
7.536263736263736,7.096389191692583
7.556043956043957,7.138090200232079
7.575824175824176,7.178235565420232
7.595604395604395,7.2166980620792165
7.615384615384615,7.253357743422301
7.635164835164835,7.288102043836357
7.654945054945055,7.320825862922298
7.674725274725275,7.351431633670462
7.694505494505494,7.379829377324325
7.7142857142857135,7.40593674718306
7.734065934065935,7.429679063311086
7.753846153846154,7.45098933986376
7.7736263736263735,7.469808306500112
7.793406593406592,7.486084425136965
7.813186813186814,7.499773903101396
7.832967032967034,7.510840703558463
7.852747252747252,7.5192565539271525
7.872527472527472,7.525000952846167
7.892307692307693,7.528061176111735
7.912087912087912,7.528432281877336
7.931868131868132,7.526117115280624
7.951648351648351,7.521126312540428
7.971428571428572,7.5134783044463065
7.991208791208791,7.503199319041048
8.010989010989011,7.490323383170612
8.03076923076923,7.474892322443823
8.05054945054945,7.456955759003517
8.07032967032967,7.436571106358708
8.09010989010989,7.413803560362254
8.10989010989011,7.388726085237771
8.129670329670331,7.3614193933612055
8.149450549450549,7.3319719172851325
8.169230769230769,7.300479772255856
8.189010989010988,7.267046707213993
8.20879120879121,7.231784041988706
8.22857142857143,7.194810588093933
8.248351648351647,7.156252550215175
8.268131868131867,7.116243405139389
8.287912087912087,7.074923754534972
8.307692307692308,7.0324411476396875
8.327472527472528,6.988949869572224
8.347252747252746,6.9446106906599345
8.367032967032966,6.899590571887348
8.386813186813187,6.854062321336352
8.406593406593407,6.8082041963321185
8.426373626373627,6.762199445956086
8.446153846153845,6.716235788667316
8.465934065934066,6.670504820019909
8.485714285714286,6.625201345910022
8.505494505494505,6.580522637466059
8.525274725274725,6.536667604641825
8.545054945054945,6.493835886812326
8.564835164835165,6.452226860224495
8.584615384615384,6.4120385640289985
8.604395604395604,6.373466548805902
8.624175824175826,6.336702653969748
8.643956043956043,6.301933723147797
8.663736263736263,6.269340269494586
8.683516483516483,6.239095105834709
8.703296703296704,6.211361957387727
8.723076923076924,6.1862940774793245
8.742857142857142,6.164032888918654
8.762637362637362,6.144706675460027
8.782417582417583,6.128429348809472
8.802197802197803,6.1152993168475644
8.821978021978023,6.105398478017779
8.84175824175824,6.098791365121771
8.86153846153846,6.095524459073141
8.881318681318682,6.095625689557512
8.901098901098901,6.0991041351588215
8.920879120879121,6.10594993052731
8.940659340659339,6.11613438281553
8.96043956043956,6.129610294154381
8.98021978021978,6.1463124816499946
9.0,6.166158481508781
9.01978021978022,6.189049419665205
9.03956043956044,6.214871027869442
9.05934065934066,6.2434947817067465
9.079120879120879,6.274779135518949
9.098901098901099,6.3085708286729
9.11868131868132,6.344706238005231
9.138461538461538,6.38301275245824
9.158241758241758,6.423310147767132
9.178021978021977,6.465411941404181
9.197802197802199,6.509126710667546
9.217582417582419,6.55425935966388
9.237362637362637,6.600612323833456
9.257142857142856,6.6479867034842925
9.276923076923078,6.696183320442991
9.296703296703297,6.745003694325959
9.316483516483517,6.79425093704034
9.336263736263735,6.843730565917657
9.356043956043957,6.8932512373592445
9.375824175824176,6.9426254040435635
9.395604395604396,6.991669899630095
9.415384615384616,7.04020645552323
9.435164835164835,7.088062154663024
9.454945054945055,7.135069827522762
9.474725274725275,7.181068395548677
9.494505494505495,7.225903167206962
9.514285714285714,7.269426091635551
9.534065934065934,7.311495974658991
9.553846153846154,7.351978661635382
9.573626373626373,7.390747191283568
9.593406593406593,7.427681924300921
9.613186813186815,7.462670650239528
9.632967032967032,7.495608675769936
9.652747252747252,7.526398897134035
9.672527472527472,7.5549518592763825
9.692307692307693,7.581185803849484
9.712087912087913,7.605026708015332
9.731868131868131,7.626408315712609
9.75164835164835,7.645272162826925
9.771428571428572,7.6615675974889665
9.791208791208792,7.6752517965310405
9.810989010989012,7.686289778954929
9.83076923076923,7.694654417100603
9.850549450549451,7.70032644605446
9.87032967032967,7.703294471695022
9.89010989010989,7.703554977640941
9.90989010989011,7.701112331238354
9.92967032967033,7.695978788599998
9.94945054945055,7.688174498584046
9.96923076923077,7.677727505474653
9.989010989010989,7.664673749995569
10.008791208791209,7.649057068151179
10.028571428571428,7.630929187243088
10.048351648351648,7.610349718253122
10.068131868131868,7.587386143612728
10.08791208791209,7.562113799192547
10.107692307692307,7.5346158491426545
10.127472527472527,7.504983251991987
10.147252747252747,7.473314716173649
10.167032967032966,7.439716642881471
10.186813186813188,7.404303053881387
10.206593406593406,7.367195501601514
10.226373626373626,7.3285229585089855
10.246153846153845,7.288421682453678
10.265934065934067,7.247035054325353
10.285714285714286,7.2045133840384565
10.305494505494504,7.161013680539725
10.325274725274724,7.11669938123948
10.345054945054946,7.071740036016087
10.364835164835165,7.026310940753363
10.384615384615385,6.980592715265792
10.404395604395603,6.934770820473532
10.424175824175824,6.88903500983626
10.443956043956044,6.843578710374581
10.463736263736264,6.798598329131119
10.483516483516484,6.754292481682775
10.503296703296703,6.710861140338826
10.523076923076923,6.668504700970391
10.542857142857143,6.62742296902842
10.562637362637362,6.587814067222318
10.582417582417584,6.549873269535147
10.602197802197802,6.513791768710639
10.621978021978022,6.479755387006217
10.641758241758241,6.447943242785666
10.661538461538463,6.418526388321004
10.681318681318682,6.391666436860686
10.7010989010989,6.367514199457422
10.72087912087912,6.3462083540803915
10.740659340659342,6.327874171010278
10.760439560439561,6.312622319287751
10.780219780219781,6.300547778938562
10.799999999999999,6.291728882747016
10.819780219780219,6.286226509460532
10.83956043956044,6.284083447498838
