Time (s),Filtered Signal
0.0,0.010707613444306043
0.033370165745856356,-0.024703957194591813
0.06674033149171271,-0.04701385747599117
0.10011049723756907,-0.04860779785856775
0.13348066298342542,-0.03000341452352106
0.16685082872928178,0.003275479419013163
0.20022099447513814,0.04659824486467473
0.2335911602209945,0.10036144499050542
0.26696132596685085,0.1687841902686502
0.30033149171270723,0.2533907319809795
0.33370165745856356,0.345213298361241
0.3670718232044199,0.4214957986120451
0.4004419889502763,0.4507668643473635
0.43381215469613266,0.40543529355897834
0.467182320441989,0.27623994877756747
0.5005524861878453,0.08089150362735058
0.5339226519337017,-0.1385404633289864
0.5672928176795581,-0.3295227069746802
0.6006629834254145,-0.4484828347211375
0.6340331491712707,-0.4769659851009397
0.6674033149171271,-0.4270935615139111
0.7007734806629835,-0.3340275054768317
0.7341436464088398,-0.23941820056496105
0.7675138121546962,-0.17400003782199405
0.8008839779005525,-0.14746058978738733
0.8342541436464089,-0.14954482434239882
0.8676243093922653,-0.16035890517910584
0.9009944751381216,-0.1632653402383867
0.934364640883978,-0.1530383771947192
0.9677348066298344,-0.13531800159771365
1.0011049723756906,-0.11879971352604575
1.0344751381215471,-0.10585810239504398
1.0678453038674034,-0.08799181396505519
1.1012154696132597,-0.04929861718887265
1.1345856353591162,0.023882077201301585
1.1679558011049724,0.1329384747955126
1.201325966850829,0.262798010592761
1.2346961325966852,0.38655850958730886
1.2680662983425415,0.47688224446607635
1.301436464088398,0.518201307971471
1.3348066298342542,0.5132272943487137
1.3681767955801105,0.48029040898842906
1.401546961325967,0.4429017273567503
1.4349171270718233,0.41697719646364567
1.4682872928176796,0.4023103752334828
1.501657458563536,0.38267280426909644
1.5350276243093923,0.3345875596601682
1.5683977900552488,0.24053328457967943
1.601767955801105,0.1001176305062964
1.6351381215469614,-0.06639877659076714
1.6685082872928179,-0.2243571658580094
1.7018784530386741,-0.33831761093535195
1.7352486187845306,-0.38708631269058724
1.768618784530387,-0.3733147817356081
1.8019889502762432,-0.32306446635048275
1.8353591160220997,-0.2751441788889361
1.868729281767956,-0.26466674668380247
1.9020994475138122,-0.30801003332488325
1.9354696132596687,-0.3958720713859693
1.968839779005525,-0.4975024955697396
2.0022099447513813,-0.5740872646343902
2.0355801104972375,-0.59507662193021
2.0689502762430942,-0.5500315353861095
2.1023204419889505,-0.4509406306020198
2.135690607734807,-0.324722174543816
2.169060773480663,-0.20031792872645038
2.2024309392265193,-0.09699713819022235
2.235801104972376,-0.01917890962808055
2.2691712707182323,0.04084259937116431
2.3025414364640886,0.0951120661699644
2.335911602209945,0.15218951371533576
2.369281767955801,0.21343256725896584
2.402651933701658,0.2744253009839609
2.436022099447514,0.3293521496282293
2.4693922651933704,0.37471162582352224
2.5027624309392267,0.4098673624378034
2.536132596685083,0.43457971935193757
2.5695027624309392,0.4459758827118126
2.602872928176796,0.43786422301571604
2.636243093922652,0.4036418250664546
2.6696132596685085,0.34142853844306037
2.7029834254143648,0.2582265941741487
2.736353591160221,0.1700668122731846
2.7697237569060777,0.0972146154450938
2.803093922651934,0.05633207554770896
2.8364640883977903,0.0533701539365499
2.8698342541436466,0.08080741832665309
2.903204419889503,0.12073437457054413
2.936574585635359,0.15235833359786824
2.969944751381216,0.16032867952793795
3.003314917127072,0.13997944399491166
3.0366850828729284,0.09727906009426067
3.0700552486187846,0.04404795305731577
3.103425414364641,-0.00862733863388547
3.1367955801104976,-0.055159115668450734
3.170165745856354,-0.09611998014473455
3.20353591160221,-0.1351144518608159
3.2369060773480665,-0.1744786847179073
3.2702762430939227,-0.21300146173180418
3.3036464088397794,-0.2472815175755686
3.3370165745856357,-0.2755615846797959
3.370386740331492,-0.30075343436088453
3.4037569060773483,-0.3294773071803207
3.4371270718232045,-0.36650720604831377
3.4704972375690613,-0.40758983051842596
3.5038674033149175,-0.43583109828895583
3.537237569060774,-0.4258997917422036
3.57060773480663,-0.35617118742174403
3.6039779005524863,-0.22370440265300176
3.6373480662983426,-0.05377488890805169
3.6707182320441993,0.10305699015363616
3.7040883977900556,0.18771469054908949
3.737458563535912,0.15728972291217
3.770828729281768,0.006748727321319197
3.8041988950276244,-0.2229859072389005
3.837569060773481,-0.4556404405174036
3.8709392265193374,-0.6056421451765691
3.9043093922651937,-0.6093373999784351
3.93767955801105,-0.44859687825034555
3.9710497237569062,-0.15722406434614736
4.0044198895027625,0.19201812283108316
4.037790055248619,0.5137779063256964
4.071160220994475,0.7387263583557587
4.104530386740332,0.8333231641784989
4.1379005524861885,0.8045263045169253
4.171270718232044,0.6901429696653034
4.204640883977901,0.5410018899303072
4.238011049723757,0.4029690800277756
4.271381215469614,0.30499266645318845
4.30475138121547,0.25554259143105
4.338121546961326,0.24616486598317508
4.371491712707183,0.2588504496107868
4.404861878453039,0.27379648542408813
4.438232044198895,0.27524881076957713
4.471602209944752,0.25450205148706595
4.504972375690608,0.2101477444530032
4.538342541436465,0.14619563252269355
4.5717127071823205,0.06898808168611208
4.605082872928177,-0.01593013508952567
4.638453038674034,-0.10573855922501357
4.67182320441989,-0.200167427813518
4.7051933701657465,-0.2992284290215477
4.738563535911602,-0.39999920359724156
4.771933701657459,-0.4943570342374636
4.805303867403316,-0.5693298584223372
4.8386740331491715,-0.6104697431450083
4.872044198895028,-0.6069647609008273
4.905414364640884,-0.5560767452962097
4.938784530386741,-0.4646757184107411
4.972154696132597,-0.3471169425006712
5.005524861878453,-0.22062614717466456
5.03889502762431,-0.10055554134247817
5.072265193370166,0.0023824099464044356
5.105635359116023,0.08229359503925295
5.1390055248618784,0.13677564126025718
5.172375690607735,0.16587017902588455
5.205745856353592,0.17231168845804026
5.239116022099448,0.16247501425576
5.272486187845304,0.14626798198622099
5.30585635359116,0.1345614171710522
5.339226519337017,0.13454394161352187
5.372596685082874,0.14541785259419923
5.4059668508287295,0.15752748860009236
5.439337016574586,0.1565147752118161
5.472707182320442,0.13108450605026303
5.506077348066299,0.08028998122304914
5.5394475138121555,0.0158155966588222
5.572817679558011,-0.042835610833328416
5.606187845303868,-0.07825461786252366
5.639558011049724,-0.08482221387779262
5.672928176795581,-0.07246388196026135
5.706298342541437,-0.06173334291145332
5.739668508287293,-0.07231329145900646
5.77303867403315,-0.11091915827694168
5.806408839779006,-0.1652793360580883
5.839779005524862,-0.20787015106369094
5.873149171270718,-0.20801147213669177
5.906519337016575,-0.14652315690859385
5.939889502762432,-0.02574693377694025
5.9732596685082875,0.12995454625107586
6.006629834254144,0.28337285394377393
6.04,0.3987952816084399
6.073370165745857,0.45480453196227183
6.1067403314917135,0.45007458112163556
6.140110497237569,0.40050391751259823
6.173480662983426,0.3302041583475423
6.206850828729282,0.2612375263401728
6.240220994475139,0.20661882680894234
6.273591160220995,0.16862493476226276
6.306961325966851,0.14155596561144826
6.340331491712708,0.11634662151295144
6.373701657458564,0.08446526033090475
6.40707182320442,0.039888534334821035
6.440441988950277,-0.02049123171523403
6.473812154696133,-0.09686626051919638
6.50718232044199,-0.18606539327079388
6.5405524861878455,-0.2807963475996386
6.573922651933702,-0.3695672120536696
6.607292817679559,-0.43830784376627946
6.640662983425415,-0.4738537565266286
6.674033149171271,-0.4682622176842338
6.707403314917127,-0.4221762161839893
6.740773480662984,-0.34560993527298556
6.774143646408841,-0.2555147975399482
6.8075138121546965,-0.1707894267165043
6.840883977900553,-0.10643162387615195
6.874254143646409,-0.06890564200788543
6.907624309392266,-0.054409432826815506
6.9409944751381225,-0.050718783272028944
6.974364640883978,-0.041993390276851145
7.007734806629835,-0.014810750086745044
7.041104972375691,0.03680302105095964
7.074475138121548,0.10919920572644336
7.107845303867403,0.19050023755516943
7.14121546961326,0.2648372022281169
7.174585635359117,0.31761920871396804
7.207955801104973,0.33976560079124324
7.241325966850829,0.3294790635527591
7.274696132596685,0.29132225111862575
7.308066298342542,0.23348871274490351
7.341436464088399,0.16472977992806653
7.3748066298342545,0.0922411343581352
7.408176795580111,0.021116665116977944
7.441546961325967,-0.04485865663313974
7.474917127071824,-0.10189700300886029
7.5082872928176805,-0.1453346004635502
7.541657458563536,-0.16983995451220443
7.575027624309393,-0.1707471122069506
7.608397790055249,-0.14594157442346756
7.641767955801106,-0.09738072275084746
7.675138121546962,-0.03144971024867617
7.708508287292818,0.04209397938604094
7.741878453038675,0.11215082647546287
7.775248618784531,0.1684535690030863
7.808618784530387,0.2031876080544069
7.841988950276244,0.21186939582952113
7.8753591160221,0.19374444498769725
7.908729281767957,0.15199479679652214
7.9420994475138125,0.09367596169228253
7.975469613259669,0.0289260954199132
8.008839779005525,-0.030966503465981378
8.042209944751383,-0.07648435058343964
8.075580110497238,-0.10287375907215404
8.108950276243094,-0.11187107831839328
8.14232044198895,-0.11111257482980523
8.175690607734808,-0.11112349392242014
8.209060773480664,-0.12092311585770109
8.24243093922652,-0.14402447845814204
8.275801104972377,-0.17655318780080342
8.309171270718233,-0.20836774393251606
8.342541436464089,-0.22682494572293696
8.375911602209946,-0.22175207549080767
8.409281767955802,-0.18970214674737298
8.442651933701658,-0.13582985724250374
8.476022099447514,-0.07259416552794123
8.509392265193371,-0.015650259512785203
8.542762430939227,0.021643898949953055
8.576132596685083,0.033084715153705924
8.60950276243094,0.02196325280903442
8.642872928176796,-7.488188181905943e-05
8.676243093922652,-0.017225620930391226
8.709613259668508,-0.0150903556342347
8.742983425414366,0.014601040264244282
8.776353591160222,0.07181030315400741
8.809723756906077,0.14898359682506598
8.843093922651935,0.23390324050633163
8.87646408839779,0.31300215422997407
8.909834254143647,0.37384332360700756
8.943204419889504,0.40644487554935277
8.97657458563536,0.40405542887304546
9.009944751381216,0.36417756710079935
9.043314917127072,0.28996118117224606
9.07668508287293,0.19107653975168237
9.110055248618785,0.08269360078908533
9.143425414364641,-0.018182293646211278
9.176795580110499,-0.09822135646787011
9.210165745856354,-0.15278613783791323
9.24353591160221,-0.18768721905563582
9.276906077348068,-0.21614703281404707
9.310276243093924,-0.2518550281201921
9.34364640883978,-0.30126649596777105
9.377016574585635,-0.3590374155185452
9.410386740331493,-0.40913538775266445
9.443756906077349,-0.43137518966161564
9.477127071823205,-0.41039603740588176
9.510497237569062,-0.3428804777840792
9.543867403314918,-0.23969449433841286
9.577237569060774,-0.12205840265627331
9.610607734806631,-0.013566219170910674
9.643977900552487,0.06840493670588109
9.677348066298343,0.11827081197582401
9.710718232044199,0.14261341158664778
9.744088397790057,0.1554289688925617
9.777458563535912,0.17050473857812093
9.810828729281768,0.19442056530655327
9.844198895027626,0.22343282757916688
9.877569060773482,0.2457619137749248
9.910939226519337,0.24822163105238554
9.944309392265193,0.22388812966867153
9.97767955801105,0.17681654782910228
10.011049723756907,0.12120034023086829
10.044419889502763,0.07522365321782629
10.07779005524862,0.05265519405204244
10.111160220994476,0.05639551153308674
10.144530386740332,0.07708476152437815
10.17790055248619,0.09722344218987289
10.211270718232045,0.09861998385114223
10.244640883977901,0.06972564303079491
10.278011049723757,0.009927464259404812
10.311381215469615,-0.07047864242589108
10.34475138121547,-0.15411636407056398
10.378121546961326,-0.2224116765033676
10.411491712707184,-0.2613394284351324
10.44486187845304,-0.2651104073533205
10.478232044198895,-0.23671279042098944
10.511602209944753,-0.18542998145717077
10.544972375690609,-0.12265091141253479
10.578342541436465,-0.057928349344963846
10.61171270718232,0.0030697407421628304
10.645082872928178,0.05822170663326095
10.678453038674034,0.10705523902557729
10.71182320441989,0.1487931582356439
10.745193370165747,0.1814923410421941
10.778563535911603,0.20242347328126134
10.811933701657459,0.20900093664899927
10.845303867403315,0.1994904185485784
10.878674033149172,0.17330077041028746
10.912044198895028,0.13125717405885454
10.945414364640884,0.07624945961639186
10.978784530386742,0.014024160879604586
11.012154696132598,-0.046779239345890226
11.045524861878453,-0.09625215970293868
11.078895027624311,-0.12651220115374912
11.112265193370167,-0.13537865271791338
11.145635359116023,-0.12834270575783885
11.179005524861878,-0.11717479882879742
11.212375690607736,-0.1151333713664065
11.245745856353592,-0.1307115999223837
11.279116022099448,-0.16299169353102438
11.312486187845305,-0.20117417027685267
11.345856353591161,-0.2288527953937653
11.379226519337017,-0.23116423527609234
11.412596685082875,-0.20140916047643104
11.44596685082873,-0.14397641678393652
11.479337016574586,-0.07227304526342816
11.512707182320442,-0.0028490638412954094
11.5460773480663,0.0513103176691972
11.579447513812156,0.08515974923796323
11.612817679558011,0.10187478269609518
11.646187845303869,0.10944612598339763
11.679558011049725,0.11575563798145234
11.71292817679558,0.12479392498734312
11.746298342541436,0.13576861865101836
11.779668508287294,0.14512889379875782
11.81303867403315,0.14994100787496698
11.846408839779006,0.15040783377155237
11.879779005524863,0.14993454563656616
11.91314917127072,0.15264898960939993
11.946519337016575,0.15985256627319197
11.979889502762433,0.16762615267778472
12.013259668508288,0.16730909683843076
12.046629834254144,0.14905946791972444
12.08,0.10698787267408746
12.113370165745858,0.04334508870581372
12.146740331491714,-0.03051215200127223
12.18011049723757,-0.0972301223981975
12.213480662983427,-0.13956357721489662
12.246850828729283,-0.14690368861527622
12.280220994475139,-0.11935082984516507
12.313591160220996,-0.06752835206424027
12.346961325966852,-0.008285801448513834
12.380331491712708,0.04167829010057975
12.413701657458564,0.07136324222702853
12.447071823204421,0.07783369619982264
12.480441988950277,0.06477779062014204
12.513812154696133,0.038608084407300076
12.54718232044199,0.0046361927148355075
12.580552486187846,-0.0344397372655089
12.613922651933702,-0.07711425160611324
12.64729281767956,-0.12010006938428708
12.680662983425416,-0.1563188130550733
12.714033149171271,-0.17587744481237247
12.747403314917127,-0.17014743323709533
12.780773480662985,-0.1369204413459406
12.81414364640884,-0.08360705261060322
12.847513812154697,-0.02625546661468155
12.880883977900554,0.015668026084448436
12.91425414364641,0.026558446737713723
12.947624309392266,0.0007805360939353846
12.980994475138122,-0.055016124780204824
13.01436464088398,-0.12420300058584567
13.047734806629835,-0.18595464519434604
13.081104972375691,-0.22211866639310107
13.114475138121549,-0.22265732021116258
13.147845303867404,-0.18796550904164164
13.18121546961326,-0.12765814018453037
13.214585635359118,-0.05664995209657739
13.247955801104974,0.00987251027927677
13.28132596685083,0.06085219228262764
13.314696132596685,0.09186190255205216
13.348066298342543,0.10523342738899827
13.381436464088399,0.10814823766979136
13.414806629834255,0.10955403142154929
13.448176795580112,0.11694683897948015
13.481546961325968,0.1339580576759815
13.514917127071824,0.1594243354140961
13.548287292817681,0.1882379641266885
13.581657458563537,0.21376230192953088
13.615027624309393,0.23099397226092291
13.648397790055249,0.23915393604086194
13.681767955801106,0.24230468311317752
13.715138121546962,0.24718450491658636
13.748508287292818,0.2587077486295589
13.781878453038676,0.2750524174831511
13.815248618784532,0.28513447300026246
13.848618784530387,0.27077450564182415
13.881988950276245,0.21381971746452508
13.9153591160221,0.10568198364223932
13.948729281767957,-0.04527259953422057
13.982099447513813,-0.2128576664354798
14.01546961325967,-0.36035795622082245
14.048839779005526,-0.453532058352066
14.082209944751382,-0.47367431203802246
14.11558011049724,-0.424659335046943
14.148950276243095,-0.33063478819465886
14.182320441988951,-0.22551392966935577
14.215690607734807,-0.13926725319544736
14.249060773480664,-0.0872677105022076
14.28243093922652,-0.06711704958782619
14.315801104972376,-0.06357983991268307
14.349171270718234,-0.058464829528835804
14.38254143646409,-0.04031669528036843
14.415911602209945,-0.009379831762373033
14.449281767955803,0.024040612483353777
14.482651933701659,0.046380842064074966
14.516022099447515,0.04896783514715079
14.54939226519337,0.0332985100897605
14.582762430939228,0.010865212184368537
14.616132596685084,-0.0022653534774299826
14.64950276243094,0.006662094508530867
14.682872928176797,0.04066533121825848
14.716243093922653,0.09118892735614129
14.749613259668509,0.14168737012655055
14.782983425414367,0.1747954669474934
14.816353591160222,0.17956045497082504
14.849723756906078,0.1553234997818487
14.883093922651934,0.11067097158612724
14.916464088397792,0.058433281806010186
14.949834254143648,0.009617093279589073
14.983204419889503,-0.030578469668827015
15.016574585635361,-0.0629540773654117
15.049944751381217,-0.09127168075053035
15.083314917127073,-0.11832049253035208
15.116685082872928,-0.14369523853339247
15.150055248618786,-0.16454482703601767
15.183425414364642,-0.17843278934376677
15.216795580110498,-0.185916938017922
15.250165745856355,-0.19053868765118256
15.283535911602211,-0.19565182961294003
15.316906077348067,-0.19986172015660847
15.350276243093925,-0.19425174839138581
15.38364640883978,-0.1640080075357894
15.417016574585636,-0.09468971165433718
15.450386740331492,0.019444819076790843
15.48375690607735,0.16928848978312855
15.517127071823205,0.33057158534578435
15.550497237569061,0.4704600517106164
15.583867403314919,0.5588235845720174
15.617237569060775,0.5795217593499957
15.65060773480663,0.5367387585814632
15.683977900552488,0.45334729241402016
15.717348066298344,0.36163326005942303
15.7507182320442,0.28999586598064936
15.784088397790056,0.2510551680771374
15.817458563535913,0.2361989925705759
15.85082872928177,0.21912714892489293
15.884198895027625,0.1673339081798732
15.917569060773483,0.05709025094571762
15.950939226519338,-0.11426941619739506
15.984309392265194,-0.3241932578353979
16.01767955801105,-0.5311221928272972
16.051049723756908,-0.6888638819318991
16.084419889502765,-0.7632692637268503
16.11779005524862,-0.7442719940818
16.151160220994477,-0.6484409141696874
16.18453038674033,-0.5114200494550641
16.21790055248619,-0.37391131100582
16.251270718232046,-0.2672226302361544
16.2846408839779,-0.20398038416029446
16.318011049723758,-0.1768935710037159
16.351381215469615,-0.1649208740973664
16.38475138121547,-0.1434446007273311
16.418121546961327,-0.0941066889678113
16.451491712707185,-0.010860586721469213
16.48486187845304,0.09920328551550812
16.518232044198896,0.21960449447545807
16.551602209944754,0.3307187066736091
16.584972375690608,0.41600728982206187
16.618342541436466,0.46615889045758907
16.651712707182323,0.48011109512570516
16.685082872928177,0.46318233290912264
16.718453038674035,0.423611864353563
16.751823204419892,0.3692838729097159
16.785193370165747,0.3060797115947565
16.818563535911604,0.2382802020534302
16.851933701657458,0.17021860596086708
16.885303867403316,0.10763044414477972
16.918674033149173,0.05733478568610621
16.952044198895027,0.02496951969219674
16.985414364640885,0.01187563352081671
17.018784530386743,0.013027054160338279
17.052154696132597,0.017580621552494718
17.085524861878454,0.012307786035863851
17.118895027624312,-0.013388510603069616
17.152265193370166,-0.06308769535933637
17.185635359116024,-0.13160083172714945
