Frequency (Hz),Amplitude
0.0,5.822643567546062
0.019867549668874173,5.823350544484351
0.039735099337748346,5.825468217963614
0.059602649006622516,5.828986838453981
0.07947019867549669,5.8338902313425125
0.09933774834437085,5.840155907727797
0.11920529801324503,5.847755217342949
0.13907284768211922,5.856653541488919
0.15894039735099338,5.8668105233545065
0.17880794701986755,5.878180332661656
0.1986754966887417,5.890711961214447
0.2185430463576159,5.904349545653668
0.23841059602649006,5.91903271352777
0.2582781456953642,5.93469694868724
0.27814569536423844,5.951273971986934
0.2980132450331126,5.968692133336843
0.31788079470198677,5.986876811266864
0.33774834437086093,6.005750816356574
0.3576158940397351,6.025234795117136
0.3774834437086093,6.04524763118764
0.3973509933774834,6.065706841012763
0.4172185430463576,6.086528961491313
0.4370860927152318,6.1076299274170145
0.45695364238410596,6.128925436864747
0.4768211920529801,6.1503313030001285
0.49668874172185434,6.171763791100914
0.5165562913907285,6.19313993987153
0.5364238410596026,6.2143778664008416
0.5562913907284769,6.235397054359009
0.5761589403973509,6.256118625246081
0.5960264900662252,6.276465592696355
0.6158940397350993,6.296363100005386
0.6357615894039735,6.3157386411837955
0.6556291390728477,6.334522265953437
0.6754966887417219,6.35264676919009
0.695364238410596,6.370047865383132
0.7152317880794702,6.386664348730201
0.7350993377483444,6.402438239513771
0.7549668874172186,6.41731491742148
0.7748344370860927,6.431243242472409
0.7947019867549668,6.4441756642010235
0.8145695364238411,6.4560683197302895
0.8344370860927152,6.466881121336706
0.8543046357615894,6.476577834075165
0.8741721854304636,6.485126143990956
0.8940397350993378,6.492497717400987
0.9139072847682119,6.498668251678486
0.9337748344370861,6.503617517924209
0.9536423841059603,6.507329395854062
0.9735099337748344,6.509791901178993
0.9933774834437087,6.510997205697113
1.0132450331125828,6.510941650261804
1.033112582781457,6.509625750733023
1.0529801324503312,6.50705419696143
1.0728476821192052,6.503235844798251
1.0927152317880795,6.4981837010665675
1.1125827814569538,6.4919149013722
1.1324503311258278,6.484450680576658
1.1523178807947019,6.475816335697967
1.1721854304635762,6.466041180950118
1.1920529801324504,6.455158494578447
1.2119205298013245,6.443205457095337
1.2317880794701985,6.43022308047113
1.2516556291390728,6.416256127787473
1.271523178807947,6.401353022817109
1.2913907284768211,6.3855657489552495
1.3112582781456954,6.368949736894057
1.3311258278145695,6.35156374040646
1.3509933774834437,6.333469699587212
1.370860927152318,6.314732590892059
1.390728476821192,6.2954202633205965
1.410596026490066,6.275603260106234
1.4304635761589404,6.255354625311509
1.4503311258278146,6.234749694778929
1.4701986754966887,6.21386587095985
1.4900662251655628,6.192782381238127
1.5099337748344372,6.171580019483618
1.5298013245033113,6.150340870713695
1.5496688741721854,6.12914801891127
1.5695364238410596,6.108085238244871
1.5894039735099337,6.087236668160141
1.609271523178808,6.066686473062832
1.6291390728476822,6.046518487587576
1.6490066225165563,6.026815848742817
1.6688741721854303,6.0076606165352935
1.6887417218543048,5.989133385002657
1.7086092715231789,5.97131288591311
1.728476821192053,5.954275587718943
1.7483443708609272,5.938095292666944
1.7682119205298013,5.922842735264767
1.7880794701986755,5.908585185565128
1.8079470198675496,5.895386060952241
1.8278145695364238,5.88330455028308
1.847682119205298,5.872395254342646
1.8675496688741722,5.862707846607525
1.8874172185430464,5.854286758268369
1.9072847682119205,5.84717089133584
1.9271523178807946,5.841393363441778
1.9470198675496688,5.836981287650727
1.9668874172185429,5.833955590217707
1.9867549668874174,5.832330868775148
2.0066225165562916,5.832115292913128
2.0264900662251657,5.833310548546556
2.0463576158940397,5.835911826853828
2.066225165562914,5.839907857941578
2.086092715231788,5.8452809887553565
2.1059602649006623,5.852007304135081
2.1258278145695364,5.8600567893229005
2.1456953642384105,5.869393531685515
2.165562913907285,5.8799759589270595
2.185430463576159,5.891757110652647
2.205298013245033,5.904684939805334
2.2251655629139075,5.918702640245871
2.2450331125827816,5.933748996576435
2.2649006622516556,5.949758752226685
2.2847682119205297,5.966662991817832
2.3046357615894038,5.984389533893575
2.324503311258278,6.002863330245923
2.3443708609271523,6.022006868261296
2.364238410596027,6.041740572956895
2.384105960264901,6.061983205658092
2.403973509933775,6.082652256575225
2.423841059602649,6.103664328861288
2.443708609271523,6.124935512061844
2.463576158940397,6.146381743196991
2.4834437086092715,6.167919154034292
2.5033112582781456,6.189464403416568
2.52317880794702,6.210934993793127
2.543046357615894,6.232249571365419
2.562913907284768,6.253328209494758
2.5827814569536423,6.274092675229782
2.6026490066225163,6.2944666789943655
2.622516556291391,6.3143761076327545
2.642384105960265,6.333749241138732
2.662251655629139,6.352516953501402
2.6821192052980134,6.370612898182643
2.7019867549668874,6.387973678802955
2.7218543046357615,6.404539005655271
2.741721854304636,6.420251838691987
2.76158940397351,6.435058517641561
2.781456953642384,6.448908879909332
2.801324503311258,6.461756366904204
2.821192052980132,6.47355811941092
2.8410596026490067,6.48427506259776
2.8609271523178808,6.493871981213532
2.8807947019867552,6.502317585486067
2.9006622516556293,6.509584568189445
2.9205298013245033,6.515649653298278
2.9403973509933774,6.520493636596515
2.9602649006622515,6.52410141855494
2.9801324503311255,6.526462029737601
3.0,6.527568648941802
3.0198675496688745,6.527418614220444
3.0397350993377485,6.526013426878921
3.0596026490066226,6.523358748482315
3.0794701986754967,6.519464390851939
3.0993377483443707,6.514344298973413
3.119205298013245,6.508016526682688
3.1390728476821192,6.500503204940032
3.1589403973509933,6.491830502447534
3.1788079470198674,6.482028578310885
3.198675496688742,6.4711315263942195
3.218543046357616,6.459177310965424
3.23841059602649,6.4462076931811305
3.2582781456953644,6.432268147915167
3.2781456953642385,6.417407770393231
3.2980132450331126,6.401679172059636
3.3178807947019866,6.385138365072135
3.3377483443708607,6.36784463479797
3.3576158940397347,6.349860399669989
3.3774834437086096,6.331251057758743
3.3973509933774837,6.3120848194252135
3.4172185430463577,6.292432525441979
3.437086092715232,6.272367450010219
3.456953642384106,6.251965088157442
3.47682119205298,6.231302927079004
3.4966887417218544,6.210460201086207
3.5165562913907285,6.189517629947811
3.5364238410596025,6.1685571405609085
3.556291390728477,6.147661572061781
3.576158940397351,6.126914364689667
3.596026490066225,6.106399232943515
3.615894039735099,6.086199823824962
3.6357615894039736,6.066399361236492
3.6556291390728477,6.047080277898705
3.6754966887417218,6.028323836461944
3.695364238410596,6.010209741807322
3.7152317880794703,5.992815746855941
3.7350993377483444,5.976217254523437
3.754966887417219,5.960486918761364
3.774834437086093,5.945694247908056
3.794701986754967,5.931905213818723
3.814569536423841,5.919181870447334
3.834437086092715,5.907581985701786
3.854304635761589,5.897158690479027
3.8741721854304636,5.887960148800247
3.8940397350993377,5.8800292529022595
3.9139072847682117,5.87340334699436
3.9337748344370858,5.868113983160418
3.9536423841059607,5.8641867125732565
3.9735099337748347,5.861640914798335
3.993377483443709,5.860489667502638
4.013245033112583,5.8607396583633875
4.033112582781457,5.862391140401621
4.052980132450331,5.865437931363698
4.072847682119205,5.869867457154125
4.0927152317880795,5.875660838704012
4.112582781456953,5.882793021056735
4.132450331125828,5.891232942883185
4.152317880794702,5.9009437441168195
4.172185430463576,5.911883008937828
4.19205298013245,5.924003040944469
4.211920529801325,5.937251167037378
4.231788079470199,5.951570066311468
4.251655629139073,5.966898120103382
4.271523178807947,5.983169779277272
4.291390728476821,6.000315944844663
4.311258278145695,6.018264358098453
4.33112582781457,6.036939996589269
4.3509933774834435,6.056265472474445
4.370860927152318,6.076161430016581
4.390728476821192,6.096546939288399
4.410596026490066,6.117339883445093
4.43046357615894,6.138457337242507
4.450331125827815,6.159815934802931
4.470198675496689,6.181332224949757
4.490066225165563,6.202923012742759
4.509933774834438,6.224505686140597
4.529801324503311,6.245998526992867
4.549668874172186,6.267321005816059
4.569536423841059,6.288394060036046
4.589403973509934,6.309140355580768
4.6092715231788075,6.3294845318821045
4.629139072847682,6.349353430494856
4.649006622516556,6.368676307664688
4.66887417218543,6.387385031276882
4.688741721854305,6.405414262696021
4.708609271523179,6.422701624064183
4.728476821192054,6.439187851665166
4.748344370860927,6.454816935985343
4.768211920529802,6.469536249111086
4.788079470198675,6.483296660099439
4.80794701986755,6.496052638944964
4.827814569536423,6.507762349743246
4.847682119205298,6.5183877336211875
4.867549668874172,6.527894581968537
4.887417218543046,6.536252600463712
4.9072847682119205,6.543435464342104
4.927152317880794,6.549420865307134
4.947019867549669,6.554190550433637
4.966887417218543,6.557730353361154
4.986754966887418,6.560030218021076
5.006622516556291,6.561084215087069
5.026490066225166,6.560890551283211
5.04635761589404,6.559451571628734
5.066225165562914,6.55677375464275
5.086092715231788,6.552867700476416
5.105960264900662,6.547748111885107
5.125827814569536,6.541433767897581
5.14569536423841,6.533947489984943
5.1655629139072845,6.525316100478844
5.185430463576159,6.515570372935417
5.205298013245033,6.504744974091174
5.225165562913908,6.492878397008075
5.245033112582782,6.480012884958747
5.264900662251656,6.466194345560762
5.28476821192053,6.451472254629529
5.304635761589404,6.435899549187217
5.324503311258278,6.419532509037597
5.344370860927152,6.402430626298256
5.364238410596027,6.384656462271703
5.3841059602649,6.366275491037942
5.403973509933775,6.347355929165101
5.4238410596026485,6.327968550962408
5.443708609271523,6.308186488744909
5.463576158940397,6.288085017641307
5.483443708609272,6.267741324560178
5.503311258278146,6.247234261033515
5.52317880794702,6.226644079785531
5.543046357615895,6.206052155026702
5.562913907284768,6.185540686651189
5.582781456953643,6.165192388718655
5.602649006622516,6.1450901628299714
5.622516556291391,6.125316757257171
5.642384105960264,6.1059544129605765
5.662251655629139,6.087084497916293
5.682119205298013,6.068787131479634
5.701986754966887,6.051140800821252
5.7218543046357615,6.0342219717829595
5.741721854304636,6.018104696804594
5.7615894039735105,6.0028602228604795
5.781456953642384,5.988556602606522
5.801324503311259,5.975258312165766
5.821192052980132,5.963025879162419
5.841059602649007,5.951915524741298
5.860927152317881,5.941978823374582
5.880794701986755,5.933262384250765
5.900662251655629,5.925807557959892
5.920529801324503,5.919650172026616
5.940397350993377,5.91482029860261
5.960264900662251,5.911342057309461
5.980132450331126,5.909233455831006
6.0,5.9085062703955
6.0198675496688745,5.909165967773993
6.039735099337749,5.911211669864522
6.059602649006623,5.9146361613464045
6.079470198675497,5.9194259402904565
6.099337748344371,5.925561311015677
6.119205298013245,5.9330165179071495
6.139072847682119,5.9417599183677625
6.158940397350993,5.951754192583175
6.178807947019867,5.962956587344984
6.198675496688741,5.9753191908124315
6.218543046357616,5.988789234803298
6.23841059602649,6.003309420994233
6.258278145695365,6.01881826728047
6.2781456953642385,6.035250470492498
6.298013245033113,6.052537281688982
6.317880794701987,6.070606890334322
6.337748344370861,6.089384813818554
6.357615894039735,6.108794288976966
6.377483443708609,6.128756662507966
6.397350993377484,6.149191777460473
6.417218543046357,6.170018353255849
6.437086092715232,6.191154357016621
6.456953642384105,6.212517364284562
6.47682119205298,6.234024907518735
6.496688741721854,6.255594811061509
6.516556291390729,6.277145511543852
6.5364238410596025,6.2985963629648705
6.556291390728477,6.31986792592275
6.5761589403973515,6.340882240692155
6.596026490066225,6.361563084036235
6.6158940397351,6.381836209808946
6.635761589403973,6.401629573546265
6.655629139072848,6.420873541363474
6.675496688741721,6.439501083571897
6.695364238410596,6.45744795350281
6.715231788079469,6.474652852082387
6.735099337748344,6.491057578738973
6.754966887417219,6.506607169246726
6.774834437086093,6.5212500211184095
6.794701986754967,6.53493800715688
6.814569536423841,6.547626577761836
6.8344370860927155,6.559274852566282
6.854304635761589,6.569845701948324
6.874172185430464,6.579305818928826
6.894039735099337,6.5876257819258255
6.913907284768212,6.5947801087930475
6.933774834437086,6.600747302522964
6.95364238410596,6.605509888946211
6.973509933774834,6.609054446708235
6.993377483443709,6.611371629752024
7.013245033112583,6.612456182482916
7.033112582781457,6.612306947737782
7.052980132450331,6.610926867627024
7.072847682119205,6.60832297726394
7.0927152317880795,6.604506391341685
7.112582781456954,6.599492283464898
7.132450331125828,6.593299858089362
7.152317880794702,6.5859523148709975
7.172185430463576,6.577476805173851
7.19205298013245,6.567904380436644
7.211920529801324,6.557269932049198
7.231788079470198,6.545612122344152
7.251655629139073,6.532973306265946
7.271523178807947,6.51939944324003
7.291390728476822,6.504939998730035
7.311258278145695,6.489647834941425
7.33112582781457,6.473579090107343
7.3509933774834435,6.456793045777688
7.370860927152318,6.439351981527257
7.390728476821192,6.421321016504128
7.410596026490066,6.402767937258143
7.430463576158941,6.383763011321692
7.450331125827814,6.364378786064034
7.470198675496689,6.34468987240705
7.490066225165562,6.324772713076748
7.509933774834438,6.304705335172358
7.52980132450331,6.284567086964848
7.549668874172186,6.264438358990086
7.569536423841059,6.244400289678814
7.589403973509934,6.224534455967144
7.6092715231788075,6.204922549554386
7.629139072847682,6.185646039720857
7.649006622516557,6.166785823882431
7.66887417218543,6.148421867337178
7.6887417218543055,6.130632833950609
7.708609271523178,6.113495709820359
7.728476821192054,6.097085422255332
7.748344370860927,6.0814744566885635
7.768211920529802,6.066732474410233
7.788079470198675,6.052925934248172
7.80794701986755,6.040117721527784
7.827814569536423,6.0283667878044
7.847682119205298,6.017727804967769
7.8675496688741715,6.008250837364737
7.887417218543046,5.999981035564788
7.907284768211921,5.9929583552990575
7.927152317880795,5.987217304935666
7.9470198675496695,5.982786724609819
7.966887417218543,5.979689599810943
7.986754966887418,5.977942911844972
8.006622516556291,5.9775575271448185
8.026490066225167,5.97853812690742
8.046357615894038,5.980883178002105
8.066225165562914,5.9845849455368905
8.086092715231787,5.989629546901051
8.105960264900663,5.995997046538796
8.125827814569536,6.003661590165176
8.14569536423841,6.012591576625529
8.165562913907285,6.022749865136284
8.185430463576159,6.034094015238487
8.205298013245034,6.046576556454229
8.225165562913906,6.060145284366804
8.245033112582782,6.07474357964995
8.264900662251655,6.090310746451717
8.28476821192053,6.106782366491855
8.304635761589404,6.124090665253854
8.324503311258278,6.142164886739137
8.344370860927151,6.160931673392547
8.364238410596027,6.180315447998062
8.3841059602649,6.2002387945719635
8.403973509933774,6.220622835538534
8.42384105960265,6.241387602751852
8.443708609271523,6.262452400217326
8.463576158940398,6.283736156661436
8.483443708609272,6.3051577663893354
8.503311258278146,6.326636417153056
8.52317880794702,6.34809190402187
8.543046357615895,6.369444928497996
8.562913907284768,6.390617382351353
8.582781456953642,6.411532615856197
8.602649006622515,6.43211569029688
8.62251655629139,6.452293614772068
8.642384105960264,6.471995567463631
8.66225165562914,6.491153101652473
8.682119205298013,6.5097003368562
8.701986754966887,6.527574135537652
8.721854304635762,6.54471426588794
8.741721854304636,6.561063551225787
8.76158940397351,6.576568006578741
8.781456953642383,6.591176963021473
8.801324503311259,6.604843180345177
8.821192052980132,6.617522948621103
8.841059602649008,6.629176179201129
8.86092715231788,6.63976648567213
8.880794701986755,6.6492612552478105
8.90066225165563,6.657631711044835
8.920529801324504,6.664852965648553
8.940397350993377,6.6709040663295065
8.960264900662251,6.675768032225243
8.980132450331126,6.679431883753649
9.0,6.681886664473946
9.019867549668875,6.6831274555610705
9.039735099337747,6.683153383007554
9.059602649006623,6.681967617615456
9.079470198675496,6.679577367789126
9.099337748344372,6.675993865087692
9.119205298013245,6.671232342445094
9.139072847682119,6.665312004914678
9.158940397350994,6.658255992745313
9.178807947019868,6.650091336547487
9.198675496688743,6.640848904260615
9.218543046357615,6.630563339587256
9.23841059602649,6.619272991517824
9.258278145695364,6.607019834528945
9.27814569536424,6.593849379003581
9.298013245033111,6.5798105713894985
9.317880794701987,6.564955683587503
9.33774834437086,6.54934019104216
9.357615894039736,6.533022638997199
9.37748344370861,6.516064496376701
9.397350993377483,6.498529996762632
9.417218543046358,6.480485965961562
9.437086092715232,6.462001635689269
9.456953642384107,6.44314844295377
9.47682119205298,6.423999814785938
9.496688741721854,6.404630938054749
9.516556291390728,6.385118514211306
9.536423841059603,6.365540498934884
9.556291390728477,6.345975826804123
9.57615894039735,6.326504121289299
9.596026490066224,6.307205390555411
9.6158940397351,6.288159709781161
9.635761589403973,6.269446890932324
9.655629139072847,6.251146141178951
9.675496688741722,6.2333357114092305
9.695364238410596,6.216092536564623
9.715231788079471,6.199491869796687
9.735099337748345,6.183606912717851
9.754966887417218,6.168508444280492
9.774834437086092,6.154264451063211
9.794701986754967,6.140939761960752
9.814569536423841,6.128595690458053
9.834437086092716,6.1172896878094996
9.854304635761588,6.1070750105350555
9.874172185430464,6.098000405677882
9.894039735099337,6.09010981723815
9.913907284768213,6.08344211710062
9.933774834437086,6.07803086360758
9.95364238410596,6.073904090693063
9.973509933774835,6.071084130192498
9.993377483443709,6.0695874695775105
10.013245033112582,6.069424646947009
10.033112582781456,6.070600184640575
10.052980132450331,6.073112562341193
10.072847682119205,6.076954230012704
10.09271523178808,6.082111660486886
10.112582781456952,6.088565440990035
10.132450331125828,6.0962904023911175
10.152317880794701,6.105255784478787
10.172185430463577,6.115425435140127
10.192052980132452,6.126758040934403
10.211920529801324,6.13920738623327
10.2317880794702,6.152722637844712
10.251655629139073,6.1672486518508105
10.271523178807948,6.182726299272335
10.29139072847682,6.199092807123696
10.311258278145695,6.216282111436388
10.331125827814569,6.234225218902815
10.350993377483444,6.252850573918458
10.370860927152318,6.2720844279714845
10.390728476821192,6.291851208536759
10.410596026490065,6.312073884867351
10.43046357615894,6.332674328333451
10.450331125827816,6.3535736652270804
10.470198675496688,6.374692620225196
10.490066225165563,6.39595184897595
10.509933774834437,6.4172722585385396
10.529801324503312,6.438575314660303
10.549668874172186,6.459783335113336
10.56953642384106,6.480819768532265
10.589403973509933,6.501609458394757
10.609271523178808,6.522078891964346
10.629139072847682,6.542156434171376
10.649006622516556,6.56177254654266
10.66887417218543,6.580859991403398
10.688741721854305,6.5993540216682485
10.70860927152318,6.617192556612435
10.728476821192054,6.634316344070486
10.748344370860927,6.65066910955038
10.7682119205298,6.666197692777625
10.788079470198676,6.680852172196673
10.80794701986755,6.694585977959769
10.827814569536423,6.707355993925362
10.847682119205297,6.719122649172797
10.867549668874172,6.729849999516837
10.887417218543046,6.739505799476915
10.907284768211921,6.748061565122394
10.927152317880793,6.755492628177402
