Frequency (Hz),Amplitude
0.0,4.123749656861751
0.04,4.12205348922575
0.08,4.1169674832581205
0.12,4.1084991342912325
0.16,4.096660949685193
0.19999999999999998,4.081470471895991
0.24,4.062950311496945
0.27999999999999997,4.041128190898276
0.32,4.016036999750395
0.36,3.9877148632785664
0.39999999999999997,3.9562052250864723
0.44,3.92155694629003
0.48,3.883824423208308
0.52,3.84306772625322
0.5599999999999999,3.7993527631333905
0.6,3.7527514700306246
0.64,3.703342035030323
0.6799999999999999,3.651209158803019
0.72,3.5964443583552934
0.76,3.5391463206076774
0.7999999999999999,3.4794213136264793
0.84,3.4173836645450977
0.88,3.3531563145611702
0.9199999999999999,3.2868714628826603
0.96,3.2186713130951152
1.0,3.1487089370833865
1.04,3.0771492732723122
1.0799999999999998,3.004170277396308
1.1199999999999999,2.9299642450169303
1.1600000000000001,2.854739325191448
1.2,2.7787212434651085
1.24,2.702155248848445
1.28,2.6253082923982363
1.3199999999999998,2.548471432695945
1.3599999999999999,2.471962443530124
1.4,2.396128568335531
1.44,2.3213493205999236
1.48,2.2480391652225826
1.52,2.1766498286225002
1.5599999999999998,2.107671872873941
1.5999999999999999,2.0416350332648934
1.64,1.9791066698868232
1.68,1.9206875466160118
1.72,1.8670040692042622
1.76,1.8186961543738496
1.7999999999999998,1.7764001457856107
1.8399999999999999,1.7407267157320712
1.88,1.712234519169965
1.92,1.6914014206402934
1.9599999999999997,1.678596172389979
2.0,1.6740541374220792
2.0399999999999996,1.6778606650960557
2.08,1.6899448459995006
2.12,1.7100847211921324
2.1599999999999997,1.7379230464963829
2.2,1.7729910088807097
2.2399999999999998,1.8147363301591144
2.28,1.8625521294400846
2.3200000000000003,1.9158035808250835
2.36,1.9738504448947898
2.4,2.0360646181768636
2.44,2.10184269837418
2.48,2.170614114003999
2.5199999999999996,2.241845633804405
2.56,2.3150431265546754
2.6,2.3897513684068827
2.6399999999999997,2.465552560536065
2.68,2.542064070947245
2.7199999999999998,2.6189357766448906
2.76,2.6958472675632272
2.8,2.772505084227387
2.84,2.8486400949577866
2.88,2.9240050715507104
2.92,2.998372490452668
2.96,3.0715325656161627
2.9999999999999996,3.143291506308252
3.04,3.213469985698375
3.08,3.281901802274743
3.1199999999999997,3.3484327147396105
3.16,3.4129194311147946
3.1999999999999997,3.4752287337399856
3.2399999999999998,3.5352367232628756
3.28,3.592828166340928
3.32,3.6478959334366965
3.36,3.700340514695209
3.4,3.7500696033895227
3.44,3.7969977377838973
3.4799999999999995,3.841045993484985
3.52,3.882141719432924
3.5599999999999996,3.9202183116346747
3.5999999999999996,3.9552150195731186
3.64,3.9870767809499235
3.6799999999999997,4.015754081051297
3.7199999999999998,4.041202833575165
3.76,4.063384280237914
3.7999999999999994,4.082264906898716
3.84,4.097816374308955
3.88,4.110015461921582
3.9199999999999995,4.118844023487927
3.96,4.124288953434044
4.0,4.126342163250892
4.04,4.125000567358324
4.079999999999999,4.120266078116443
4.12,4.112145609864669
4.16,4.1006510920727575
4.199999999999999,4.085799491893924
4.24,4.06761284662246
4.28,4.046118306781437
4.319999999999999,4.021348190805212
4.36,3.9933400525418077
4.4,3.9621367630878503
4.4399999999999995,3.92778660878959
4.4799999999999995,3.8903434076056187
4.5200000000000005,3.8498666464375684
4.56,3.806421642504024
4.6,3.76007973237003
4.640000000000001,3.7109184928611234
4.68,3.6590219987991133
4.72,3.6044811233095246
4.76,3.547393887380747
4.8,3.487865866414579
4.84,3.426010662706258
4.88,3.36195045413349
4.92,3.295816630812843
4.96,3.2277505330768776
5.0,3.1579043057886995
5.039999999999999,3.0864418856555056
5.08,3.013540139679199
5.12,2.939390173950393
5.159999999999999,2.8641988322767116
5.2,2.7881904030686764
5.24,2.7116085496466145
5.279999999999999,2.63471847246757
5.319999999999999,2.5578092999963995
5.36,2.4811966857373777
5.3999999999999995,2.4052255592557406
5.4399999999999995,2.330272935081037
5.48,2.256750620907755
5.52,2.1851075813385985
5.56,2.115831602921474
5.6,2.049449771841528
5.64,1.9865271268411107
5.68,1.9276627097438375
5.72,1.8734821465790028
5.76,1.824625918220328
5.8,1.7817327021085174
5.84,1.7454176635485459
5.879999999999999,1.7162463788031779
5.92,1.6947061154676604
5.96,1.681177268736602
5.999999999999999,1.675908515935324
6.04,1.6789993402084777
6.08,1.6903927713311848
6.119999999999999,1.7098795902472628
6.16,1.7371132693047453
6.2,1.771633165348314
6.239999999999999,1.8128924411330136
6.279999999999999,1.860287049826756
6.32,1.9131827325842374
6.359999999999999,1.9709380059128525
6.3999999999999995,2.032922193434051
6.44,2.098528436604424
6.4799999999999995,2.16718219820033
6.52,2.2383460621138176
6.56,2.3115217035180677
6.6,2.386249837949568
6.64,2.4621088263687367
6.68,2.538712463918927
6.72,2.6157073405336093
6.76,2.6927700442888045
6.8,2.769604386603349
6.84,2.8459387602125252
6.88,2.921523692363152
6.92,2.9961296225634144
6.959999999999999,3.069544912526181
7.0,3.141574082425922
7.04,3.2120362597382335
7.08,3.280763822888506
7.119999999999999,3.3476012203712644
7.16,3.412403945983992
7.199999999999999,3.4750376517168275
7.239999999999999,3.535377381231438
7.28,3.5933069084768987
7.32,3.6487181676572003
7.359999999999999,3.701510762382379
7.3999999999999995,3.751591543346629
7.4399999999999995,3.798874245254891
7.4799999999999995,3.84327917495498
7.52,3.884732943827664
7.5600000000000005,3.9231682384501383
7.599999999999999,3.9585236243907924
7.64,3.9907433787277746
7.68,4.0197773475235214
7.719999999999999,4.045580825044459
7.76,4.068114452001165
7.800000000000001,4.08734413050955
7.839999999999999,4.103240953847974
7.88,4.115781149416244
7.92,4.124946033598617
7.959999999999999,4.1307219774999195
8.0,4.133100382768631
8.040000000000001,4.132077666947758
8.08,4.12765525800966
8.12,4.1198395979382445
8.159999999999998,4.108642155426735
8.2,4.094079447965055
8.24,4.0761730738032025
8.28,4.054949754499292
8.32,4.030441388999536
8.36,4.002685120456261
8.399999999999999,3.9717234172758777
8.44,3.937604170207452
8.48,3.900380807641693
8.52,3.8601124316974778
8.56,3.816863978137863
8.6,3.7707064036897733
8.639999999999999,3.7217169049524315
8.68,3.6699791737810656
8.72,3.6155836948376234
8.76,3.5586280919215345
8.8,3.4992175307436497
8.84,3.4374651869945128
8.879999999999999,3.37349278988886
8.92,3.3074312528369023
8.959999999999999,3.2394214044793266
9.0,3.1696148349817643
9.040000000000001,3.0981748741316246
9.079999999999998,3.025277719271417
9.12,2.951113732205322
9.16,2.8758889245654813
9.2,2.799826650169366
9.24,2.7231695198216554
9.280000000000001,2.6461815476321915
9.32,2.5691505265712795
9.36,2.492390612392019
9.399999999999999,2.4162450662291395
9.44,2.341089063417736
9.48,2.267332415106736
9.52,2.195421965881727
9.559999999999999,2.125843322063202
9.6,2.05912143263665
9.639999999999999,1.9958193966413318
9.68,1.9365347290742125
9.72,1.8818922225471035
9.76,1.8325325568346031
9.8,1.7890960135672795
9.84,1.7522011274454108
9.879999999999999,1.722418886055957
9.92,1.7002441197781375
9.959999999999999,1.6860668032889443
10.0,1.680146789699427
10.04,1.6825956487023372
10.079999999999998,1.6933685476242584
10.12,1.7122675649838317
10.16,1.7389558623666557
10.2,1.7729803501352495
10.24,1.813799374854305
10.280000000000001,1.8608117462449905
10.319999999999999,1.9133839870993996
10.36,1.970873696203024
10.4,2.0326479977860274
10.44,2.0980969514665833
10.48,2.1666424002980893
10.52,2.2377430453523948
10.559999999999999,2.310896620519679
10.6,2.3856399841040727
10.639999999999999,2.461547815837171
10.68,2.5382304589835747
10.72,2.6153313063645
10.76,2.6925240099297025
10.799999999999999,2.769509699700759
10.84,2.846014327943016
10.879999999999999,2.921786204489475
10.92,2.996593754904787
10.96,3.0702235106578466
11.0,3.1424783263650635
11.04,3.2131758109094686
11.08,3.282146954926506
11.12,3.3492349354056934
11.16,3.4142940780301094
11.2,3.477188958708791
11.24,3.5377936271148913
11.28,3.595990936642391
11.319999999999999,3.6516719668585518
11.36,3.70473552615171
11.4,3.7550877237943494
11.44,3.8026416020304827
11.48,3.847316820043619
11.52,3.8890393827681944
11.559999999999999,3.927741408481205
11.6,3.9633609299630255
11.64,3.995841724759876
11.68,4.025133170727863
11.72,4.051190123602528
11.759999999999998,4.073972813829822
11.799999999999999,4.093446760325118
11.84,4.109582699205394
11.879999999999999,4.122356525874973
11.92,4.131749249144396
11.96,4.137746956332003
11.999999999999998,4.140340788544659
12.04,4.139526925563327
12.08,4.135306579975812
12.12,4.127686000407831
12.16,4.116676483909156
12.200000000000001,4.102294397758303
12.239999999999998,4.084561211161786
12.28,4.063503537546672
12.32,4.039153188383372
12.36,4.011547239734028
12.4,3.9807281130068515
12.44,3.946743671714083
12.479999999999999,3.9096473363887005
12.52,3.8694982202197976
12.559999999999999,3.8263612884282665
12.6,3.7803075449325627
12.64,3.731414250460016
12.68,3.679765176954217
12.719999999999999,3.6254509039257963
12.76,3.5685691633053214
12.799999999999999,3.5092252403942314
12.84,3.447532439682307
12.88,3.383612625611666
12.92,3.3175968498127753
12.959999999999999,3.24962607789611
12.999999999999998,3.1798520305089224
13.04,3.1084381549747
13.08,3.0355607452804723
13.12,2.9614102292321784
13.16,2.8861926419000112
13.2,2.8101313034783773
13.239999999999998,2.7334687165815645
13.28,2.656468691623639
13.32,2.5794186976536535
13.36,2.502632417605056
13.4,2.426452458447423
13.44,2.3512531245662003
13.479999999999999,2.2774431026930566
13.52,2.205467824793255
13.559999999999999,2.1358111687847843
13.6,2.0689960268507903
13.64,2.0055831259538537
13.68,1.946167346178704
13.719999999999999,1.8913706891917792
13.76,1.841831062423387
13.799999999999999,1.7981862428837485
13.84,1.761052844822086
13.88,1.7310008754030972
13.919999999999998,1.7085254680600253
13.959999999999999,1.6940184443377175
14.0,1.6877431515772898
14.04,1.6898161952576034
14.08,1.7001989965271653
14.120000000000001,1.7187006103144786
14.16,1.744991319118001
14.2,1.7786247429704571
14.239999999999998,1.8190650821037928
14.28,1.8657158604999156
14.32,1.9179470610355198
14.36,1.9751185162278921
14.399999999999999,2.0365984850515386
14.44,2.1017772447722547
14.479999999999999,2.170076138057013
14.52,2.2409528378982495
14.56,2.313903689239683
14.6,2.388463937761903
14.64,2.4642065340963177
14.68,2.5407400560381244
14.719999999999999,2.617706151906356
14.76,2.6947767892774865
14.799999999999999,2.77165149915644
14.84,2.848054735051387
14.879999999999999,2.923733415786453
14.919999999999998,2.9984546859995382
14.959999999999999,3.0720039051941517
15.0,3.144182861655623
15.04,3.2148081989320985
15.079999999999998,3.2837100379986115
15.120000000000001,3.3507307762825023
15.159999999999998,3.4157240444565633
15.199999999999998,3.4785538026359735
15.24,3.539093558900172
15.28,3.5972256946104215
15.319999999999999,3.652840882624281
15.36,3.705837586108224
15.399999999999999,3.7561216271559323
15.439999999999998,3.803605815800472
15.48,3.8482096312513128
15.52,3.889858948292073
15.559999999999999,3.9284858027486753
15.600000000000001,3.9640281907909385
15.639999999999999,3.996429897575916
15.679999999999998,4.025640351391009
15.72,4.051614500021251
15.76,4.074312706559608
15.799999999999999,4.093700662312332
15.84,4.109749314832327
15.879999999999999,4.122434809451059
15.919999999999998,4.131738442980964
15.96,4.137646628532507
16.0,4.140150870639004
16.04,4.139247750113531
16.080000000000002,4.134938918280944
16.12,4.127231100438711
16.16,4.116136108607932
16.200000000000003,4.1016708638442765
16.24,4.083857428593325
16.279999999999998,4.062723049799131
16.319999999999997,4.038300213714979
16.36,4.01062671362548
16.4,3.9797457319756884
16.439999999999998,3.9457059387218307
16.48,3.908561608076604
16.52,3.8683727562274335
16.56,3.8252053030676447
16.6,3.7791312615071964
16.64,3.7302289585324284
16.68,3.6785832928738955
16.72,3.6242860349297485
16.759999999999998,3.567436175490034
16.799999999999997,3.508140330825166
16.84,3.446513212845771
16.88,3.382678174312368
16.919999999999998,3.3167678404617793
16.96,3.2489248398966395
17.0,3.1793026491010243
17.04,3.108066566405341
17.080000000000002,3.035394832470397
17.12,2.961479915147297
17.16,2.8865299765164596
17.2,2.810770538448664
17.24,2.734446359334514
17.279999999999998,2.657823527514465
17.32,2.581191764767405
17.36,2.5048669137720143
17.4,2.429193553888507
17.44,2.3545476464464965
17.48,2.2813390501209336
17.52,2.2100136653716844
17.56,2.1410548623988497
17.6,2.0749837217474854
17.64,2.012357480424509
17.68,1.9537654515590472
17.72,1.8998216120651676
17.759999999999998,1.851153089799596
17.799999999999997,1.8083840025795368
17.84,1.772114573702339
17.88,1.7428961972561807
17.919999999999998,1.7212040859906446
17.96,1.7074101130457653
18.0,1.7017591518266864
18.04,1.7043522997170493
18.080000000000002,1.7151396476351661
18.12,1.7339238070668355
18.159999999999997,1.7603736020160656
18.2,1.7940457034820543
18.24,1.834410979463697
18.279999999999998,1.8808821421221895
18.32,1.932839785944195
18.36,1.9896548280487463
18.4,2.050706357270391
18.44,2.1153947354881084
18.48,2.1831503652100963
18.52,2.253438840312175
18.560000000000002,2.325763289760066
18.6,2.399664681550874
18.64,2.4747207415154335
18.679999999999996,2.5505440057955626
18.72,2.626779394799287
18.759999999999998,2.7031015839145645
18.799999999999997,2.7792123565738573
18.84,2.854838057569707
18.88,2.929727215633925
18.919999999999998,3.0036483703522
18.96,3.076388115836553
19.0,3.147749359134286
19.04,3.21754978267948
19.080000000000002,3.285620495359496
19.119999999999997,3.351804854642022
19.159999999999997,3.4159574417455687
19.2,3.477943172387572
19.24,3.5376365267707177
19.279999999999998,3.5949208838815645
19.32,3.649687946691294
19.36,3.70183724635356
19.4,3.7512757149230773
19.44,3.797917317436077
19.48,3.8416827353857546
19.52,3.882499094689615
19.560000000000002,3.920299732186647
19.6,3.955023995529484
19.639999999999997,3.9866170720606657
19.68,4.015029842895386
19.72,4.040218758985591
19.759999999999998,4.062145736424365
19.8,4.080778068673584
19.84,4.096088353771825
19.88,4.108054434911208
19.919999999999998,4.116659353068214
19.96,4.121891310641635
20.0,4.123743645295785
20.04,4.122214813435014
20.08,4.117308382950577
20.119999999999997,4.109033035088358
20.159999999999997,4.097402575489442
20.2,4.082435954660065
20.24,4.064157298336806
20.279999999999998,4.042595948431735
20.32,4.017786515474934
20.36,3.989768943723439
20.4,3.958588590381246
20.44,3.924296320680587
20.48,3.8869486209160673
20.52,3.846607731907849
20.560000000000002,3.80334180580504
20.599999999999998,3.757225089633946
20.639999999999997,3.7083381395568438
20.68,3.6567680704437384
20.72,3.602608846081659
20.759999999999998,3.5459616161599445
20.8,3.4869351070825156
20.84,3.425646074669078
20.88,3.362219827911444
20.92,3.296790834130543
20.96,3.2295034170978316
21.0,3.160512560877739
21.04,3.0899848332089817
21.08,3.0180994430041514
21.119999999999997,2.9450494467523507
21.159999999999997,2.8710431178754057
21.2,2.7963054908567364
21.24,2.721080087436598
21.279999999999998,2.645630824239977
21.32,2.5702440883702287
21.36,2.495230947794843
21.4,2.420929434307683
21.44,2.3477067956032087
21.48,2.2759615565577604
21.52,2.2061251557666997
21.56,2.138662831173381
21.599999999999998,2.074073321667257
21.639999999999997,2.0128868402992683
21.68,1.955660680557603
21.72,1.9029717754023
21.759999999999998,1.8554055895135875
21.8,1.8135409467735222
21.84,1.7779308265068614
21.88,1.74907981335143
21.92,1.7274196913453426
21.96,1.71328546863466
22.0,1.706894658498849
22.04,1.708332671064863
22.08,1.717546544754113
22.119999999999997,1.734348037324689
22.16,1.758425600624017
22.2,1.7893633990113484
22.24,1.8266646616312672
22.28,1.8697764466927826
22.32,1.9181132716540152
22.36,1.9710777993564061
22.4,2.0280776035631742
22.44,2.088537765758959
22.48,2.151909575600152
22.519999999999996,2.2176759052815993
22.56,2.2853539421558264
22.599999999999998,2.3544959525435463
22.639999999999997,2.424688667954894
22.68,2.4955517745995572
22.72,2.566735874740152
22.759999999999998,2.6379201883664987
22.8,2.708810181518458
22.84,2.7791352439440167
22.88,2.8486464916607788
22.92,2.9171147364360697
22.96,2.9843286411788252
23.0,3.050093065057633
23.04,3.1142275926293714
23.08,3.1765652356830576
23.119999999999997,3.2369512936078464
23.16,3.295242356967084
23.2,3.3513054389548613
23.24,3.405017220082408
23.28,3.456263392487241
23.32,3.504938091480768
23.36,3.5509434032233544
23.400000000000002,3.594188938662134
23.44,3.634591465042013
23.479999999999997,3.6720745873808447
23.519999999999996,3.706568473277171
23.56,3.7380096152928695
23.599999999999998,3.7663406259279726
23.639999999999997,3.7915100608890864
23.68,3.813472266954652
23.72,3.8321872512694988
23.759999999999998,3.8476205693668137
23.8,3.8597432296265435
23.84,3.8685316122433533
23.88,3.8739674011026284
23.92,3.876037527255336
23.96,3.8747341229496635
23.999999999999996,3.8700544854234495
24.04,3.8620010498933453
24.08,3.8505813713984764
24.119999999999997,3.8358081153739163
24.16,3.8176990570473093
24.2,3.7962770899755656
24.24,3.771570244273496
24.28,3.743611715338345
24.32,3.7124399041501754
24.36,3.6780984705352004
24.400000000000002,3.6406364011267525
24.439999999999998,3.6001080941558548
24.479999999999997,3.5565734636630646
24.52,3.510098066258789
24.56,3.460753254187808
24.599999999999998,3.408616359194819
24.64,3.353770912564998
24.68,3.296306907755037
24.72,3.236321113267755
24.759999999999998,3.173917444895859
24.8,3.1092074082097776
24.84,3.042310624239071
24.88,2.973355453746366
24.92,2.902479738366402
24.959999999999997,2.829831680220807
24.999999999999996,2.755570885440549
25.04,2.6798696013068373
25.08,2.6029141813518724
25.119999999999997,2.524906817496611
25.16,2.446067582664053
25.2,2.366636830435114
25.24,2.2868779987556125
25.28,2.207080860088104
25.32,2.127565247001454
25.36,2.048685254330368
25.4,1.970833868418446
25.439999999999998,1.8944478890492464
25.479999999999997,1.8200128755906964
25.52,1.7480676486873195
25.56,1.6792075978408416
25.599999999999998,1.6140856808099755
25.64,1.5534095805420358
25.68,1.497933094487304
25.72,1.4484396425479504
25.76,1.4057160654924463
25.8,1.3705159663413793
25.84,1.3435139333955772
25.880000000000003,1.325254907382851
25.919999999999998,1.3161059294410442
25.959999999999997,1.3162191916462065
25.999999999999996,1.3255144144654285
26.04,1.343684777931747
26.08,1.3702251296471761
26.119999999999997,1.4044761883050174
26.16,1.4456758671923848
26.2,1.4930092052001542
26.24,1.545650863581692
26.28,1.602797289430449
26.32,1.6636883025854967
26.36,1.7276195208898513
26.4,1.7939477337881256
26.439999999999998,1.862091360044282
26.479999999999997,1.9315278019270827
26.52,2.0017890713560167
26.56,2.0724566473346453
26.599999999999998,2.1431561852904957
26.64,2.2135524486742737
26.68,2.2833446608172494
26.72,2.3522623631893897
26.76,2.420061797766875
26.8,2.486522792229086
26.84,2.551446106769626
26.88,2.614651193159881
26.919999999999998,2.6759743154952513
26.959999999999997,2.7352669846598423
27.0,2.792394663023319
27.04,2.847235701071802
27.08,2.8996804729093384
27.119999999999997,2.949630682496062
27.16,2.996998816949102
27.2,3.0417077271689172
27.24,3.083690319472999
27.28,3.1228893448592
27.32,3.159257275031674
27.36,3.192756256457985
27.4,3.223358135535493
27.439999999999998,3.2510445494733764
27.479999999999997,3.2758070787797053
27.52,3.2976474583093993
27.56,3.3165778446978202
27.599999999999998,3.3326211386879967
27.64,3.3458113613576397
27.68,3.356194083558762
27.72,3.3638269079793
27.76,3.3687800030938
27.8,3.371136687848999
27.839999999999996,3.3709940651753705
27.88,3.3684637012608096
27.919999999999998,3.3636723458862714
27.959999999999997,3.35676268691055
28.0,3.347894129097557
28.04,3.33724358379322
28.08,3.32500625137176
28.12,3.3113963727909943
28.16,3.296647919968949
28.2,3.281015187031077
28.240000000000002,3.2647732358963197
28.28,3.2482181404412835
28.32,3.231666964086632
28.359999999999996,3.2154573968366704
28.4,3.19994697064051
