Frequency (Hz),Amplitude
0.0,6.714309264969689
0.01978021978021978,6.7112575028632575
0.03956043956043956,6.70210591608851
0.05934065934065934,6.686865606411936
0.07912087912087912,6.665555087344438
0.0989010989010989,6.63820030042844
0.11868131868131868,6.604834638927461
0.13846153846153844,6.56549897983672
0.15824175824175823,6.520241725442775
0.17802197802197803,6.4691188560061095
0.1978021978021978,6.412193995536374
0.21758241758241756,6.349538493087659
0.23736263736263735,6.281231522538741
0.2571428571428572,6.207360204459895
0.2769230769230769,6.128019754429008
0.2967032967032967,6.043313663076299
0.31648351648351647,5.953353914247974
0.3362637362637363,5.858261249032622
0.35604395604395606,5.7581654850525625
0.3758241758241758,5.653205902462573
0.3956043956043956,5.54353171061961
0.4153846153846154,5.429302612514446
0.4351648351648351,5.310689487948947
0.45494505494505494,5.187875221304157
0.4747252747252747,5.061055705831422
0.4945054945054945,4.93044106403753
0.5142857142857143,4.796257133335066
0.5340659340659341,4.658747278199615
0.5538461538461538,4.518174605240425
0.5736263736263736,4.374824676591886
0.5934065934065934,4.22900884071365
0.6131868131868132,4.081068328928343
0.6329670329670329,3.9313793015879765
0.6527472527472528,3.7803590699443212
0.6725274725274726,3.6284737677821957
0.6923076923076923,3.4762477974495956
0.7120879120879121,3.3242754202137044
0.7318681318681318,3.1732348843592906
0.7516483516483516,3.023905454267044
0.7714285714285715,2.8771875621554024
0.7912087912087912,2.7341259527018513
0.810989010989011,2.595934972569256
0.8307692307692308,2.464023846894915
0.8505494505494506,2.3400176154564827
0.8703296703296702,2.2257661852248796
0.8901098901098901,2.123329905347134
0.9098901098901099,2.0349263886899025
0.9296703296703297,1.9628228810606143
0.9494505494505494,1.909165856025209
0.9692307692307692,1.8757585022494163
0.989010989010989,1.8638249275037382
1.0087912087912088,1.8738236251750515
1.0285714285714287,1.9053720074569933
1.0483516483516484,1.9573097037258684
1.0681318681318681,2.027877281954748
1.087912087912088,2.1149503555908926
1.1076923076923075,2.2162653185637367
1.1274725274725275,2.3295952691936193
1.1472527472527472,2.4528631697103225
1.1670329670329669,2.5841993499049956
1.1868131868131868,2.7219587787438293
1.2065934065934065,2.8647136078419213
1.2263736263736265,3.0112329563061104
1.2461538461538462,3.160457819903258
1.2659340659340659,3.311475678201366
1.2857142857142858,3.4634971144951057
1.3054945054945055,3.615835386937352
1.3252747252747252,3.7678891279075204
1.3450549450549452,3.919127971462793
1.3648351648351649,4.069080752951441
1.3846153846153846,4.217325887441529
1.4043956043956045,4.363483553823272
1.4241758241758242,4.50720935558487
1.443956043956044,4.6481891797506565
1.4637362637362636,4.78613502384824
1.4835164835164834,4.920781603522031
1.5032967032967033,5.051883589557019
1.523076923076923,5.179213352852439
1.542857142857143,5.3025591200250535
1.5626373626373626,5.421723461704484
1.5824175824175823,5.536522051058237
1.6021978021978023,5.646782642404091
1.621978021978022,5.752344229565979
1.6417582417582417,5.853056351425674
1.6615384615384616,5.948778518334115
1.6813186813186813,6.039379738005792
1.7010989010989013,6.124738123490402
1.720879120879121,6.204740569004475
1.7406593406593405,6.279282481975871
1.7604395604395604,6.348267561732928
1.7802197802197801,6.411607616959177
1.7999999999999998,6.469222415412811
1.8197802197802198,6.521039560540772
1.8395604395604395,6.566994390549555
1.8593406593406594,6.607029896268782
1.879120879120879,6.641096654790525
1.8989010989010988,6.669152776412722
1.9186813186813187,6.691163862879834
1.9384615384615385,6.707102975314286
1.9582417582417584,6.716950610583007
1.978021978021978,6.720694685155162
1.9978021978021978,6.718330525791283
2.0175824175824175,6.709860866667833
2.0373626373626372,6.695295852793832
2.0571428571428574,6.674653049824395
2.076923076923077,6.6479574606273335
2.096703296703297,6.615241549220854
2.1164835164835165,6.576545272980173
2.1362637362637362,6.5319161243182275
2.1560439560439564,6.481409183389122
2.175824175824176,6.4250871837547034
2.195604395604396,6.363020593408112
2.215384615384615,6.295287714079231
2.2351648351648348,6.221974802376038
2.254945054945055,6.14317621706703
2.2747252747252746,6.05899459771407
2.2945054945054943,5.969541080959819
2.314285714285714,5.8749355621075265
2.3340659340659338,5.77530701126333
2.353846153846154,5.6707938553188635
2.3736263736263736,5.5615444395309765
2.3934065934065933,5.447717585529144
2.413186813186813,5.329483266404795
2.4329670329670328,5.207023424309467
2.452747252747253,5.080532961961273
2.4725274725274726,4.950220946950451
2.4923076923076923,4.816312077144579
2.512087912087912,4.679048467320059
2.5318681318681318,4.538691831997904
2.5516483516483515,4.395526158064252
2.5714285714285716,4.24986098393652
2.5912087912087913,4.102035430661927
2.610989010989011,3.952423165165751
2.6307692307692307,3.801438517230898
2.6505494505494505,3.6495440189559396
2.6703296703296706,3.4972596854128777
2.6901098901098903,3.345174400587695
2.70989010989011,3.193959797785337
2.7296703296703297,3.04438699826833
2.7494505494505495,2.8973464410644043
2.769230769230769,2.7538707066097654
2.7890109890109893,2.615159556962711
2.808791208791209,2.4826051684534853
2.8285714285714287,2.3578134559671877
2.8483516483516484,2.2426142843344747
2.8681318681318677,2.139049395743059
2.887912087912088,2.0493231404687378
2.9076923076923076,1.9757002852174936
2.9274725274725273,1.920341677586995
2.947252747252747,1.8850863438691217
2.9670329670329667,1.871216026390505
2.986813186813187,1.879262758342493
3.0065934065934066,1.9089220947998198
3.0263736263736263,1.9591035606894824
3.046153846153846,2.0280997025186376
3.0659340659340657,2.113816406972315
3.085714285714286,2.2140003301069457
3.1054945054945056,2.326419671478645
3.1252747252747253,2.4489828954446717
3.145054945054945,2.579800973919953
3.1648351648351647,2.7172080268979104
3.184615384615385,2.8597559360009432
3.2043956043956046,3.0061952164948487
3.2241758241758243,3.155450366753336
3.243956043956044,3.3065945349127888
3.2637362637362637,3.4588259990721326
3.2835164835164834,3.611447511573623
3.3032967032967036,3.7638487480837184
3.3230769230769233,3.9154916943435554
3.342857142857143,4.065898629593363
3.3626373626373627,4.214642318224032
3.3824175824175824,4.361338036252505
3.4021978021978025,4.505637100983273
3.4219780219780223,4.647221621848439
3.441758241758242,4.785800238716288
3.4615384615384617,4.921104656991607
3.481318681318681,5.0528868253984065
3.501098901098901,5.18091663255737
3.520879120879121,5.304980023025784
3.5406593406593405,5.424877453215021
3.5604395604395602,5.540422623383676
3.58021978021978,5.65144143447987
3.5999999999999996,5.757771128612698
3.61978021978022,5.8592595798974525
3.6395604395604395,5.955764708766789
3.659340659340659,6.0471539979084685
3.679120879120879,6.133304092048499
3.6989010989010986,6.214100467057402
3.718681318681319,6.289437156483699
3.7384615384615385,6.359216525742938
3.758241758241758,6.4233490859163584
3.7780219780219784,6.481753340520816
3.7978021978021976,6.534355659766372
3.8175824175824173,6.581090177769303
3.8373626373626375,6.62189870897818
3.8571428571428568,6.656730680730239
3.876923076923077,6.685543079411199
3.896703296703296,6.708300408164989
3.916483516483517,6.724974654507254
3.936263736263736,6.735545266552825
3.956043956043956,6.7399991368840295
3.9758241758241755,6.7383305933741555
3.9956043956043956,6.730541396547511
4.015384615384615,6.716640743312207
4.035164835164835,6.6966452771516405
4.054945054945055,6.670579105113226
4.0747252747252745,6.638473822195086
4.094505494505494,6.6003685440115545
4.114285714285715,6.556309948924765
4.134065934065934,6.506352331171819
4.153846153846154,6.450557666907086
4.173626373626373,6.388995695529143
4.193406593406594,6.321744019189358
4.213186813186813,6.248888224002315
4.232967032967033,6.170522027222548
4.252747252747253,6.086747455546506
4.2725274725274724,5.997675060781085
4.292307692307692,5.903424180437826
4.312087912087913,5.804123252422728
4.331868131868132,5.6999101949725075
4.351648351648352,5.590932865430612
4.371428571428571,5.477349614483995
4.391208791208792,5.359329956243323
4.410989010989011,5.237055379241685
4.43076923076923,5.11072032929322
4.450549450549451,4.980533402504475
4.4703296703296695,4.846718795956906
4.49010989010989,4.709518075161853
4.50989010989011,4.569192331921142
4.52967032967033,4.426024824410556
4.549450549450549,4.280324213939535
4.569230769230769,4.132428540768269
4.589010989010989,3.982710115315062
4.608791208791209,3.8315815413826266
4.628571428571428,3.6795031339711626
4.648351648351649,3.5269920429652277
4.6681318681318675,3.374633438385793
4.687912087912088,3.2230941380475695
4.707692307692308,3.0731390355130337
4.7274725274725276,2.9256505628907266
4.747252747252747,2.78165110977836
4.767032967032967,2.6423276733664975
4.786813186813187,2.5090568276950416
4.806593406593407,2.3834261184943566
4.826373626373626,2.267245015137901
4.846153846153847,2.162534712097411
4.8659340659340655,2.0714823523610013
4.885714285714286,1.9963441527990873
4.905494505494506,1.9392876211310954
4.9252747252747255,1.9021795791548974
4.945054945054945,1.8863530461505194
4.964835164835165,1.89241095605973
4.984615384615385,1.9201291636941162
5.004395604395604,1.9684935429072519
5.024175824175824,2.035857538453964
5.043956043956045,2.1201664544916072
5.0637362637362635,2.2191848317165093
5.083516483516483,2.330681220013668
5.103296703296703,2.4525523998575136
5.123076923076923,2.582890765694167
5.142857142857143,2.720008894774444
5.162637362637362,2.8624367597830944
5.182417582417583,3.008904107280579
5.2021978021978015,3.158316544810957
5.221978021978022,3.3097304606515148
5.241758241758242,3.4623294803724325
5.2615384615384615,3.6154036470416417
5.281318681318681,3.768331648303903
5.301098901098901,3.920565969603141
5.320879120879121,4.071620656442546
5.340659340659341,4.221061307885972
5.36043956043956,4.3684969311855975
5.380219780219781,4.513573325363253
5.3999999999999995,4.655967709423741
5.41978021978022,4.7953843585244815
5.43956043956044,4.931551054397557
5.4593406593406595,5.06421619310917
5.479120879120879,5.193146423797642
5.498901098901099,5.318124716946034
5.518681318681319,5.4389487808329315
5.538461538461538,5.555429760890921
5.558241758241758,5.667391169537244
5.578021978021979,5.774668004265795
5.5978021978021975,5.877106019934842
5.617582417582418,5.974561127680423
5.637362637362637,6.066898898074718
5.6571428571428575,6.153994150305315
5.676923076923077,6.235730612489986
5.696703296703297,6.312000640932768
5.716483516483517,6.382704988304263
5.736263736263735,6.447752612497461
5.756043956043956,6.507060519353051
5.775824175824176,6.560553633631409
5.795604395604395,6.608164693583161
5.815384615384615,6.6498341652793025
5.835164835164835,6.685510173537079
5.854945054945055,6.715148446847026
5.874725274725275,6.73871227419024
5.894505494505494,6.756172472051686
5.914285714285715,6.767507360298673
5.934065934065933,6.772702745916837
5.953846153846154,6.771751913888274
5.973626373626374,6.764655624767839
5.993406593406593,6.751422118772021
6.013186813186813,6.732067126447325
6.032967032967033,6.706613886239951
6.052747252747253,6.675093169552597
6.072527472527473,6.637543314155502
6.092307692307692,6.594010267125858
6.112087912087913,6.544547638832594
6.131868131868131,6.489216769872282
6.151648351648352,6.428086813311677
6.171428571428572,6.361234835116855
6.191208791208791,6.288745936269611
6.210989010989011,6.210713400810803
6.230769230769231,6.127238874938611
6.2505494505494505,6.038432583362836
6.270329670329671,5.944413590421738
6.29010989010989,5.845310115062445
6.309890109890111,5.741259910743701
6.329670329670329,5.63241072373273
6.349450549450549,5.518920846253981
6.36923076923077,5.400959784654955
6.3890109890109885,5.278709067372097
6.408791208791209,5.152363223246299
6.428571428571428,5.022130967953837
6.4483516483516485,4.888236645361661
6.468131868131868,4.750921981952325
6.487912087912088,4.610448226663277
6.507692307692308,4.467098766221481
6.527472527472527,4.321182328091501
6.547252747252747,4.173036910287395
6.567032967032967,4.023034610208187
6.5868131868131865,3.871587563616452
6.606593406593407,3.719155249165518
6.626373626373626,3.566253460676831
6.6461538461538465,3.413465291792394
6.665934065934065,3.26145450129257
6.685714285714286,3.110981604667643
6.705494505494506,2.962922918619284
6.725274725274725,2.818292485064462
6.745054945054945,2.6782661843973874
6.764835164835165,2.544206217810282
6.7846153846153845,2.417682254675663
6.804395604395605,2.300482710769777
6.824175824175824,2.1946059523657793
6.8439560439560445,2.1022176003455755
6.863736263736263,2.0255588445335504
6.883516483516484,1.9667956785519085
6.903296703296704,1.9278141570989848
6.923076923076923,1.9099916945882198
6.942857142857143,1.913999121990754
6.962637362637362,1.9396947826108022
6.9824175824175825,1.9861479621700981
7.002197802197802,2.0517831027536406
7.021978021978022,2.1345956073963674
7.041758241758242,2.232377114523304
7.061538461538461,2.3429031581865223
7.081318681318681,2.464062686812025
7.101098901098901,2.593930962644837
7.1208791208791204,2.730798665474581
7.140659340659341,2.87317231028469
7.16043956043956,3.019758629105739
7.1802197802197805,3.1694417578916085
7.199999999999999,3.3212586511775424
7.21978021978022,3.4743756642409758
7.23956043956044,3.628067653308923
7.259340659340659,3.7817000216792107
7.279120879120879,3.9347136535412965
7.298901098901099,4.08661245329279
7.318681318681318,4.236953130390136
7.338461538461539,4.385336867417641
7.358241758241758,4.531402541393731
7.3780219780219785,4.67482121325139
7.397802197802197,4.815291646699843
7.417582417582418,4.952536660141464
7.437362637362638,5.08630015206494
7.457142857142857,5.216344671076932
7.476923076923077,5.342449426929101
7.496703296703297,5.464408659287515
7.516483516483516,5.582030297367495
7.536263736263736,5.695134856652951
7.556043956043957,5.803554529370487
7.575824175824176,5.907132433726549
7.595604395604395,6.005721993572374
7.615384615384615,6.099186425484972
7.635164835164835,6.187398314519098
7.654945054945055,6.270239263314855
7.674725274725275,6.347599602011142
7.694505494505494,6.419378148653565
7.7142857142857135,6.4854820116036125
7.734065934065935,6.545826426940411
7.753846153846154,6.600334625062747
7.7736263736263735,6.648937721702541
7.793406593406592,6.691574629392331
7.813186813186814,6.728191986124557
7.832967032967034,6.758744098524772
7.852747252747252,6.783192897358697
7.872527472527472,6.8015079036200445
7.892307692307693,6.813666203819636
7.912087912087912,6.819652433426668
7.931868131868132,6.819458767712545
7.951648351648351,6.813084919524565
7.971428571428572,6.800538143779982
7.991208791208791,6.781833248727802
8.010989010989011,6.756992614284082
8.03076923076923,6.726046218013479
8.05054945054945,6.689031669613902
8.07032967032967,6.645994255070066
8.09010989010989,6.596986991986293
8.10989010989011,6.542070697999122
8.129670329670331,6.481314074620112
8.149450549450549,6.414793809384191
8.169230769230769,6.342594699798136
8.189010989010988,6.264809803320761
8.20879120879121,6.181540618491111
8.22857142857143,6.092897303387927
8.248351648351647,5.998998938900597
8.268131868131867,5.899973845873312
8.287912087912087,5.795959967124046
8.307692307692308,5.687105327727033
8.327472527472528,5.573568589897721
8.347252747252746,5.455519722476195
8.367032967032966,5.333140809553102
8.386813186813187,5.206627028451557
8.406593406593407,5.076187834360049
8.426373626373627,4.942048397767982
8.446153846153845,4.8044513519332925
8.465934065934066,4.663658921454406
8.485714285714286,4.519955520262985
8.505494505494505,4.373650928716481
8.525274725274725,4.225084185681625
8.545054945054945,4.0746283631683475
8.564835164835165,3.922696428385228
8.584615384615384,3.7697484402387187
8.604395604395604,3.6163003714416933
8.624175824175826,3.46293488675174
8.643956043956043,3.3103144284640074
8.663736263736263,3.159196935609742
8.683516483516483,3.010454405878387
8.703296703296704,2.8650942187284727
8.723076923076924,2.724282547194232
8.742857142857142,2.589368111147347
8.762637362637362,2.461902742566112
8.782417582417583,2.343652564696377
8.802197802197803,2.2365901255757734
8.821978021978023,2.142854380173694
8.84175824175824,2.064664085677644
8.86153846153846,2.0041745525735175
8.881318681318682,1.9632815072772376
8.901098901098901,1.9433990049770542
8.920879120879121,1.9452622499429606
8.940659340659339,1.9688143768228665
8.96043956043956,2.013216092741196
8.98021978021978,2.0769746827756177
9.0,2.1581485903924538
9.01978021978022,2.254568126664861
9.03956043956044,2.3640245429195326
9.05934065934066,2.484404430885986
9.079120879120879,2.6137684580325087
9.098901098901099,2.7503856648627116
9.11868131868132,2.892737794964577
9.138461538461538,3.0395062860420112
9.158241758241758,3.189551012969434
9.178021978021977,3.3418865117174255
9.197802197802199,3.4956588878306496
9.217582417582419,3.650124954957089
9.237362637362637,3.804634162469263
9.257142857142856,3.958613336455643
9.276923076923078,4.111554000777519
9.296703296703297,4.263001945405335
9.316483516483517,4.41254869351267
9.336263736263735,4.559824543251686
9.356043956043957,4.704492900615871
9.375824175824176,4.846245663728185
9.395604395604396,4.984799460253525
9.415384615384616,5.119892575975137
9.435164835164835,5.251282443285867
9.454945054945055,5.378743583699819
9.474725274725275,5.502065919120583
9.494505494505495,5.621053383241883
9.514285714285714,5.735522777806484
9.534065934065934,5.845302829132447
9.553846153846154,5.950233408856747
9.573626373626373,6.050164889677315
9.593406593406593,6.144957612345702
9.613186813186815,6.234481444552825
9.632967032967032,6.3186154158832295
9.652747252747252,6.3972474158644
9.672527472527472,6.470273944446792
9.692307692307693,6.537599906127495
9.712087912087913,6.599138440463178
9.731868131868131,6.654810782975052
9.75164835164835,6.704546151485054
9.771428571428572,6.748281653782321
9.791208791208792,6.785962213236817
9.810989010989012,6.817540509581454
9.83076923076923,6.8429769325974625
9.850549450549451,6.862239546879507
9.87032967032967,6.875304066241375
9.89010989010989,6.882153836664289
9.90989010989011,6.882779826997419
9.92967032967033,6.877180626904943
9.94945054945055,6.8653624518233745
9.96923076923077,6.84733915495582
9.989010989010989,6.8231322465929365
10.008791208791209,6.792770921322234
10.028571428571428,6.756292093975203
10.048351648351648,6.713740445474849
10.068131868131868,6.665168480093537
10.08791208791209,6.610636596024668
10.107692307692307,6.550213171623673
10.127472527472527,6.4839746702009995
10.147252747252747,6.41200576687002
10.167032967032966,6.334399501690442
10.186813186813188,6.251257464231022
10.206593406593406,6.162690015740091
10.226373626373626,6.068816556403259
10.246153846153845,5.969765846740343
10.265934065934067,5.8656763941185455
10.285714285714286,5.756696917724033
10.305494505494504,5.6429869082514745
10.325274725274724,5.524717302180354
10.345054945054946,5.402071294985788
10.364835164835165,5.275245323202145
10.384615384615385,5.144450252198443
10.404395604395603,5.0099128151807895
10.424175824175824,4.871877359732382
10.443956043956044,4.73060797164521
10.463736263736264,4.5863910624819795
10.483516483516484,4.439538527886086
10.503296703296703,4.290391608781806
10.523076923076923,4.139325617777541
10.542857142857143,3.9867557283617585
10.562637362637362,3.833144063923805
10.582417582417584,3.6790083642818856
10.602197802197802,3.524932542481968
10.621978021978022,3.3715794604892846
10.641758241758241,3.2197062234848604
10.661538461538463,3.0701821736663644
10.681318681318682,2.924009480235697
10.7010989010989,2.782345654392714
10.72087912087912,2.646526298272328
10.740659340659342,2.5180847222317557
10.760439560439561,2.3987625772995904
10.780219780219781,2.2905024404211125
10.799999999999999,2.1954100937789516
