Time (s),Filtered Signal
0.0,-0.013869696848395553
0.03337000366703337,0.12294259521597829
0.06674000733406674,0.27169037990460804
0.1001100110011001,0.4310625143013453
0.13348001466813347,0.5813350238171098
0.16685001833516683,0.6908701978699794
0.2002200220022002,0.7302744546363343
0.2335900256692336,0.6859342287461028
0.26696002933626695,0.5653936158265567
0.3003300330033003,0.3923154429918255
0.33370003667033366,0.1950634669731348
0.36707004033736707,-0.0037306760571898657
0.4004400440044004,-0.1907764976032671
0.4338100476714338,-0.3581445912150973
0.4671800513384672,-0.49610243530318177
0.5005500550055005,-0.5891290161304789
0.5339200586725339,-0.6190958152524336
0.5672900623395672,-0.5745301357101258
0.6006600660066006,-0.46037799920027506
0.634030069673634,-0.30160691164401293
0.6674000733406673,-0.13705690039841184
0.7007700770077008,-0.005400969123864013
0.7341400806747341,0.0702170785034316
0.7675100843417675,0.09102903948363454
0.8008800880088008,0.08010796825267988
0.8342500916758342,0.06933414203041528
0.8676200953428675,0.08226143516277645
0.9009900990099009,0.12160566478183459
0.9343601026769344,0.16789909955351226
0.9677301063439677,0.1903103852417831
1.001100110011001,0.16459082040058004
1.0344701136780343,0.08950582574106629
1.0678401173450678,-0.006543147543242809
1.1012101210121013,-0.07300964754613157
1.1345801246791345,-0.05709768242753796
1.167950128346168,0.07140960073770773
1.2013201320132012,0.3010167758650111
1.2346901356802347,0.5745270493587603
1.268060139347268,0.8039802149490486
1.3014301430143014,0.9002024921214657
1.3348001466813346,0.8058078211883994
1.368170150348368,0.5183847158240537
1.4015401540154016,0.09447362136698263
1.4349101576824348,-0.36706572589173053
1.4682801613494683,-0.755498070911723
1.5016501650165015,-0.9810263587959374
1.535020168683535,-0.9990645961823286
1.5683901723505682,-0.8196435340696074
1.6017601760176017,-0.5014242506852578
1.6351301796846351,-0.13411129415798786
1.6685001833516684,0.18519949522049456
1.7018701870187019,0.3763222898452773
1.735240190685735,0.39608465860603836
1.7686101943527686,0.24971215904616936
1.8019801980198018,-0.010336540542627396
1.8353502016868353,-0.29963685906679366
1.8687202053538687,-0.5283748250808901
1.902090209020902,-0.631259986733347
1.9354602126879354,-0.5895228766732022
1.9688302163549687,-0.43512039372690614
2.002200220022002,-0.23405127395384176
2.0355702236890356,-0.055380483435043135
2.0689402273560686,0.059791800131908206
2.102310231023102,0.11433301752300744
2.1356802346901356,0.14821017813249654
2.169050238357169,0.21275117212610517
2.2024202420242025,0.3399381378319348
2.2357902456912355,0.5229296275097814
2.269160249358269,0.7174522152987591
2.3025302530253025,0.8622350048768203
2.335900256692336,0.9068860058975969
2.369270260359369,0.832769628037308
2.4026402640264024,0.6575018662456492
2.436010267693436,0.42314519237950493
2.4693802713604693,0.17647392173758067
2.502750275027503,-0.04760584208092017
2.536120278694536,-0.2321246027209976
2.5694902823615693,-0.3735297999927777
2.6028602860286028,-0.4726490191780376
2.636230289695636,-0.5286699504883947
2.6696002933626692,-0.5401157786404965
2.7029702970297027,-0.5110258481795614
2.736340300696736,-0.4564716398766755
2.7697103043637696,-0.4016553175251186
2.803080308030803,-0.3729178256836275
2.836450311697836,-0.38444881648613927
2.8698203153648696,-0.42804809658212917
2.903190319031903,-0.47274511789720414
2.9365603226989365,-0.47646984847107327
2.96993032636597,-0.4055341241814201
3.003300330033003,-0.2528091015701365
3.0366703337000365,-0.04498874370905191
3.07004033736707,0.16607527710756148
3.1034103410341034,0.32526317017541956
3.1367803447011364,0.3995850176496159
3.17015034836817,0.39481741670357123
3.2035203520352034,0.354618902789429
3.236890355702237,0.34141071789382776
3.2702603593692703,0.40697537844492
3.3036303630363033,0.5657756998689341
3.3370003667033368,0.7830731310019705
3.3703703703703702,0.9836255276263863
3.4037403740374037,1.0780938392550192
3.4371103777044367,0.9970665972521501
3.47048038137147,0.7196124862744223
3.5038503850385037,0.2853352645089189
3.537220388705537,-0.21503485158781815
3.5705903923725706,-0.6677028854305886
3.6039603960396036,-0.9728654437618331
3.637330399706637,-1.077486487333133
3.6707004033736705,-0.9915458920123131
3.704070407040704,-0.7812420427934978
3.7374404107077375,-0.5414133121509019
3.7708104143747705,-0.3580670832467978
3.804180418041804,-0.2765483263354026
3.8375504217088374,-0.28886527238643833
3.870920425375871,-0.34521859484691836
3.904290429042904,-0.38345220296658034
3.9376604327099374,-0.36152516240848803
3.971030436376971,-0.2768348218373962
4.004400440044004,-0.1632702203653473
4.037770443711038,-0.06869457510483837
4.071140447378071,-0.025827160202780204
4.104510451045105,-0.032606523864520606
4.137880454712137,-0.05240599685269984
4.171250458379171,-0.03327301023303587
4.204620462046204,0.06488733351873283
4.237990465713238,0.24983182215619207
4.271360469380271,0.4931065192509683
4.304730473047305,0.7429564555809242
4.338100476714338,0.9454861378948023
4.3714704803813715,1.0627146748881782
4.404840484048405,1.0800558222837824
4.438210487715438,1.0030502704567774
4.471580491382471,0.8489653730031623
4.5049504950495045,0.6398872882194977
4.538320498716538,0.40040429319108306
4.571690502383571,0.15808521449378968
4.605060506050605,-0.057620408960821344
4.638430509717638,-0.22099576634715404
4.671800513384672,-0.3189336813557475
4.705170517051705,-0.3580724434659051
4.738540520718738,-0.36470973790446376
4.771910524385771,-0.37542449297548036
4.805280528052805,-0.42162858323037855
4.838650531719838,-0.5151618745899265
4.872020535386872,-0.642108231738825
4.905390539053905,-0.7681591520853672
4.938760542720939,-0.8532353806880638
4.972130546387972,-0.868649118953585
5.005500550055006,-0.8089570016955904
5.038870553722038,-0.693188675109111
5.072240557389072,-0.5550645014495704
5.105610561056105,-0.42691294403395524
5.138980564723139,-0.3249708320965177
5.172350568390172,-0.24313676854816985
5.2057205720572055,-0.15816018287497932
5.239090575724239,-0.04355538494914102
5.272460579391272,0.11488405930051943
5.305830583058306,0.3098397334577206
5.3392005867253385,0.5139753860015643
5.372570590392372,0.6910183838880981
5.405940594059405,0.8104331367566647
5.439310597726439,0.8583295439248373
5.472680601393472,0.8398348164934913
5.506050605060506,0.7729950695919044
5.539420608727539,0.6785557994925544
5.572790612394573,0.5714611200105432
5.606160616061606,0.4581181893669224
5.63953061972864,0.339719640083397
5.672900623395672,0.21843016460819578
5.706270627062706,0.10188352078928531
5.739640630729739,0.0027706831251820873
5.773010634396773,-0.06656513281925187
5.806380638063806,-0.10146458379010706
5.83975064173084,-0.10973362680301445
5.873120645397873,-0.11048779886808387
5.9064906490649065,-0.12677391708224095
5.93986065273194,-0.17514327772762764
5.9732306563989725,-0.25725876785214163
6.006600660066006,-0.3578295318208806
6.0399706637330395,-0.45003945983180715
6.073340667400073,-0.505918388439225
6.106710671067106,-0.5068872737140524
6.14008067473414,-0.4500903109533291
6.173450678401173,-0.3485837475433561
6.206820682068207,-0.22634360277789484
6.24019068573524,-0.11080469336931661
6.273560689402273,-0.025676890484226993
6.306930693069306,0.014337587282918306
6.34030069673634,0.006499674903157613
6.373670700403373,-0.03925338343655573
6.407040704070407,-0.10191267764724372
6.44041070773744,-0.1536161814085079
6.473780711404474,-0.16643958937469863
6.507150715071507,-0.12070677481861854
6.540520718738541,-0.01257468255533401
6.573890722405573,0.14194626644254463
6.607260726072607,0.3088040768068334
6.64063072973964,0.44408346087308154
6.6740007334066735,0.5067624428555667
6.707370737073707,0.47223057920742884
6.7407407407407405,0.3418850088081366
6.774110744407774,0.14496666755013132
6.807480748074807,-0.06870331753612902
6.840850751741841,-0.24310736510585734
6.8742207554088735,-0.3327841878905124
6.907590759075907,-0.31625201067319325
6.94096076274294,-0.20174666745195882
6.974330766409974,-0.023889527040381095
7.007700770077007,0.16694125070180077
7.041070773744041,0.31877476995850385
7.074440777411074,0.391662121526403
7.107810781078108,0.3675109358920973
7.141180784745141,0.2540998983365848
7.174550788412174,0.0823562200993004
7.207920792079207,-0.10274097742160027
7.241290795746241,-0.2555389618011649
7.274660799413274,-0.34344649316525433
7.308030803080308,-0.3562138455519793
7.341400806747341,-0.3070186880591262
7.3747708104143745,-0.2247071623158146
7.408140814081408,-0.14040938375035317
7.4415108177484415,-0.07443923396552579
7.474880821415475,-0.029336977839063926
7.5082508250825075,0.008048629566147708
7.541620828749541,0.05696436235991056
7.5749908324165744,0.13073843390824735
7.608360836083608,0.22830322328867675
7.641730839750641,0.3330150060139016
7.675100843417675,0.41862145652885724
7.708470847084708,0.458826832609149
7.741840850751742,0.4358277311353385
7.775210854418775,0.3447799200994012
7.808580858085808,0.1940751981819868
7.841950861752841,0.00342828874060563
7.875320865419875,-0.19833341007269614
7.908690869086908,-0.37585573225478436
7.942060872753942,-0.4921637399242051
7.975430876420975,-0.5175183683432194
8.008800880088009,-0.44094839524274904
8.042170883755041,-0.2795463164162532
8.075540887422076,-0.0792026299813514
8.108910891089108,0.0968954523531866
8.142280894756142,0.189776840328062
8.175650898423175,0.16802572799144944
8.20902090209021,0.04233904339144996
8.242390905757242,-0.13639490438768553
8.275760909424275,-0.2960520500385828
8.309130913091309,-0.3718757411957529
8.342500916758341,-0.33256279969894104
8.375870920425376,-0.19251260898894643
8.409240924092408,-0.005060553921941802
8.442610927759443,0.16001690478158498
8.475980931426475,0.24473302615673384
8.50935093509351,0.22498698406389253
8.542720938760542,0.11811069369578772
8.576090942427575,-0.025877509196325865
8.60946094609461,-0.14452803311894866
8.642830949761642,-0.18626363258929352
8.676200953428676,-0.1283141546800335
8.709570957095709,0.016254675476060628
8.742940960762743,0.20387657937005677
8.776310964429776,0.3757771041021694
8.80968096809681,0.47800252622234757
8.843050971763843,0.4796586217916955
8.876420975430875,0.38332719636052986
8.90979097909791,0.2239718197669671
8.943160982764942,0.05637887553397845
8.976530986431976,-0.06475587951809003
9.009900990099009,-0.10500770285763533
9.043270993766043,-0.06296103983467403
9.076640997433076,0.029878826797878105
9.11001100110011,0.12257955249457486
9.143381004767143,0.16658822703063708
9.176751008434175,0.13662330580552162
9.21012101210121,0.0410904699842058
9.243491015768242,-0.08322815892941567
9.276861019435277,-0.19000110773484777
9.31023102310231,-0.24644008692780403
9.343601026769344,-0.24874189613716918
9.376971030436376,-0.22166121392244695
9.41034103410341,-0.20251403696160666
9.443711037770443,-0.2186355290281561
9.477081041437476,-0.2710994229409746
9.51045104510451,-0.3338852661465115
9.543821048771543,-0.3686326430800444
9.577191052438577,-0.34603079971447254
9.61056105610561,-0.2612497522702587
9.643931059772644,-0.13478401207043186
9.677301063439677,0.0008777641092115651
9.710671067106711,0.11984570841185621
9.744041070773743,0.21500600698062802
9.777411074440776,0.29661475426555395
9.81078107810781,0.37894749147731693
9.844151081774843,0.46418051481523653
9.877521085441877,0.5343068170957492
9.91089108910891,0.5567674818632649
9.944261092775944,0.5009973095786845
9.977631096442977,0.3565614905124975
10.011001100110011,0.14278312852390287
10.044371103777044,-0.09528145639807394
10.077741107444076,-0.30237394502209347
10.11111111111111,-0.432569487973317
10.144481114778143,-0.4643440145279712
10.177851118445178,-0.40573592582588175
10.21122112211221,-0.2889146908714178
10.244591125779245,-0.15750404124042022
10.277961129446277,-0.05198049715362816
10.311331133113312,0.001757477736752232
10.344701136780344,-0.0025890887433967203
10.378071140447377,-0.05369074117385633
10.411441144114411,-0.1296110138665036
10.444811147781444,-0.20641577019668106
10.478181151448478,-0.26490854233851363
10.51155115511551,-0.2934416872358491
10.544921158782545,-0.2868661557752229
10.578291162449577,-0.2435083939657955
10.611661166116612,-0.16276085429818082
10.645031169783644,-0.04511552762201908
10.678401173450677,0.10535190422496025
10.711771177117711,0.27790638774075577
10.745141180784744,0.4540895411233372
10.778511184451778,0.610300386280396
10.81188118811881,0.7234571752203771
10.845251191785845,0.7771466593034594
10.878621195452878,0.7652150844546157
10.911991199119912,0.6912763742375119
10.945361202786945,0.5651079355739401
10.978731206453979,0.39864182385025115
11.012101210121012,0.20404042270618133
11.045471213788044,-0.005591562533266411
11.078841217455079,-0.21446984853389545
11.112211221122111,-0.40376008181133327
11.145581224789145,-0.5538675658331924
11.178951228456178,-0.6486559143997712
11.212321232123212,-0.679507644663119
11.245691235790245,-0.6474005771290411
11.27906123945728,-0.5626404658769844
11.312431243124312,-0.4432178124572744
11.345801246791344,-0.3128346882799494
11.379171250458379,-0.19853741309005804
11.412541254125411,-0.12678227296305136
11.445911257792446,-0.11697957956103816
11.479281261459478,-0.17341442069124502
11.512651265126513,-0.2788268956778713
11.546021268793545,-0.39402948835487417
11.57939127246058,-0.46647318686858014
11.612761276127612,-0.44686287630205335
11.646131279794645,-0.3084899020950701
11.67950128346168,-0.06126536385306874
11.712871287128712,0.24673265150408308
11.746241290795746,0.5428778844993656
11.779611294462779,0.754956351773868
11.812981298129813,0.8380130815715285
11.846351301796846,0.7916824400359623
11.87972130546388,0.6597504910050271
11.913091309130913,0.5110856095663625
11.946461312797945,0.40959853873603497
11.97983131646498,0.3864335388051363
12.013201320132012,0.4270827263816314
12.046571323799046,0.4794170801045512
12.079941327466079,0.478887382769563
12.113311331133113,0.3791886530859938
12.146681334800146,0.1743657540869761
12.18005133846718,-0.09740414851177373
12.213421342134213,-0.36953043979317995
12.246791345801245,-0.574596834879935
12.28016134946828,-0.6711499491505123
12.313531353135312,-0.6579208317367413
12.346901356802347,-0.5699590312554039
12.38027136046938,-0.4596919383094267
12.413641364136414,-0.37265399270531535
12.447011367803446,-0.3294327630455225
12.48038137147048,-0.32159467953371645
12.513751375137513,-0.3220514457779744
12.547121378804546,-0.30321316573754753
12.58049138247158,-0.2528468552250263
12.613861386138613,-0.17943060286589388
12.647231389805647,-0.104898348423767
12.68060139347268,-0.04972886166333591
12.713971397139714,-0.019468608919190177
12.747341400806746,-0.0006458119438598081
12.78071140447378,0.03169313490835781
12.814081408140813,0.09945927938468409
12.847451411807846,0.2084971167611605
12.88082141547488,0.3442043344936391
12.914191419141913,0.47754921917224114
12.947561422808947,0.5773921516033808
12.98093142647598,0.6222286444842653
13.014301430143014,0.6059470154996034
13.047671433810047,0.5363714329017389
13.081041437477081,0.42931099793625466
13.114411441144114,0.3023031267532694
13.147781444811146,0.17090556619809757
13.18115144847818,0.047715645601523804
13.214521452145213,-0.05769281827904958
13.247891455812248,-0.1397778757838705
13.28126145947928,-0.1991761682811063
13.314631463146315,-0.2441782576094914
13.348001466813347,-0.28900934076192497
13.381371470480381,-0.34778484909599033
13.414741474147414,-0.4259250554707669
13.448111477814447,-0.5134555208172783
13.481481481481481,-0.5849882077212227
13.514851485148514,-0.6084047358702823
13.548221488815548,-0.5594555655301376
13.58159149248258,-0.4353540574525907
13.614961496149615,-0.25974631706928836
13.648331499816647,-0.07517178461764513
13.681701503483682,0.074375486999108
13.715071507150714,0.16250376827428212
13.748441510817747,0.1913890856470644
13.781811514484781,0.18885938133642763
13.815181518151814,0.1930547699621754
13.848551521818848,0.23265288178293603
13.88192152548588,0.3127896803270028
13.915291529152915,0.413445877914595
13.948661532819948,0.500275383009441
13.982031536486982,0.5415343793377898
14.015401540154015,0.5222918394516632
14.048771543821047,0.4494035369605513
14.082141547488082,0.34605524297191403
14.115511551155114,0.2398799807099556
14.148881554822148,0.1510927256980398
14.182251558489181,0.08597187674374548
14.215621562156215,0.03753099117879898
14.248991565823248,-0.008432172869694705
14.282361569490282,-0.06568075214183074
14.315731573157315,-0.14172526990153905
14.349101576824348,-0.23546044650323392
14.382471580491382,-0.3379100905312346
14.415841584158414,-0.43475403030612847
14.449211587825449,-0.5094809837495309
14.482581591492481,-0.5467175681433514
14.515951595159516,-0.5356948192631372
14.549321598826548,-0.4735333372344564
14.582691602493583,-0.36736916191980157
14.616061606160615,-0.2340458953972601
14.649431609827648,-0.0967043732408324
14.682801613494682,0.021047067568081352
14.716171617161715,0.10140244842424438
14.749541620828749,0.1367187342437694
14.782911624495782,0.13047307796398017
14.816281628162816,0.09491949217941605
14.849651631829849,0.04694794131357952
14.883021635496883,0.004053817744377295
14.916391639163916,-0.018434254425341728
14.94976164283095,-0.009048982219798411
14.983131646497982,0.038158998086829946
15.016501650165015,0.12135007130868394
15.04987165383205,0.22881864687076223
15.083241657499082,0.33924932183954054
15.116611661166116,0.4262154846727664
15.149981664833149,0.46661116869321884
15.183351668500183,0.4497179188589727
15.216721672167216,0.38206188936962876
15.25009167583425,0.28468667276801685
15.283461679501283,0.18350200972667563
15.316831683168315,0.09753593494198573
15.35020168683535,0.03141512820884147
15.383571690502382,-0.023926739634894924
15.416941694169417,-0.08307135844155591
15.45031169783645,-0.15542982117716497
15.483681701503484,-0.23811997866976883
15.517051705170516,-0.31605948077024465
15.55042170883755,-0.36873553098217493
15.583791712504583,-0.3797376122083334
15.617161716171616,-0.34428768894450557
15.65053171983865,-0.271638362340413
15.683901723505683,-0.18195061647747587
15.717271727172717,-0.09950324254151412
15.75064173083975,-0.04497458210045204
15.784011734506784,-0.029231868054861814
15.817381738173816,-0.05025887227345962
15.85075174184085,-0.0940547786429259
15.884121745507883,-0.139498011190402
15.917491749174916,-0.16598513035614862
15.95086175284195,-0.16123251234972086
15.984231756508983,-0.12579170949980406
16.017601760176017,-0.07161038936188675
16.05097176384305,-0.014611452775113077
16.084341767510082,0.03535923859737242
16.117711771177117,0.08175561701013863
16.15108177484415,0.141022535528148
16.184451778511182,0.23370881350717443
16.217821782178216,0.3707364113958323
16.25119178584525,0.5418078658043726
16.284561789512285,0.7126375791662466
16.317931793179316,0.8337282447891309
16.35130179684635,0.8577271208364159
16.384671800513384,0.7579643686658496
16.41804180418042,0.5399430457928439
16.45141180784745,0.2407397960606979
16.484781811514484,-0.08319401192722031
16.51815181518152,-0.3742830246157331
16.55152181884855,-0.5904386320592782
16.584891822515583,-0.7139388420844366
16.618261826182618,-0.7506868574578776
16.651631829849652,-0.722338558400996
16.685001833516683,-0.6561016653245869
16.718371837183717,-0.5764870597991947
16.75174184085075,-0.5009212832718016
16.785111844517782,-0.4387267045344361
16.818481848184817,-0.3918722227492574
16.85185185185185,-0.3562219358605453
16.885221855518886,-0.322958786788765
16.918591859185916,-0.2805221462415064
16.95196186285295,-0.21739489836162704
16.985331866519985,-0.12560369124549284
17.01870187018702,-0.004227132631841948
17.05207187385405,0.1382379714054255
17.085441877521085,0.28399940128527573
17.11881188118812,0.4096340339910325
17.15218188485515,0.49324702559711936
17.185551888522184,0.5232203296895772
17.21892189218922,0.5048347588648456
17.252291895856253,0.46065886055332533
