Frequency (Hz),Amplitude
0.0,5.349792368887842
0.01993355481727575,5.347321328271021
0.0398671096345515,5.339911127087442
0.059800664451827246,5.3275705292561755
0.079734219269103,5.310314147794291
0.09966777408637874,5.288162454864396
0.11960132890365449,5.261141796490141
0.13953488372093023,5.2292844126128655
0.159468438538206,5.1926284633892985
0.17940199335548174,5.151218062886562
0.19933554817275748,5.10510332162378
0.21926910299003324,5.054340399750703
0.23920265780730898,4.998991573055994
0.25913621262458475,4.939125314476851
0.27906976744186046,4.8748163943572
0.29900332225913623,4.8061460033991015
0.318936877076412,4.733201903102213
0.3388704318936877,4.656078609529503
0.3588039867109635,4.574877617524343
0.37873754152823924,4.489707674100114
0.39867109634551495,4.40068511171281
0.4186046511627907,4.3079342546172095
0.4385382059800665,4.211587914639537
0.4584717607973422,4.111787996655423
0.47840531561461797,4.008686239078209
0.49833887043189373,3.9024451210478777
0.5182724252491695,3.7932389761638112
0.5382059800664452,3.6812553630444995
0.5581395348837209,3.5666967563899563
0.5780730897009968,3.4497826394166267
0.5980066445182725,3.3307521005908
0.6179401993355482,3.2098670657883877
0.637873754152824,3.0874163328305944
0.6578073089700996,2.9637206203006876
0.6777408637873754,2.8391388978176297
0.6976744186046512,2.7140763305283597
0.717607973421927,2.5889942435657294
0.7375415282392027,2.464422583364074
0.7574750830564785,2.3409754000857594
0.7774086378737541,2.2193698529539
0.7973421926910299,2.1004490588276137
0.8172757475083057,1.9852086029204044
0.8372093023255814,1.8748254418108836
0.8571428571428572,1.7706858612613623
0.877076411960133,1.6744056574913342
0.8970099667774087,1.5878305972886273
0.9169435215946844,1.5129993236942068
0.9368770764119602,1.4520474018030844
0.9568106312292359,1.4070366126524927
0.9767441860465116,1.3797153763190722
0.9966777408637875,1.371254190860435
1.0166112956810631,1.3820357469518207
1.036544850498339,1.4115805898369775
1.0564784053156147,1.4586401717797246
1.0764119601328903,1.521417651643334
1.0963455149501662,1.5978330773610474
1.1162790697674418,1.6857563224380534
1.1362126245847177,1.7831687645104453
1.1561461794019936,1.8882513356030002
1.176079734219269,1.9994161811821682
1.196013289036545,2.115303124345442
1.2159468438538206,2.2347581085651886
1.2358803986710964,2.3568048913281205
1.255813953488372,2.4806163258396783
1.275747508305648,2.605488261618848
1.2956810631229239,2.7308171655327955
1.3156146179401993,2.856081562687866
1.3355481727574752,2.980826943905962
1.3554817275747508,3.1046536301029453
1.3754152823920267,3.227207072984891
1.3953488372093024,3.3481701232606587
1.4152823920265782,3.4672568696329518
1.435215946843854,3.584207724180644
1.4551495016611296,3.698785494137336
1.4750830564784054,3.810772234056589
1.495016611295681,3.919966716137205
1.514950166112957,4.026182391308916
1.5348837209302328,4.129245741071754
1.5548172757475083,4.228994941495187
1.5747508305647842,4.325278777472827
1.5946843853820598,4.417955758329082
1.6146179401993357,4.506893396010016
1.6345514950166113,4.591967615009323
1.6544850498338872,4.6730622693834425
1.6744186046511629,4.7500687470860345
1.6943521594684385,4.822885645698938
1.7142857142857144,4.891418506683997
1.73421926910299,4.955579597704768
1.754152823920266,5.015287734504291
1.7740863787375416,5.070468135380902
1.7940199335548175,5.121052302559075
1.8139534883720931,5.16697792577043
1.8338870431893688,5.20818880419052
1.8538205980066447,5.244634783558592
1.8737541528239203,5.276271705870869
1.893687707641196,5.303061369507092
1.9136212624584719,5.3249714980446194
1.9335548172757475,5.3419757163496975
1.9534883720930232,5.35405353282423
1.9734219269102993,5.3611903269390675
1.993355481727575,5.363377341409942
2.0132890365448506,5.360611678577421
2.0332225913621262,5.352896300744122
2.0531561461794023,5.340240034406165
2.073089700996678,5.322657578498969
2.0930232558139537,5.300169516962614
2.1129568106312293,5.272802336127693
2.132890365448505,5.2405884476328914
2.1528239202657806,5.203566217818475
2.1727574750830567,5.161780004801987
2.1926910299003324,5.115280204744518
2.212624584717608,5.064123309167112
2.2325581395348837,5.008371975592011
2.25249169435216,4.948095114278043
2.2724252491694354,4.883367994414719
2.292358803986711,4.814272373860858
2.312292358803987,4.740896657393455
2.332225913621263,4.663336089512741
2.352159468438538,4.581692989181768
2.3720930232558137,4.49607703553226
2.39202657807309,4.406605615628147
2.4119601328903655,4.31340424795792
2.431893687707641,4.216607098570118
2.4518272425249172,4.116357610862078
2.471760797342193,4.012809275223901
2.4916943521594686,3.906126571344658
2.511627906976744,3.796486124416293
2.5315614617940203,3.684078127253483
2.551495016611296,3.569108094163671
2.5714285714285716,3.4517990301111827
2.5913621262458477,3.3323941213889725
2.611295681063123,3.2111600829160127
2.6312292358803986,3.0883913338497395
2.6511627906976742,2.9644152188501187
2.6710963455149503,2.8395985480028734
2.691029900332226,2.7143557936436635
2.7109634551495017,2.5891593533275814
2.7308970099667778,2.464552354119492
2.7508305647840534,2.341164509497756
2.770764119601329,2.2197314957639613
2.7906976744186047,2.101118093528056
2.810631229235881,1.986344770760511
2.8305647840531565,1.876616189745192
2.850498338870432,1.773347908793667
2.870431893687708,1.6781839061110444
2.8903654485049834,1.5929923955777694
2.910299003322259,1.5198218155551326
2.9302325581395348,1.4607963779459925
2.950166112956811,1.4179377593429674
2.9700996677740865,1.392923128244896
2.990033222591362,1.3868276125493137
3.0099667774086383,1.3999312211502228
3.029900332225914,1.4316652718675953
3.0498338870431896,1.4807211004266432
3.0697674418604657,1.545275563916157
3.089700996677741,1.623250859810133
3.1096345514950166,1.712537274890618
3.129568106312292,1.8111449410940152
3.1495016611295683,1.917284792437274
3.169435215946844,2.0293962517616966
3.1893687707641196,2.1461420609395274
3.2093023255813957,2.266386485524144
3.2292358803986714,2.3891674495900017
3.249169435215947,2.513668500863309
3.2691029900332227,2.6391934107781707
3.289036544850499,2.7651444137108245
3.3089700996677744,2.891004155981097
3.32890365448505,3.016321004351103
3.3488372093023258,3.1406972195007032
3.3687707641196014,3.263779491712117
3.388704318936877,3.385251386390791
3.4086378737541527,3.5048273163830825
3.428571428571429,3.622247727546996
3.4485049833887045,3.7372752459136014
3.46843853820598,3.8496915867244392
3.4883720930232562,3.959295067826178
3.508305647840532,4.065898603525751
3.5282392026578075,4.169328081499853
3.548172757475083,4.269421046094998
3.5681063122923593,4.366025627548492
3.588039867109635,4.458999669295201
3.60797342192691,4.5482100153904845
3.6279069767441863,4.633531927798218
3.647840531561462,4.714848609347964
3.6677740863787376,4.792050812931236
3.6877076411960132,4.865036521271561
3.7076411960132893,4.933710684589163
3.727574750830565,4.997985005859476
3.7475083056478407,5.057777765267522
3.7674418604651168,5.113013676989855
3.787375415282392,5.163623772671185
3.807308970099668,5.209545306966467
3.8272425249169437,5.250721681338312
3.8471760797342194,5.287102382973383
3.867109634551495,5.318642936238443
3.887043189368771,5.345304864561942
3.9069767441860463,5.367055661018519
3.9269102990033224,5.38386876622743
3.9468438538205985,5.395723552463875
3.9667774086378738,5.402605313134829
3.98671096345515,5.404505256997047
4.0066445182724255,5.401420506701583
4.026578073089701,5.393354101443178
4.046511627906977,5.380315003680229
4.0664451827242525,5.362318110077169
4.086378737541528,5.339384267011885
4.106312292358805,5.311540291191982
4.1262458471760795,5.278818996141275
4.146179401993356,5.241259225559558
4.166112956810632,5.19890589483151
4.186046511627907,5.1518100422749615
4.205980066445183,5.10002889208575
4.225913621262459,5.043625931369757
4.245847176079734,4.982671004170036
4.26578073089701,4.917240426019605
4.2857142857142865,4.847417123304958
4.305647840531561,4.773290802646405
4.325581395348838,4.694958156631037
4.345514950166113,4.612523113628447
4.365448504983389,4.526097141147519
4.385382059800665,4.435799614345809
4.40531561461794,4.34175826399669
4.425249169435216,4.244109721604285
4.445182724252492,4.1430001836258015
4.465116279069767,4.038586222166792
4.485049833887043,3.9310357763817687
4.50498338870432,3.8205293675594976
4.524916943521594,3.707261592037509
4.544850498338871,3.591442960357276
4.5647840531561465,3.473302169297084
4.584717607973422,3.3530889166492543
4.604651162790698,3.2310773980634013
4.624584717607974,3.107570662273818
4.644518272425249,2.9829060467464363
4.664451827242526,2.8574619707400695
4.6843853820598005,2.7316664257428354
4.704318936877076,2.6060075690720894
4.724252491694353,2.481046881985854
4.7441860465116275,2.357435370486604
4.764119601328904,2.235933208726223
4.78405315614618,2.117432947337585
4.803986710963455,2.002985752758799
4.823920265780731,1.8938288278168551
4.8438538205980075,1.7914098130606142
4.863787375415282,1.6974002365644663
4.883720930232559,1.613685051340351
4.9036544850498345,1.5423103409009555
4.92358803986711,1.4853701811427842
4.943521594684386,1.4448228175960678
4.963455149501661,1.422251166504104
4.983388704318937,1.4186187985084684
5.003322259136213,1.434098827141938
5.023255813953488,1.468042013203445
5.043189368770764,1.519097345569896
5.063122923588041,1.5854361638703838
5.083056478405315,1.665001319797558
5.102990033222592,1.7557168788604378
5.122923588039868,1.8556294178884503
5.142857142857143,1.9629827357577663
5.162790697674419,2.0762428935607233
5.182724252491695,2.1940926750100482
5.20265780730897,2.315410542012663
5.222591362126246,2.4392438992003256
5.242524916943522,2.5647821822745294
5.262458471760797,2.6913324168284762
5.282392026578074,2.818298214211043
5.3023255813953485,2.945162290749702
5.322259136212625,3.071472193681252
5.342192691029901,3.1968287743698016
5.362126245847176,3.320876936330209
5.382059800664452,3.443298229634946
5.4019933554817285,3.5638049267258944
5.421926910299003,3.6821352793279294
5.44186046511628,3.7980497143423664
5.4617940199335555,3.911327775804663
5.48172757475083,4.021765660200619
5.501661129568107,4.1291742246357135
5.5215946843853825,4.233377372834253
5.541528239202658,4.33421074397484
5.561461794019934,4.431520645061075
5.5813953488372094,4.525163179807417
5.601328903654485,4.615003536637743
5.621262458471762,4.700915405938002
5.641196013289036,4.782780502637389
5.661129568106313,4.860488174872003
5.681063122923589,4.933935083190173
5.700996677740864,5.003024937702586
5.72093023255814,5.0676682829298345
5.740863787375416,5.127782321983133
5.760797342192691,5.183290773230043
5.780730897009967,5.234123753823984
5.800664451827243,5.280217685474127
5.820598006644518,5.321515218648709
5.840531561461795,5.3579651720767565
5.8604651162790695,5.3895224849703265
5.880398671096346,5.416148179855415
5.900332225913622,5.437809334292521
5.920265780730897,5.454479060103854
5.940199335548173,5.466136489014762
5.960132890365449,5.4727667638727695
5.980066445182724,5.4743610348375755
6.0,5.470916460146223
6.0199335548172765,5.462436211256853
6.039867109634551,5.44892948236738
6.059800664451828,5.430411504498398
6.0797342192691035,5.406903564528058
6.099667774086379,5.378433029776951
6.119601328903655,5.345033378969244
6.139534883720931,5.306744240650384
6.159468438538206,5.263611440429502
6.179401993355482,5.215687058746497
6.1993355481727574,5.163029501251932
6.219269102990033,5.105703584346342
6.23920265780731,5.043780638973301
6.259136212624584,4.977338636419614
6.279069767441861,4.906462340674945
6.299003322259137,4.831243492877398
6.318936877076412,4.751781034566521
6.338870431893688,4.668181377938597
6.3588039867109645,4.5805587331235165
6.378737541528239,4.489035504773179
6.398671096345516,4.3937427730880625
6.418604651162791,4.294820877967467
6.438538205980066,4.192420129449481
6.458471760797343,4.086701673267235
6.4784053156146175,3.9778385475192306
6.498338870431894,3.866016975557776
6.51827242524917,3.751437951779426
6.538205980066445,3.6343191917314908
6.558139534883721,3.514897536660759
6.578073089700998,3.3934319263150132
6.598006644518272,3.270207083573828
6.617940199335549,3.1455380914374613
6.6378737541528245,3.019776087840724
6.6578073089701,2.893315356534882
6.677740863787376,2.7666021505207867
6.6976744186046515,2.6401456411822406
6.717607973421927,2.514531425198184
6.737541528239203,2.3904380094277813
6.7574750830564785,2.268656568417933
6.777408637873754,2.150113918106956
6.797342192691031,2.035897887790263
6.8172757475083055,1.9272828257940795
6.837209302325582,1.8257505064173452
6.857142857142858,1.7329979797372574
6.877076411960133,1.6509192234023449
6.897009966777409,1.581543481760394
6.9169435215946855,1.5269138479540614
6.93687707641196,1.488900772229141
6.956810631229236,1.4689703712748639
6.9767441860465125,1.4679600915887254
6.996677740863787,1.485933613875045
7.016611295681064,1.5221703728439804
7.036544850498339,1.5752938324227692
7.056478405315615,1.6434886688620214
7.076411960132891,1.7247348659279964
7.096345514950166,1.8170021589473286
7.116279069767442,1.9183805494180073
7.136212624584719,2.0271495101102857
7.156146179401993,2.1418014764824234
7.17607973421927,2.261036984094614
7.196013289036546,2.3837452084139796
7.21594684385382,2.5089789557541473
7.235880398671097,2.6359292707739908
7.2558139534883725,2.7639021996596904
7.275747508305648,2.892298683807811
7.295681063122924,3.0205977217462894
7.3156146179402,3.1483425417591806
7.335548172757475,3.275129378174838
7.355481727574752,3.400598420398372
7.3754152823920265,3.5244265373486336
7.395348837209303,3.6463214347539368
7.415282392026579,3.766016960827935
7.435215946843854,3.883269329193893
7.45514950166113,3.997854073687781
7.475083056478406,4.1095635874675285
7.495016611295681,4.218205129385009
7.514950166112956,4.323599204910606
7.5348837209302335,4.425578248145522
7.554817275747508,4.523985546615715
7.574750830564784,4.618674362462211
7.5946843853820605,4.709507213017339
7.614617940199336,4.796355281139262
7.634551495016611,4.879097931502796
7.6544850498338874,4.957622313655717
7.674418604651163,5.031823036310399
7.694352159468439,5.101601900257991
7.714285714285715,5.166867679626519
7.73421926910299,5.227535943079224
7.754152823920266,5.283528908063471
7.774086378737542,5.334775322447248
7.794019933554818,5.381210368881403
7.813953488372093,5.422775588045441
7.83388704318937,5.4594188176119145
7.853820598006645,5.491094144326606
7.8737541528239205,5.517761867073042
7.893687707641197,5.539388469188755
7.913621262458472,5.555946598642518
7.9335548172757475,5.567415054978521
7.953488372093024,5.573778782195585
7.9734219269103,5.575028866966569
7.9933554817275745,5.571162541820859
8.013289036544851,5.562183193120205
8.033222591362128,5.54810037385991
8.053156146179402,5.528929821529664
8.073089700996679,5.504693481478437
8.093023255813954,5.475419536450006
8.11295681063123,5.441142443199209
8.132890365448505,5.401902977369509
8.152823920265782,5.357748288120423
8.172757475083056,5.308731964348511
8.192691029900331,5.254914114761593
8.21262458471761,5.196361464557193
8.232558139534884,5.1331474720437145
8.252491694352159,5.065352469248847
8.272425249169435,4.99306383141524
8.292358803986712,4.9163761813265925
8.312292358803987,4.835391635684145
8.332225913621263,4.750220102326586
8.352159468438538,4.660979639031174
8.372093023255815,4.5677968870489964
8.392026578073091,4.470807595539254
8.411960132890366,4.370157256834924
8.43189368770764,4.266001877203527
8.451827242524917,4.158508913721844
8.471760797342194,4.047858415398848
8.491694352159469,3.9342444161791916
8.511627906976745,3.8178766394697607
8.53156146179402,3.6989825890050034
8.551495016611296,3.577810119982903
8.571428571428573,3.454630608346978
8.591362126245848,3.329742865782365
8.611295681063122,3.2034779842066645
8.6312292358804,3.07620533649608
8.651162790697676,2.948340008787153
8.67109634551495,2.820351989992696
8.691029900332227,2.69277748663741
8.710963455149502,2.566232745809639
8.730897009966778,2.44143071747948
8.750830564784053,2.3192007000484955
8.77076411960133,2.2005106716059375
8.790697674418604,2.086491129046754
8.81063122923588,1.9784576833792529
8.830564784053157,1.8779271228706254
8.850498338870432,1.7866180702448295
8.870431893687707,1.706423281325183
8.890365448504983,1.6393379914410204
8.91029900332226,1.5873313802132856
8.930232558139535,1.5521610119502212
8.950166112956811,1.5351544981905387
8.970099667774086,1.5370102818029467
8.990033222591363,1.557681259559368
9.00996677740864,1.596384422396241
9.029900332225914,1.6517326409595816
9.049833887043189,1.7219402067510028
9.069767441860467,1.8050384455597133
9.089700996677742,1.8990532683654542
9.109634551495017,2.0021246523791985
9.129568106312293,2.1125708540114005
9.14950166112957,2.2289111430476094
9.169435215946844,2.3498624060779503
9.189368770764121,2.4743219333406254
9.209302325581396,2.601344640837908
9.22923588039867,2.7301195559414624
9.249169435215949,2.859948026200388
9.269102990033224,2.9902246642810977
9.289036544850498,3.120421243907871
9.308970099667773,3.250073368374746
9.328903654485051,3.378769571577795
9.348837209302326,3.5061424724492007
9.368770764119601,3.6318616234847863
9.388704318936878,3.7556277378438767
9.408637873754152,3.877168029322986
9.428571428571429,3.996232446909333
9.448504983388705,4.112590627202654
9.46843853820598,4.2260294228981365
9.488372093023255,4.336350894074868
9.508305647840533,4.443370672027017
9.528239202657808,4.546916623719534
9.548172757475083,4.646827759508429
9.56810631229236,4.742953338289769
9.588039867109636,4.835152133357684
9.60797342192691,4.923291829468425
9.627906976744187,5.007248527329201
9.647840531561462,5.086906336278844
9.667774086378738,5.16215703955252
9.687707641196015,5.23289981942242
9.70764119601329,5.299041031834096
9.727574750830565,5.360494022034206
9.747508305647841,5.417178974204205
9.767441860465118,5.469022789349819
9.787375415282392,5.515958986705715
9.807308970099669,5.557927624744952
9.827242524916944,5.594875238569762
9.84717607973422,5.626754791032347
9.867109634551497,5.653525635415764
9.887043189368772,5.67515348791357
9.906976744186046,5.691610408497976
9.926910299003321,5.7028747890729425
9.9468438538206,5.708931348080391
9.966777408637874,5.709771130974271
9.986710963455149,5.705391516206349
10.006644518272426,5.695796226584945
10.026578073089702,5.680995346082433
10.046511627906977,5.661005342382767
10.066445182724253,5.635849095684884
10.086378737541528,5.605555934517302
10.106312292358805,5.5701616795819815
10.126245847176081,5.529708696937693
10.146179401993356,5.484245962168075
10.16611295681063,5.433829137564058
10.186046511627907,5.378520664802958
10.205980066445184,5.318389876139925
10.225913621262459,5.253513127765303
10.245847176079735,5.183973959747673
10.26578073089701,5.109863287909775
10.285714285714286,5.03127963411309
10.305647840531563,4.948329402806838
10.325581395348838,4.86112721339329
10.345514950166113,4.769796300053014
10.36544850498339,4.674468993265271
10.385382059800666,4.575287300479029
10.40531561461794,4.472403607405446
10.425249169435217,4.365981526421857
10.445182724252492,4.25619692486604
10.465116279069768,4.143239173889158
10.485049833887045,4.027312668440094
10.50498338870432,3.9086386813759098
10.524916943521594,3.787457630235442
10.544850498338871,3.6640318545558404
10.564784053156147,3.538649025474638
10.584717607973422,3.4116263383675833
10.604651162790697,3.283315673705042
10.624584717607974,3.1541099505805748
10.64451827242525,3.0244509390580223
10.664451827242525,2.8948388356004506
10.684385382059801,2.7658439277456988
10.704318936877076,2.6381206554818766
10.724252491694353,2.5124242732062574
10.74418604651163,2.389630051993241
10.764119601328904,2.2707544159979878
10.784053156146179,2.1569764031682803
10.803986710963457,2.049656163240924
10.823920265780732,1.9503446839220941
10.843853820598007,1.8607756707905723
10.863787375415283,1.7828273150555567
