Time (s),Filtered Signal
0.0,0.04303064816766901
0.033370165745856356,-0.06285467181449048
0.06674033149171271,-0.17324349103102585
0.10011049723756907,-0.29130332008852944
0.13348066298342542,-0.4173156695290566
0.16685082872928178,-0.5464544378538649
0.20022099447513814,-0.6671282245940752
0.2335911602209945,-0.7614036652702969
0.26696132596685085,-0.8085377225894029
0.30033149171270723,-0.7912229866528648
0.33370165745856356,-0.702465399199898
0.3670718232044199,-0.5500717636446106
0.4004419889502763,-0.3562652166528047
0.43381215469613266,-0.15192679521719973
0.467182320441989,0.03253518215481301
0.5005524861878453,0.1759871203645071
0.5339226519337017,0.27141979596855026
0.5672928176795581,0.3250830785794589
0.6006629834254145,0.3508041126303939
0.6340331491712707,0.36246535097848953
0.6674033149171271,0.3681414471493157
0.7007734806629835,0.36827366444530035
0.7341436464088398,0.3581919367759871
0.7675138121546962,0.3332762525068387
0.8008839779005525,0.293904725357454
0.8342541436464089,0.24746319881724105
0.8676243093922653,0.20602018741745998
0.9009944751381216,0.18032152105978907
0.934364640883978,0.1727506727303881
0.9677348066298344,0.17294870837473905
1.0011049723756906,0.15921838299550106
1.0344751381215471,0.10655409653689037
1.0678453038674034,-0.0011315117921444015
1.1012154696132597,-0.15982020682077897
1.1345856353591162,-0.34119446020901656
1.1679558011049724,-0.4991108436700067
1.201325966850829,-0.5856919777975802
1.2346961325966852,-0.5709171364979829
1.2680662983425415,-0.45689988786266617
1.301436464088398,-0.27958531505839007
1.3348066298342542,-0.09609240691746779
1.3681767955801105,0.03721170518125333
1.401546961325967,0.0861972266673402
1.4349171270718233,0.05049865832918022
1.4682872928176796,-0.039478752047621905
1.501657458563536,-0.13761005756330566
1.5350276243093923,-0.20136269206053037
1.5683977900552488,-0.20655994397553495
1.601767955801105,-0.1521756916522555
1.6351381215469614,-0.055246717832736096
1.6685082872928179,0.059516829105630616
1.7018784530386741,0.16950476339719997
1.7352486187845306,0.25938374040837686
1.768618784530387,0.32123128308311333
1.8019889502762432,0.35203545454314145
1.8353591160220997,0.3516524745264518
1.868729281767956,0.32286177183816384
1.9020994475138122,0.2728792111880039
1.9354696132596687,0.21420188033996793
1.968839779005525,0.16287411698850232
2.0022099447513813,0.1339373943828142
2.0355801104972375,0.13582593041509264
2.0689502762430942,0.16652201648837553
2.1023204419889505,0.21371440791859037
2.135690607734807,0.2592839782513803
2.169060773480663,0.28621525235260264
2.2024309392265193,0.28472563332448914
2.235801104972376,0.25475930642086203
2.2691712707182323,0.20386658476564695
2.3025414364640886,0.14190723802295382
2.335911602209945,0.07566614473119652
2.369281767955801,0.006406884073021208
2.402651933701658,-0.06840401324776894
2.436022099447514,-0.15050485999365623
2.4693922651933704,-0.2364808060522444
2.5027624309392267,-0.3166975276537862
2.536132596685083,-0.37865534152373165
2.5695027624309392,-0.4131822359349067
2.602872928176796,-0.4200027308363163
2.636243093922652,-0.4093132020347206
2.6696132596685085,-0.39804895169949495
2.7029834254143648,-0.40238771837740156
2.736353591160221,-0.43010667109364475
2.7697237569060777,-0.4765855108256424
2.803093922651934,-0.5264679809039589
2.8364640883977903,-0.5602049743951616
2.8698342541436466,-0.5623221519172559
2.903204419889503,-0.527462880729752
2.936574585635359,-0.46143099025945516
2.969944751381216,-0.3769940109633309
3.003314917127072,-0.2868239757333315
3.0366850828729284,-0.19733985785234107
3.0700552486187846,-0.10669466351735024
3.103425414364641,-0.007983413355932546
3.1367955801104976,0.10403050913355076
3.170165745856354,0.22645473555742637
3.20353591160221,0.34620233033079273
3.2369060773480665,0.44468872071743143
3.2702762430939227,0.5082834814847392
3.3036464088397794,0.5398553519688295
3.3370165745856357,0.5646590826220137
3.370386740331492,0.6249047515107923
3.4037569060773483,0.7620244386400953
3.4371270718232045,0.9923683586928674
3.4704972375690613,1.2875612519482316
3.5038674033149175,1.5714735265921982
3.537237569060774,1.7399688548822994
3.57060773480663,1.6989517233990676
3.6039779005524863,1.4057139705069372
3.6373480662983426,0.89417158061149
3.6707182320441993,0.2698837465805971
3.7040883977900556,-0.3257541359708247
3.737458563535912,-0.7676042210474574
3.770828729281768,-0.9920673666618544
3.8041988950276244,-1.0154862442759576
3.837569060773481,-0.9187533415272792
3.8709392265193374,-0.8072821943052213
3.9043093922651937,-0.7659847186822014
3.93767955801105,-0.8289401481504766
3.9710497237569062,-0.9742448193354188
4.0044198895027625,-1.1419320397544286
4.037790055248619,-1.2634555013396944
4.071160220994475,-1.2887913262099928
4.104530386740332,-1.2012896079347917
4.1379005524861885,-1.017571581660825
4.171270718232044,-0.7760989040998041
4.204640883977901,-0.5211678113021181
4.238011049723757,-0.28881452511420946
4.271381215469614,-0.09873523192179266
4.30475138121547,0.046631878199286554
4.338121546961326,0.15721017205241766
4.371491712707183,0.24749118530485897
4.404861878453039,0.329214269734745
4.438232044198895,0.4071752745259858
4.471602209944752,0.47919020250912026
4.504972375690608,0.5393633805234292
4.538342541436465,0.5825376824732643
4.5717127071823205,0.6076688192336365
4.605082872928177,0.6187497160750833
4.638453038674034,0.6231898370042023
4.67182320441989,0.6285682106036468
4.7051933701657465,0.6391192012093119
4.738563535911602,0.6532457647386453
4.771933701657459,0.6629879192075434
4.805303867403316,0.6558180023029784
4.8386740331491715,0.6184172874097182
4.872044198895028,0.541324427130436
4.905414364640884,0.422836859336106
4.938784530386741,0.2706420938529471
4.972154696132597,0.10045523332816235
5.005524861878453,-0.06788590378925205
5.03889502762431,-0.21545931221212491
5.072265193370166,-0.32874179863867325
5.105635359116023,-0.4022688387465638
5.1390055248618784,-0.4389679206091314
5.172375690607735,-0.44835124432728746
5.205745856353592,-0.4431825258828578
5.239116022099448,-0.4354658192187715
5.272486187845304,-0.4327503371624339
5.30585635359116,-0.43577608564921916
5.339226519337017,-0.43825970649978
5.372596685082874,-0.4290600665501119
5.4059668508287295,-0.39618804399482216
5.439337016574586,-0.33142107927672454
5.472707182320442,-0.23395289969985705
5.506077348066299,-0.11172505296163394
5.5394475138121555,0.020175784773321485
5.572817679558011,0.1436352015551296
5.606187845303868,0.2427584940452801
5.639558011049724,0.30836491842784003
5.672928176795581,0.34006316793676056
5.706298342541437,0.34513758017336
5.739668508287293,0.33471046079421074
5.77303867403315,0.31872677744362055
5.806408839779006,0.30178570805750055
5.839779005524862,0.2815017010809783
5.873149171270718,0.2500270555229524
5.906519337016575,0.19803063221904285
5.939889502762432,0.11938474403411556
5.9732596685082875,0.014549103582178124
6.006629834254144,-0.10871043680386482
6.04,-0.23738813437367395
6.073370165745857,-0.3569922134238635
6.1067403314917135,-0.4552819509554431
6.140110497237569,-0.5245221346583604
6.173480662983426,-0.5616612771615256
6.206850828729282,-0.5668527499911047
6.240220994475139,-0.5414104106790646
6.273591160220995,-0.48637611620579596
6.306961325966851,-0.4024152970239506
6.340331491712708,-0.2909997492860555
6.373701657458564,-0.15613637663059615
6.40707182320442,-0.005588040406656879
6.440441988950277,0.14922717152751164
6.473812154696133,0.29479767521585165
6.50718232044199,0.4179492908245136
6.5405524861878455,0.5081872307495712
6.573922651933702,0.559177191614527
6.607292817679559,0.5691583972193957
6.640662983425415,0.5406279437249468
6.674033149171271,0.47982884715085355
6.707403314917127,0.39634359635422917
6.740773480662984,0.30263634097633346
6.774143646408841,0.21302353287308803
6.8075138121546965,0.14157190696175237
6.840883977900553,0.09892758894800352
6.874254143646409,0.08888584121442539
6.907624309392266,0.10616432717730918
6.9409944751381225,0.13683851263498809
6.974364640883978,0.16201364644464972
7.007734806629835,0.16383686905049225
7.041104972375691,0.13163303104406138
7.074475138121548,0.06557304647944626
7.107845303867403,-0.0237919622578705
7.14121546961326,-0.11994710999075174
7.174585635359117,-0.20676760825687063
7.207955801104973,-0.27396381673660675
7.241325966850829,-0.31935316196390395
7.274696132596685,-0.3473274390032595
7.308066298342542,-0.3646866572079192
7.341436464088399,-0.37610890328168656
7.3748066298342545,-0.38147837572294085
7.408176795580111,-0.3762262901431366
7.441546961325967,-0.3543148298256868
7.474917127071824,-0.3122349116706608
7.5082872928176805,-0.2519538312714986
7.541657458563536,-0.18129276559989743
7.575027624309393,-0.11144444065806124
7.608397790055249,-0.05269455790874175
7.641767955801106,-0.010308142740461167
7.675138121546962,0.017412537528531464
7.708508287292818,0.037789805229860356
7.741878453038675,0.05958869189235275
7.775248618784531,0.08795169060266103
7.808618784530387,0.1211006483982016
7.841988950276244,0.15078577818895636
7.8753591160221,0.16658617831267628
7.908729281767957,0.1619870116225507
7.9420994475138125,0.13891548815404214
7.975469613259669,0.10797484983671102
8.008839779005525,0.08385065296103966
8.042209944751383,0.07810221163357225
8.075580110497238,0.09319236174549667
8.108950276243094,0.12110600122246785
8.14232044198895,0.14746929841951373
8.175690607734808,0.1590768069487969
8.209060773480664,0.15086545665677734
8.24243093922652,0.1286597431409962
8.275801104972377,0.1062313143495072
8.309171270718233,0.0981250981520303
8.342541436464089,0.11179957814475834
8.375911602209946,0.14294209355172924
8.409281767955802,0.1763115756584213
8.442651933701658,0.1919104887252996
8.476022099447514,0.17385828371239279
8.509392265193371,0.11807030001586528
8.542762430939227,0.03525841566780642
8.576132596685083,-0.05231811646197782
8.60950276243094,-0.11930414839038456
8.642872928176796,-0.1476049702410385
8.676243093922652,-0.13439341402084842
8.709613259668508,-0.09426512927215035
8.742983425414366,-0.05425659769102109
8.776353591160222,-0.04331213525107749
8.809723756906077,-0.0802030826064562
8.843093922651935,-0.16483583469559232
8.87646408839779,-0.27679560034804773
8.909834254143647,-0.3821256878250504
8.943204419889504,-0.4458464977214263
8.97657458563536,-0.44513421012368265
9.009944751381216,-0.37767883023336174
9.043314917127072,-0.26180694603406734
9.07668508287293,-0.12856457956674228
9.110055248618785,-0.009426010071837255
9.143425414364641,0.07497778897646538
9.176795580110499,0.12047951938268896
9.210165745856354,0.13752417480677864
9.24353591160221,0.14349276397676614
9.276906077348068,0.15331087649535435
9.310276243093924,0.1728024197899713
9.34364640883978,0.19748249993299805
9.377016574585635,0.2166520686593388
9.410386740331493,0.22023220388876522
9.443756906077349,0.2048262182378786
9.477127071823205,0.17621082715245942
9.510497237569062,0.14724569752905797
9.543867403314918,0.1321698989665119
9.577237569060774,0.13969094484986277
9.610607734806631,0.16776755837129587
9.643977900552487,0.20244913974927525
9.677348066298343,0.22171936878792747
9.710718232044199,0.20339442762750914
9.744088397790057,0.13436892305735312
9.777458563535912,0.017598015862627065
9.810828729281768,-0.12632525651354579
9.844198895027626,-0.26427596884234567
9.877569060773482,-0.36103063365580107
9.910939226519337,-0.391334604314438
9.944309392265193,-0.3489396607419624
9.97767955801105,-0.24891186077099078
10.011049723756907,-0.12214561006410521
10.044419889502763,-0.0042481232935621905
10.07779005524862,0.07668774289080296
10.111160220994476,0.10856034266167387
10.144530386740332,0.09695885385477167
10.17790055248619,0.06014395098632628
10.211270718232045,0.020175081786984128
10.244640883977901,-0.005719119094967674
10.278011049723757,-0.01018605815942462
10.311381215469615,0.00400139218657219
10.34475138121547,0.027419611079319898
10.378121546961326,0.04882009496190948
10.411491712707184,0.05906955019030385
10.44486187845304,0.053143925309631315
10.478232044198895,0.030417562840153928
10.511602209944753,-0.005894565043775439
10.544972375690609,-0.049542936979473554
10.578342541436465,-0.09234828317662518
10.61171270718232,-0.12595994551595255
10.645082872928178,-0.14421186207895778
10.678453038674034,-0.1452154972658963
10.71182320441989,-0.13190691403318605
10.745193370165747,-0.11030829206247611
10.778563535911603,-0.08611274613169186
10.811933701657459,-0.06147571355382777
10.845303867403315,-0.034109524854080704
10.878674033149172,0.00041860342258626435
10.912044198895028,0.04427871100718216
10.945414364640884,0.09351130495574778
10.978784530386742,0.13740235440785642
11.012154696132598,0.16215356429104288
11.045524861878453,0.15742653881395954
11.078895027624311,0.12246783833544271
11.112265193370167,0.0683882123143991
11.145635359116023,0.014936141157824325
11.179005524861878,-0.01713109207417893
11.212375690607736,-0.01467974059073217
11.245745856353592,0.022172615737295835
11.279116022099448,0.08004705878684379
11.312486187845305,0.13787008097023062
11.345856353591161,0.17543362727185938
11.379226519337017,0.1811674668618851
11.412596685082875,0.15595018456167267
11.44596685082873,0.11172968400811446
11.479337016574586,0.06596447023227267
11.512707182320442,0.03441682508378249
11.5460773480663,0.02512879688258879
11.579447513812156,0.03563588776777706
11.612817679558011,0.054153766758193354
11.646187845303869,0.06413971286872891
11.679558011049725,0.05060200627026176
11.71292817679558,0.0059812161139572596
11.746298342541436,-0.06648925622660454
11.779668508287294,-0.1532359347581714
11.81303867403315,-0.23455300032006376
11.846408839779006,-0.291083296142376
11.879779005524863,-0.3101936192526384
11.91314917127072,-0.28989620424708423
11.946519337016575,-0.23892578029030606
11.979889502762433,-0.17307396847465603
12.013259668508288,-0.10931119878010481
12.046629834254144,-0.06002678418455357
12.08,-0.02957569307718764
12.113370165745858,-0.014297065822771553
12.146740331491714,-0.005691901472740516
12.18011049723757,0.004853416902391282
12.213480662983427,0.021967873733145394
12.246850828729283,0.04456197882870286
12.280220994475139,0.06699781742686954
12.313591160220996,0.08230955955967222
12.346961325966852,0.08572183352234918
12.380331491712708,0.0767388270740551
12.413701657458564,0.058969539338972206
12.447071823204421,0.03809005980702486
12.480441988950277,0.01923138748798279
12.513812154696133,0.005171286290904146
12.54718232044199,-0.00395575387140341
12.580552486187846,-0.009662179755324357
12.613922651933702,-0.013699552979133132
12.64729281767956,-0.017118628821256705
12.680662983425416,-0.02013835043590373
12.714033149171271,-0.0225181340601334
12.747403314917127,-0.023836072108255238
12.780773480662985,-0.023307963428871717
12.81414364640884,-0.01930899171851647
12.847513812154697,-0.00914552172868515
12.880883977900554,0.010435868907819721
12.91425414364641,0.041976297672683995
12.947624309392266,0.08577144321188461
12.980994475138122,0.13881742033775823
13.01436464088398,0.19479325066855072
13.047734806629835,0.2451798196658542
13.081104972375691,0.28115892044893925
13.114475138121549,0.29569195550137123
13.147845303867404,0.2851886926103453
13.18121546961326,0.25035536225716293
13.214585635359118,0.19605248547652462
13.247955801104974,0.1302392689673683
13.28132596685083,0.062302441487619487
13.314696132596685,0.0012061897168116253
13.348066298342543,-0.04611405613295815
13.381436464088399,-0.07586116299527924
13.414806629834255,-0.08795153477407716
13.448176795580112,-0.0861241642577755
13.481546961325968,-0.0775879030394739
13.514917127071824,-0.07208149652764069
13.548287292817681,-0.08020940521538641
13.581657458563537,-0.11112198149811527
13.615027624309393,-0.16994429827017904
13.648397790055249,-0.25561321764820044
13.681767955801106,-0.35979206219361654
13.715138121546962,-0.46729781882756616
13.748508287292818,-0.5581329773317029
13.781878453038676,-0.6108986624981945
13.815248618784532,-0.6071160970229372
13.848618784530387,-0.5357567531256199
13.881988950276245,-0.3970425767105232
13.9153591160221,-0.2043860941384923
13.948729281767957,0.016612290172574793
13.982099447513813,0.23265342616319218
14.01546961325967,0.410140179469669
14.048839779005526,0.5235531743243673
14.082209944751382,0.5620001897365108
14.11558011049724,0.5314556075475493
14.148950276243095,0.4517572036258006
14.182320441988951,0.3494923884356375
14.215690607734807,0.24946758962697294
14.249060773480664,0.1678434325359799
14.28243093922652,0.1092041859464019
14.315801104972376,0.06825951260762288
14.349171270718234,0.03514833431731518
14.38254143646409,0.0019695253713386657
14.415911602209945,-0.032366752698047084
14.449281767955803,-0.06130365673505371
14.482651933701659,-0.07448346037873858
14.516022099447515,-0.06464794530993563
14.54939226519337,-0.034048816589215984
14.582762430939228,0.003563830362160815
14.616132596685084,0.027531161047338926
14.64950276243094,0.020183850346216205
14.682872928176797,-0.022609332385444835
14.716243093922653,-0.08618888536939107
14.749613259668509,-0.1411043219562678
14.782983425414367,-0.15569993075015875
14.816353591160222,-0.11172714517533111
14.849723756906078,-0.01509873435004417
14.883093922651934,0.10425146251241899
14.916464088397792,0.20413772422627058
14.949834254143648,0.24826934646414117
14.983204419889503,0.22212551668555894
15.016574585635361,0.13898094067487546
15.049944751381217,0.03346319491739626
15.083314917127073,-0.053826415371850976
15.116685082872928,-0.09300259086313963
15.150055248618786,-0.07524119634164858
15.183425414364642,-0.012908688730759718
15.216795580110498,0.06903797808920206
15.250165745856355,0.14486735384976787
15.283535911602211,0.1968713922889906
15.316906077348067,0.217562373293391
15.350276243093925,0.2059541158082679
15.38364640883978,0.16197919935870184
15.417016574585636,0.08369248030063192
15.450386740331492,-0.03045694583908833
15.48375690607735,-0.1758025117684667
15.517127071823205,-0.33647328121407705
15.550497237569061,-0.48575706208194314
15.583867403314919,-0.5934946980137644
15.617237569060775,-0.6379321448366927
15.65060773480663,-0.6162207026823151
15.683977900552488,-0.5475146468867057
15.717348066298344,-0.46576777109193296
15.7507182320442,-0.40443952139375583
15.784088397790056,-0.3798215756280266
15.817458563535913,-0.3811732791707782
15.85082872928177,-0.3732850896618499
15.884198895027625,-0.31144403368977625
15.917569060773483,-0.16266586023209653
15.950939226519338,0.07647082296992756
15.984309392265194,0.37404271065437134
16.01767955801105,0.6723641151703782
16.051049723756908,0.9090151317366758
16.084419889502765,1.0398635052835143
16.11779005524862,1.0536780461217028
16.151160220994477,0.9721267488248824
16.18453038674033,0.8361244911375019
16.21790055248619,0.6859195117490293
16.251270718232046,0.5447726178284156
16.2846408839779,0.4135756518496449
16.318011049723758,0.2778366247569019
16.351381215469615,0.12226497092875022
16.38475138121547,-0.05524809996126195
16.418121546961327,-0.2376721458098385
16.451491712707185,-0.39395558329186464
16.48486187845304,-0.49260682297305575
16.518232044198896,-0.5169035356058718
16.551602209944754,-0.474066856545615
16.584972375690608,-0.3936314062462056
16.618342541436466,-0.315446926911257
16.651712707182323,-0.2727594213647418
16.685082872928177,-0.27821606955378225
16.718453038674035,-0.31925821715490976
16.751823204419892,-0.3649040504943605
16.785193370165747,-0.380583407108287
16.818563535911604,-0.3440647827455264
16.851933701657458,-0.25527783487493777
16.885303867403316,-0.13593690803259256
16.918674033149173,-0.01967519997440644
16.952044198895027,0.062417094843940465
16.985414364640885,0.09425487311381116
17.018784530386743,0.07999237342965364
17.052154696132597,0.040394467076156244
17.085524861878454,0.0027303706458287258
17.118895027624312,-0.010841346506245346
17.152265193370166,0.008677167579897749
17.185635359116024,0.05556451600110467
17.21900552486188,0.11409496137581777
