Frequency (Hz),Amplitude
0.0,2.5839193461209113
0.020066889632107024,2.58269455160995
0.04013377926421405,2.5790215480453544
0.060200668896321065,2.5729044756680035
0.0802675585284281,2.5643502360331527
0.10033444816053512,2.553368493861197
0.12040133779264213,2.539971679872538
0.14046822742474915,2.5241749948599117
0.1605351170568562,2.5059964153376537
0.1806020066889632,2.485456701204919
0.20066889632107024,2.462579405972613
0.22073578595317725,2.437390890235336
0.24080267558528426,2.409920339226307
0.2608695652173913,2.380199785481354
0.2809364548494983,2.34826413786565
0.3010033444816054,2.314151218495728
0.3210702341137124,2.2779018094323056
0.34113712374581934,2.2395597114452666
0.3612040133779264,2.199171817683371
0.3812709030100334,2.15678820574878
0.4013377926421405,2.1124622525200993
0.42140468227424743,2.0662507771401097
0.4414715719063545,2.018214218956288
0.4615384615384615,1.9684168589676778
0.4816053511705685,1.9169270956170872
0.5016722408026756,1.8638177887450835
0.5217391304347826,1.809166689423692
0.5418060200668896,1.7530569785324794
0.5618729096989966,1.6955779437633507
0.5819397993311036,1.6368258338430786
0.6020066889632107,1.576904940969865
0.6220735785953176,1.5159289789070143
0.6421404682274248,1.4540228464144145
0.6622073578595318,1.391324895824618
0.6822742474916387,1.3279898673582995
0.7023411371237458,1.2641927047449062
0.7224080267558528,1.2001335409856122
0.7424749163879598,1.136044238629835
0.7625418060200668,1.0721969883262041
0.7826086956521738,1.0089156063516391
0.802675585284281,0.9465902994873975
0.8227424749163879,0.8856967096908386
0.8428093645484949,0.8268198365338367
0.862876254180602,0.770682593676309
0.882943143812709,0.7181765983189597
0.903010033444816,0.670388259660692
0.923076923076923,0.6286053168236434
0.9431438127090299,0.5942785432593952
0.963210702341137,0.5689071489332509
0.983277591973244,0.5538304414406199
1.0033444816053512,0.5499581274540368
1.0234113712374582,0.5575401389404112
1.0434782608695652,0.5760966778536588
1.0635451505016722,0.6045501994032725
1.0836120401337792,0.6414824482494639
1.1036789297658862,0.685392203598668
1.1237458193979932,0.7348736603342559
1.1438127090301002,0.7887031396872283
1.1638795986622072,0.8458595379767293
1.1839464882943145,0.9055092385695865
1.2040133779264215,0.9669773540198223
1.2240802675585283,1.0297171964783776
1.2441471571906353,1.0932831104732958
1.2642140468227423,1.1573081696426892
1.2842809364548495,1.2214866067840457
1.3043478260869565,1.2855602649451714
1.3244147157190636,1.3493082548985702
1.3444816053511706,1.4125390881420075
1.3645484949832773,1.4750846901932713
1.3846153846153846,1.536795831704434
1.4046822742474916,1.597538626678483
1.4247491638795986,1.6571918350053176
1.4448160535117056,1.7156447733917677
1.4648829431438126,1.7727956886953131
1.4849498327759196,1.8285504846484424
1.5050167224080266,1.8828217202574236
1.5250836120401337,1.9355278183170896
1.5451505016722407,1.9865924374068684
1.5652173913043477,2.035943971826174
1.5852842809364547,2.0835151522123057
1.605351170568562,2.1292427258065425
1.625418060200669,2.1730672000339957
1.6454849498327757,2.214932636634762
1.6655518394648827,2.254786486314473
1.6856187290969897,2.292579455982972
1.705685618729097,2.328265402275525
1.725752508361204,2.3618012463169014
1.745819397993311,2.3931469056799966
1.765886287625418,2.422265240272349
1.7859531772575248,2.44912200950299
1.806020066889632,2.4736858385768468
1.826086956521739,2.495928192159883
1.846153846153846,2.515823353979405
1.866220735785953,2.5333484111842814
1.8862876254180598,2.54848324250405
1.9063545150501673,2.5612105094229793
1.926421404682274,2.5715156497327527
1.9464882943143813,2.5793868729529783
1.966555183946488,2.5848151572159264
1.9866220735785953,2.587794247305511
2.0066889632107023,2.5883206536240637
2.026755852842809,2.5863936519365605
2.0468227424749164,2.5820152838128982
2.0668896321070234,2.5751903577580686
2.0869565217391304,2.565926451087812
2.1070234113712374,2.5542339126781224
2.1270903010033444,2.5401258667909783
2.1471571906354514,2.523618218259793
2.1672240802675584,2.5047296594080555
2.1872909698996654,2.483481679177655
2.2073578595317724,2.459898575062558
2.2274247491638794,2.4340074685836575
2.2474916387959865,2.4058383252081845
2.267558528428094,2.3754239798184402
2.2876254180602005,2.342800169079644
2.3076923076923075,2.3080055723572444
2.3277591973244145,2.271081863204417
2.3478260869565215,2.2320737739015217
2.367892976588629,2.191029176105609
2.3879598662207355,2.1479991813928834
2.408026755852843,2.103038266395817
2.4280936454849495,2.0562044284053953
2.4481605351170566,2.0075593788077954
2.468227424749164,1.9571687836558402
2.4882943143812706,1.9051025631804006
2.508361204013378,1.8514352653145596
2.5284280936454846,1.7962465325928267
2.548494983277592,1.739621687451863
2.568561872909699,1.6816524684821847
2.5886287625418056,1.6224379602282535
2.608695652173913,1.5620857726210347
2.6287625418060196,1.5007135443072268
2.648829431438127,1.4384508687179216
2.668896321070234,1.3754417749840027
2.688963210702341,1.3118479407377188
2.709030100334448,1.247852874124887
2.7290969899665547,1.183667382072617
2.749163879598662,1.1195367443466664
2.769230769230769,1.0557501377073901
2.789297658862876,0.9926529898486262
2.809364548494983,0.9306630495457147
2.82943143812709,0.8702909368672523
2.849498327759197,0.8121655590087401
2.869565217391304,0.7570635863123782
2.8896321070234112,0.7059393744911365
2.9096989966555182,0.6599461872042691
2.9297658862876252,0.6204306723259176
2.9498327759197323,0.5888725778048579
2.9698996655518393,0.5667402600029362
2.9899665551839463,0.5552572359318979
3.0100334448160533,0.5551345256259844
3.0301003344481603,0.5663835942536151
3.0501672240802673,0.5883134514359899
3.0702341137123748,0.6197136007544325
3.0903010033444813,0.6591210696283022
3.1103678929765888,0.7050557830680383
3.1304347826086953,0.7561676196648827
3.1505016722408024,0.8112986874187196
3.1705685618729094,0.8694899990318061
3.1906354515050164,0.9299607594756119
3.210702341137124,0.9920785837453506
3.2307692307692304,1.0553299870468298
3.250836120401338,1.1192948722204072
3.270903010033445,1.1836258727918758
3.2909698996655514,1.2480321873322395
3.311036789297659,1.3122671473191927
3.3311036789297654,1.3761187317236543
3.351170568561873,1.439402346087053
3.3712374581939795,1.5019553188496175
3.391304347826087,1.563632692767072
3.411371237458194,1.6243039922337914
3.4314381270903005,1.6838507275291639
3.451505016722408,1.7421644576925959
3.471571906354515,1.7991452789812743
3.491638795986622,1.8547006393703265
3.511705685618729,1.9087444043131987
3.531772575250836,1.96119611729301
3.551839464882943,2.0119804122801006
3.5719063545150496,2.0610265453309227
3.591973244147157,2.1082680201394615
3.612040133779264,2.153642288056012
3.632107023411371,2.1970905074065374
3.652173913043478,2.2385573502354563
3.672240802675585,2.2779908471157935
3.692307692307692,2.3153422626142284
3.712374581939799,2.35056599550632
3.732441471571906,2.3836194990138715
3.752508361204013,2.414463217259941
3.7725752508361197,2.4430605348666576
3.7926421404682276,2.4693777372005186
3.8127090301003346,2.493383979233368
3.832775919732441,2.515051261360033
3.852842809364548,2.5343544108156912
3.872909698996655,2.5512710675824097
3.8929765886287626,2.5657816738771175
3.9130434782608696,2.5778694664815682
3.933110367892976,2.587520471315998
3.953177257525083,2.5947234997783246
3.9732441471571907,2.5994701464742134
3.9933110367892977,2.601754788054346
4.013377926421405,2.601574582956943
4.033444816053511,2.5989294719284866
4.053511705685618,2.593822179267034
4.073578595317726,2.586258214801485
4.093645484949833,2.5762458766901224
4.113712374581939,2.5637962551941027
4.133779264214047,2.5489232376589963
4.153846153846153,2.5316435150223415
4.173913043478261,2.511976590261062
4.193979933110368,2.4899447893016444
4.214046822742475,2.465573275044112
4.234113712374581,2.4388900653015457
4.254180602006689,2.409926055637779
4.274247491638796,2.3787150483040254
4.294314381270903,2.3452937887413876
4.314381270903009,2.3097020114430693
4.334448160535117,2.27198249737435
4.354515050167224,2.232181145651802
4.374581939799331,2.1903470628138337
4.394648829431437,2.1465326738095882
4.414715719063545,2.100793859841162
4.434782608695651,2.0531901294795873
4.454849498327759,2.00378483112475
4.474916387959866,1.9526454170086152
4.494983277591973,1.8998437717059717
4.5150501672240795,1.8454566217287587
4.535117056856188,1.789566047526327
4.555183946488294,1.7322601254874856
4.575250836120401,1.6736337358792057
4.595317725752508,1.6137895837988794
4.615384615384615,1.5528394951736397
4.635451505016722,1.490906069989064
4.655518394648829,1.4281248021311377
4.6755852842809364,1.3646468119391824
4.695652173913043,1.3006423869288237
4.71571906354515,1.2363055918688213
4.735785953177258,1.1718602952178472
4.7558528428093645,1.107568066899429
4.775919732441471,1.0437385286035907
4.795986622073578,0.9807428625540948
4.816053511705686,0.9190312514426981
4.8361204013377925,0.8591548956986256
4.856187290969899,0.8017926450825492
4.8762541806020065,0.7477806363227166
4.896321070234113,0.6981397479351729
4.916387959866221,0.6540891397795267
4.936454849498328,0.6170246931811555
4.956521739130435,0.5884330661241108
4.976588628762541,0.5697176764550934
4.996655518394649,0.5619489730108268
5.016722408026756,0.5656151720969219
5.036789297658863,0.5804914839350315
5.056856187290969,0.6057024084341699
5.076923076923077,0.6399405058892225
5.096989966555184,0.6817281488110268
5.117056856187291,0.7296240436693866
5.137123745819398,0.7823402062800392
5.157190635451505,0.8387838833957222
5.177257525083611,0.898054119674252
5.197324414715719,0.9594177427390417
5.217391304347826,1.0222797419707237
5.237458193979933,1.0861552653457913
5.257525083612039,1.1506458888807005
5.277591973244148,1.2154205742246424
5.297658862876254,1.2802008188233938
5.317725752508361,1.3447492421162144
5.337792642140468,1.4088608675562966
5.357859531772575,1.4723564724898577
5.377926421404682,1.5350775067844458
5.397993311036789,1.5968821965043831
5.418060200668896,1.6576425426809087
5.438127090301003,1.7172419978393023
5.458193979933109,1.7755736578080366
5.478260869565218,1.832538847259421
5.498327759197324,1.888046007783817
5.518394648829431,1.9420098197793323
5.538461538461538,1.9943505061106148
5.558528428093646,2.044993277892761
5.578595317725752,2.093867892022791
5.598662207357859,2.1409082970386635
5.618729096989966,2.186052349139035
5.638795986622073,2.2292415841859845
5.65886287625418,2.2704210345599285
5.678929765886288,2.3095390820773893
5.698996655518394,2.346547339992493
5.719063545150501,2.3814005585104874
5.739130434782608,2.4140565493431416
5.759197324414716,2.444476125702304
5.7792642140468224,2.4726230548141515
5.799331103678929,2.4984640205832154
5.8193979933110365,2.521968594473142
5.839464882943144,2.543109213024604
5.8595317725752505,2.5618611607176374
5.879598662207358,2.5782025571206133
5.8996655518394645,2.592114347461798
5.919732441471571,2.603580295921045
5.9397993311036785,2.6125869810753044
5.959866220735786,2.619123793047761
5.9799331103678925,2.6231829320116815
5.999999999999999,2.624759407789064
6.020066889632107,2.6238510403652793
6.040133779264214,2.6204584612160082
6.060200668896321,2.614585115414505
6.080267558528428,2.606237264558238
6.100334448160535,2.5954239906259535
6.120401337792642,2.582157200951861
6.1404682274247495,2.5664516345854027
6.160535117056856,2.5483248703953527
6.180602006688963,2.5277973373795417
6.200668896321069,2.504892327759408
6.2207357859531776,2.4796360135771702
6.240802675585284,2.4520574676775073
6.260869565217391,2.4221886901529506
6.280936454849498,2.3900646415710245
6.301003344481605,2.3557232845932696
6.321070234113712,2.3192056359553765
6.341137123745819,2.280555831223077
6.361204013377926,2.2398212052934916
6.381270903010033,2.197052392308446
6.40133779264214,2.152303449525299
6.421404682274248,2.105632010807418
6.441471571906354,2.057099476821754
6.461538461538461,2.006771250862449
6.481605351170568,1.9547170315855458
6.501672240802676,1.9010111770153246
6.521739130434782,1.8457331582034096
6.54180602006689,1.7889681262087196
6.561872909698996,1.7308076230565397
6.581939799331103,1.671350476627302
6.60200668896321,1.6107039318360226
6.622073578595318,1.5489850871050095
6.642140468227424,1.486322727508516
6.662207357859531,1.422859676082112
6.682274247491639,1.3587558252335579
6.702341137123746,1.2941920641555176
6.722408026755852,1.2293753891399057
6.742474916387959,1.1645455746360043
6.762541806020066,1.099983893566809
6.782608695652174,1.0360244965686647
6.80267558528428,0.9730691601586148
6.822742474916388,0.9116061133278139
6.842809364548494,0.8522333713295875
6.862876254180601,0.7956860820253211
6.882943143812709,0.742865176998773
6.903010033444816,0.69486018160305
6.9230769230769225,0.6529516286727716
6.94314381270903,0.6185693209339852
6.963210702341137,0.5931782898430942
6.983277591973244,0.5780789077683898
7.0033444816053505,0.5741535576226421
7.023411371237458,0.5816524744470806
7.0434782608695645,0.6001271662775433
7.063545150501672,0.6285495870768397
7.083612040133779,0.6655499494138282
7.103678929765886,0.7096610371614619
7.123745819397993,0.7594930113908056
7.143812709030099,0.8138232230770055
7.1638795986622075,0.8716218930397953
7.183946488294314,0.9320416644270184
7.204013377926421,0.9943920515793266
7.224080267558528,1.0581107996294696
7.2441471571906355,1.1227376779549127
7.264214046822742,1.1878925692563653
7.2842809364548495,1.2532579779163442
7.304347826086956,1.3185654030720035
7.324414715719063,1.3835848518142042
7.34448160535117,1.4481168096862391
7.364548494983278,1.5119860969266528
7.384615384615384,1.5750371582602878
7.404682274247491,1.637130438783461
7.424749163879598,1.698139582974453
7.444816053511706,1.7579492591930745
7.464882943143812,1.8164534614426486
7.48494983277592,1.8735541771112825
7.505016722408026,1.9291603368935082
7.525083612040134,1.9831869835189362
7.545150501672239,2.035554611117188
7.565217391304348,2.0861886383993773
7.585284280936455,2.135018987347462
7.605351170568561,2.18197974551636
7.625418060200669,2.227008894912158
7.645484949832775,2.270048094111827
7.665551839464882,2.3110425031261035
7.685618729096991,2.3499406426941856
7.705685618729096,2.3866942813936856
7.725752508361204,2.4212583452718723
7.74581939799331,2.4535908457412687
7.765886287625418,2.48365282230125
7.785953177257525,2.5114082972971015
7.806020066889631,2.5368242404468777
7.826086956521739,2.559870541283384
7.846153846153847,2.580519987996133
7.866220735785952,2.5987482514325055
7.88628762541806,2.6145338732436416
7.906354515050166,2.627858257346736
7.926421404682274,2.638705664032466
7.946488294314381,2.647063206178256
7.966555183946488,2.6529208471421732
7.986622073578595,2.656271400011599
8.006688963210701,2.6571105279696376
8.02675585284281,2.6554367456232435
8.046822742474916,2.6512514212132525
8.066889632107022,2.644558779699959
8.08695652173913,2.635365906791535
8.107023411371236,2.6236827540578544
8.127090301003344,2.6095221453526753
8.147157190635452,2.592899784854265
8.167224080267557,2.573834267132169
8.187290969899665,2.552347089758768
8.207357859531772,2.528462669113494
8.227424749163879,2.502208360178902
8.247491638795987,2.4736144813090335
8.267558528428093,2.4427143451678757
8.2876254180602,2.409544297300384
8.307692307692307,2.374143764122238
8.327759197324415,2.336555312513846
8.347826086956522,2.2968247236992787
8.367892976588628,2.2550010847100177
8.387959866220736,2.211136901510254
8.408026755852843,2.1652882388428747
8.42809364548495,2.117514893103434
8.448160535117056,2.067880606144892
8.468227424749163,2.0164533299670477
8.488294314381271,1.963305554896432
8.508361204013378,1.9085147173112098
8.528428093645484,1.8521637074747126
8.548494983277592,1.7943415039709067
8.568561872909697,1.7351439690721737
8.588628762541806,1.674674849777944
8.608695652173914,1.6130470431433825
8.628762541806019,1.550384203084712
8.648829431438127,1.4868227907239937
8.668896321070234,1.4225147036343027
8.68896321070234,1.3576306637150772
8.709030100334449,1.292364601931471
8.729096989966555,1.2269393537384692
8.749163879598662,1.161614073013666
8.769230769230768,1.0966938808159254
8.789297658862875,1.032542370979962
8.809364548494983,0.9695976498209513
8.82943143812709,0.9083924809591536
8.849498327759196,0.8495786053926893
8.869565217391303,0.793953971047506
8.889632107023411,0.7424887189205372
8.909698996655518,0.6963404778757242
8.929765886287624,0.6568416473497524
8.949832775919733,0.625433651774019
8.96989966555184,0.6035245420344042
8.989966555183946,0.5922708900399668
9.010033444816054,0.5923365928312266
9.030100334448159,0.6037286156389798
9.050167224080267,0.6257960459369099
9.070234113712376,0.6573928814589456
9.09030100334448,0.6971186836031507
9.110367892976589,0.7435369441367549
9.130434782608695,0.7953181138422841
9.150501672240802,0.8513059894652335
9.17056856187291,0.9105309271190365
9.190635451505017,0.9721948811078138
9.210702341137123,1.0356456254389115
9.23076923076923,1.100349648361339
9.250836120401337,1.165867905192919
9.270903010033445,1.2318357163308742
9.290969899665551,1.2979467530915372
9.311036789297658,1.3639405478067463
9.331103678929765,1.42959285516017
9.351170568561873,1.4947082451770464
9.37123745819398,1.5591144129323145
9.391304347826086,1.6226577979458352
9.411371237458194,1.6852001999017023
9.4314381270903,1.7466161527243087
9.451505016722408,1.8067908774372992
9.471571906354516,1.865618678536195
9.49163879598662,1.9230016818658568
9.511705685618729,1.9788488368471002
9.531772575250837,2.033075124451372
9.551839464882942,2.0856009261942487
9.57190635451505,2.1363515198217504
9.591973244147155,2.185256675197925
9.612040133779264,2.2322503298291925
9.632107023411372,2.277270327969607
9.652173913043477,2.3202582106987055
9.672240802675585,2.3611590470154633
9.692307692307692,2.3999212980426923
9.712374581939798,2.4364967080316555
9.732441471571907,2.4708402171049997
9.752508361204013,2.5029098916584176
9.77257525083612,2.532666869119059
9.792642140468226,2.560075314377495
9.812709030100335,2.5851023857061777
9.832775919732441,2.60771820837686
9.852842809364548,2.6278958545137345
9.872909698996656,2.6456113279842213
9.89297658862876,2.6608435533476853
9.91304347826087,2.6735743680642026
9.933110367892976,2.683788517317966
9.953177257525082,2.6914736509403223
9.97324414715719,2.696620322029653
9.993311036789297,2.69922198696457
10.013377926421404,2.6992750065959803
10.033444816053512,2.6967786484860103
10.053511705685617,2.691735090139729
10.073578595317725,2.6841494232522893
10.093645484949834,2.6740296590710892
10.113712374581938,2.6613867350530636
10.133779264214047,2.6462345230831588
10.153846153846153,2.6285898396149037
10.17391304347826,2.6084724582004366
10.193979933110368,2.5859051249997216
10.214046822742475,2.5609135780013186
10.234113712374581,2.5335265708554684
10.254180602006688,2.503775902422232
10.274247491638796,2.4716964533803636
10.294314381270903,2.4373262315393216
10.31438127090301,2.400706427860111
10.334448160535118,2.3618814856395445
10.354515050167223,2.3208991858705827
10.37458193979933,2.277810752488462
10.394648829431437,2.232670982089762
10.414715719063544,2.1855384038203214
10.434782608695652,2.1364754765386738
10.454849498327757,2.0855488321653266
10.474916387959865,2.0328295764483073
10.494983277591974,1.978393661375073
10.515050167224079,1.9223223473615236
10.535117056856187,1.8647027784472179
10.555183946488295,1.8056287004239544
10.5752508361204,1.7452013606662748
10.595317725752508,1.6835306401499797
10.615384615384615,1.6207364837248988
10.635451505016722,1.556950715461032
10.65551839464883,1.4923193535244477
10.675585284280936,1.42700557572011
10.695652173913043,1.361193535120022
10.71571906354515,1.2950932877131656
10.735785953177256,1.228947172548543
10.755852842809364,1.1630380779985885
10.775919732441471,1.0977001257817618
10.795986622073578,1.033332378168316
10.816053511705684,0.9704161532857234
