Frequency (Hz),Amplitude
0.0,2.7525125832311685
0.019801980198019802,2.752008968709432
0.039603960396039604,2.7504994794638824
0.0594059405940594,2.7479881786661156
0.07920792079207921,2.7444818389602554
0.09900990099009901,2.7399899434392827
0.1188118811881188,2.7345246868887125
0.13861386138613863,2.7281009771707825
0.15841584158415842,2.7207364365808036
0.1782178217821782,2.7124514029621665
0.19801980198019803,2.70326893031621
0.21782178217821782,2.693214788587419
0.2376237623762376,2.6823174622421524
0.25742574257425743,2.6706081471894194
0.27722772277227725,2.6581207455145233
0.297029702970297,2.644891857410013
0.31683168316831684,2.6309607695925967
0.33663366336633666,2.6163694393897603
0.3564356435643564,2.6011624735648597
0.37623762376237624,2.5853871008261446
0.39603960396039606,2.5690931368329673
0.4158415841584158,2.552332940373982
0.43564356435643564,2.535161359249393
0.45544554455445546,2.5176356642452107
0.4752475247524752,2.499815469446938
0.495049504950495,2.4817626370081727
0.5148514851485149,2.4635411643742273
0.5346534653465347,2.445217051869343
0.5544554455445545,2.4268581484998943
0.5742574257425742,2.4085339738162665
0.594059405940594,2.3903155137257506
0.613861386138614,2.3722749882729346
0.6336633663366337,2.3544855896165333
0.6534653465346534,2.3370211887472925
0.6732673267326733,2.319956009924306
0.6930693069306931,2.30336427236629
0.7128712871287128,2.2873197994282175
0.7326732673267327,2.2718955963214293
0.7524752475247525,2.2571633983915147
0.7722772277227723,2.243193193035973
0.7920792079207921,2.2300527194963182
0.8118811881188118,2.2178069519597763
0.8316831683168316,2.2065175726033592
0.8514851485148516,2.1962424423498645
0.8712871287128713,2.1870350781137082
0.891089108910891,2.178944146123717
0.9108910891089109,2.172012981449912
0.9306930693069307,2.166279144071044
0.9504950495049505,2.1617740216465853
0.9702970297029703,2.158522488574775
0.99009900990099,2.156542629917832
1.00990099009901,2.1558455373804573
1.0297029702970297,2.1564351827855854
1.0495049504950495,2.15830837247976
1.0693069306930694,2.161454783913085
1.0891089108910892,2.1658570833888544
1.108910891089109,2.1714911217784647
1.1287128712871286,2.1783262029620123
1.1485148514851484,2.1863254179805707
1.1683168316831685,2.1954460364508885
1.188118811881188,2.2056399457503066
1.2079207920792079,2.2168541278517195
1.227722772277228,2.2290311634740863
1.2475247524752475,2.2421097533841055
1.2673267326732673,2.2560252471922104
1.2871287128712872,2.27071017077027
1.3069306930693068,2.2860947444076842
1.3267326732673268,2.3021073849492333
1.3465346534653466,2.3186751863517534
1.3663366336633662,2.335724374298902
1.3861386138613863,2.353180731672693
1.405940594059406,2.370969992758531
1.4257425742574257,2.389018205028907
1.4455445544554455,2.407252058192869
1.4653465346534653,2.425599180905914
1.4851485148514851,2.443988406108665
1.504950495049505,2.462350006407824
1.5247524752475248,2.480615901240706
1.5445544554455446,2.498719837787342
1.5643564356435644,2.516597547726888
1.5841584158415842,2.5341868819924094
1.6039603960396038,2.5514279256735652
1.6237623762376237,2.5682630951656162
1.6435643564356437,2.5846372195745775
1.6633663366336633,2.600497608275441
1.683168316831683,2.615794106389926
1.7029702970297032,2.630479139810193
1.7227722772277227,2.64450775125163
1.7425742574257426,2.657837628674386
1.7623762376237624,2.6704291272748124
1.782178217821782,2.6822452861146813
1.801980198019802,2.693251840332459
1.8217821782178218,2.703417229764618
1.8415841584158414,2.7127126046992154
1.8613861386138615,2.721111829387608
1.881188118811881,2.728591483852489
1.900990099009901,2.7351308644522305
1.920792079207921,2.740711983591075
1.9405940594059405,2.7453195689016643
1.9603960396039604,2.7489410621702475
1.98019801980198,2.751566618224232
2.0,2.753189103955915
2.01980198019802,2.7538040976148306
2.0396039603960396,2.753409888462312
2.0594059405940595,2.7520074768456504
2.0792079207920793,2.749600574714343
2.099009900990099,2.746195606566436
2.118811881188119,2.741801710778218
2.1386138613861387,2.7364307412346904
2.1584158415841586,2.7300972691398853
2.1782178217821784,2.722818584845485
2.1980198019801978,2.7146146994909595
2.217821782178218,2.7055083461992173
2.237623762376238,2.695524980516172
2.257425742574257,2.6846927797213516
2.2772277227722775,2.6730426405673695
2.297029702970297,2.660608174929008
2.3168316831683167,2.64742570275706
2.336633663366337,2.6335342416363954
2.3564356435643563,2.6189754921434196
2.376237623762376,2.6037938180831257
2.3960396039603964,2.5880362205622687
2.4158415841584158,2.571752304722774
2.4356435643564356,2.5549942378196078
2.455445544554456,2.537816697183289
2.4752475247524752,2.520276806460426
2.495049504950495,2.502434058382163
2.514851485148515,2.484350222174032
2.5346534653465347,2.4660892336000115
2.5544554455445545,2.4477170655352882
2.5742574257425743,2.4293015768982054
2.594059405940594,2.410912337752322
2.6138613861386135,2.3926204284288493
2.633663366336634,2.3744982106311183
2.6534653465346536,2.3566190686825332
2.673267326732673,2.3390571193810765
2.6930693069306932,2.32188688934222
2.712871287128713,2.3051829592580533
2.7326732673267324,2.2890195751823192
2.7524752475247527,2.273470227769931
2.7722772277227725,2.258607201350141
2.792079207920792,2.2445010957797673
2.811881188118812,2.2312203251824183
2.8316831683168315,2.2188305988924
2.8514851485148514,2.2073943911423224
2.8712871287128716,2.1969704071993816
2.891089108910891,2.1876130547021138
2.910891089108911,2.179371929803397
2.9306930693069306,2.1722913283164043
2.9504950495049505,2.166409792321957
2.9702970297029703,2.161759702576482
2.99009900990099,2.158366926525443
3.00990099009901,2.156250530768222
3.0297029702970297,2.1554225654550634
3.0495049504950495,2.155887926371594
3.0693069306930694,2.1576442984548345
3.089108910891089,2.1606821822828324
3.108910891089109,2.1649850027990967
3.128712871287129,2.170529297289897
3.148514851485148,2.1772849775430023
3.1683168316831685,2.1852156592810523
3.1881188118811883,2.1942790504647554
3.2079207920792077,2.204427388956247
3.227722772277228,2.2156079193494027
3.2475247524752473,2.227763398511447
3.267326732673267,2.2408326195132258
3.2871287128712874,2.2547509441070477
3.3069306930693068,2.2694508346801032
3.3267326732673266,2.2848623775976455
3.346534653465347,2.3009137909815034
3.366336633663366,2.3175319111765025
3.386138613861386,2.3346426533779208
3.4059405940594063,2.3521714430750347
3.4257425742574257,2.3700436160676235
3.4455445544554455,2.388184785805384
3.4653465346534653,2.4065211776655904
3.485148514851485,2.4249799305137296
3.504950495049505,2.443489366484588
3.5247524752475248,2.4619792303832044
3.5445544554455446,2.4803809004463733
3.564356435643564,2.4986275724390956
3.5841584158415842,2.5166544192013482
3.603960396039604,2.5343987278236324
3.6237623762376234,2.5518000166296626
3.6435643564356437,2.5688001340950137
3.6633663366336635,2.585343341743429
3.683168316831683,2.6013763829491063
3.702970297029703,2.616848539441826
3.722772277227723,2.6317116771705007
3.7425742574257423,2.64592028303508
3.762376237623762,2.659431493851617
3.7821782178217824,2.6722051187740172
3.801980198019802,2.6842036562612375
3.8217821782178216,2.695392306552096
3.841584158415842,2.70573898049226
3.8613861386138613,2.715214305449989
3.881188118811881,2.7237916289592006
3.9009900990099013,2.7314470206394623
3.9207920792079207,2.7381592728627946
3.9405940594059405,2.7439099005656553
3.96039603960396,2.7486831405408902
3.98019801980198,2.7524659504869144
4.0,2.7552480080407387
4.01980198019802,2.757021709975132
4.03960396039604,2.7577821716982744
4.0594059405940595,2.757527227155718
4.079207920792079,2.7562574291982163
4.099009900990099,2.753976050444151
4.118811881188119,2.750689084631208
4.138613861386139,2.7464052484178008
4.158415841584159,2.74113598355891
4.178217821782178,2.7348954593441626
4.198019801980198,2.727700575144918
4.217821782178218,2.719570962873774
4.237623762376238,2.710528989110629
4.257425742574258,2.7005997565952136
4.2772277227722775,2.689811104725305
4.297029702970297,2.6781936086312563
4.316831683168317,2.665780576321373
4.336633663366336,2.652608043307103
4.356435643564357,2.6387147640222275
4.376237623762377,2.6241421992452976
4.3960396039603955,2.6089344986196052
4.415841584158416,2.593138477240099
4.435643564356436,2.576803585142637
4.455445544554455,2.5599818683885336
4.475247524752476,2.542727920289859
4.4950495049504955,2.5250988211692413
4.514851485148514,2.5071540648983848
4.534653465346535,2.4889554703155654
4.554455445544555,2.470567075491648
4.574257425742574,2.452055012705035
4.594059405940594,2.4334873619080777
4.613861386138614,2.4149339804328886
4.633663366336633,2.396466306706328
4.653465346534653,2.378157135836894
4.673267326732674,2.3600803651160214
4.693069306930693,2.3423107077579544
4.712871287128713,2.3249233736016492
4.732673267326733,2.3079937160267563
4.752475247524752,2.2915968450034874
4.772277227722772,2.275807207006133
4.792079207920793,2.2606981334688165
4.811881188118812,2.246341360536699
4.8316831683168315,2.2328065240422976
4.851485148514852,2.220160634880122
4.871287128712871,2.208467541214299
4.891089108910891,2.1977873851761216
4.910891089108912,2.1881760628208085
4.930693069306931,2.1796846970433106
4.9504950495049505,2.1723591338252355
4.97029702970297,2.166239472529994
4.99009900990099,2.161359640922815
5.00990099009901,2.1577470251273807
5.02970297029703,2.155422163825406
5.0495049504950495,2.154398514674067
5.069306930693069,2.15468229919991
5.089108910891089,2.156272430400399
5.108910891089109,2.15916052503979
5.128712871287129,2.163331000279488
5.148514851485149,2.168761251955232
5.1683168316831685,2.1754219096252427
5.188118811881188,2.1832771615733297
5.207920792079208,2.192285141348317
5.227722772277227,2.2023983662183295
5.247524752475248,2.2135642171500605
5.267326732673268,2.22572544959204
5.2871287128712865,2.2388207244244978
5.306930693069307,2.2527851488908093
5.326732673267327,2.2675508180840396
5.346534653465346,2.2830473485552356
5.366336633663367,2.2992023967625626
5.3861386138613865,2.315942156319365
5.405940594059405,2.333191829258797
5.425742574257426,2.3508760677582146
5.445544554455446,2.3689193839122495
5.465346534653465,2.3872465261800504
5.485148514851486,2.405782822036952
5.504950495049505,2.4244544871260567
5.524752475247524,2.4431889018281847
5.544554455445545,2.461914856655661
5.564356435643565,2.48056276823647
5.584158415841584,2.499064867903837
5.603960396039604,2.5173553650577913
5.623762376237624,2.5353705875348154
5.643564356435643,2.5530491012253558
5.663366336633663,2.5703318111298477
5.683168316831684,2.5871620459563744
5.702970297029703,2.603485628246442
5.7227722772277225,2.6192509318810315
5.742574257425743,2.6344089286731505
5.762376237623762,2.6489132256032413
5.782178217821782,2.6627200941038036
5.801980198019803,2.675788492654076
5.821782178217822,2.6880800838061654
5.841584158415841,2.699559246633683
5.861386138613861,2.710193085472369
5.881188118811881,2.7199514357111236
5.900990099009901,2.7288068672907992
5.920792079207921,2.7367346864765216
5.9405940594059405,2.7437129363876958
5.96039603960396,2.749722396696368
5.98019801980198,2.7547465828395046
6.0,2.7587717450324147
6.01980198019802,2.7617868673188584
6.03960396039604,2.763783666846351
6.0594059405940595,2.7647565935134586
6.079207920792079,2.7647028300967937
6.099009900990099,2.763622292929532
6.118811881188119,2.761517633168827
6.138613861386139,2.758394238656003
6.158415841584159,2.7542602363397513
6.178217821782178,2.7491264951979684
6.198019801980198,2.743006629557511
6.217821782178218,2.735917002671919
6.237623762376237,2.727876730374225
6.257425742574258,2.718907684574565
6.2772277227722775,2.709034496319051
6.297029702970296,2.6982845580669372
6.316831683168317,2.686688024775964
6.336633663366337,2.674277813310202
6.356435643564356,2.6610895996003703
6.376237623762377,2.6471618128918926
6.396039603960396,2.632535626311009
6.415841584158415,2.6172549428635716
6.435643564356436,2.601366375854496
6.455445544554456,2.584919222579186
6.475247524752475,2.567965429991936
6.495049504950495,2.5505595509027854
6.514851485148515,2.532758689095621
6.534653465346534,2.514622431600718
6.554455445544554,2.4962127661989326
6.574257425742575,2.4775939820891386
6.594059405940594,2.458832551523563
6.6138613861386135,2.4399969901168244
6.633663366336634,2.421157693475941
6.653465346534653,2.4023867477935488
6.673267326732673,2.383757712110722
6.693069306930694,2.3653453701042255
6.712871287128713,2.347225449504264
6.732673267326732,2.3294743076174536
6.752475247524753,2.3121685819316635
6.772277227722772,2.295384805425602
6.792079207920792,2.2791989870027405
6.811881188118813,2.263686158415829
6.8316831683168315,2.248919890134898
6.851485148514851,2.2349717798171986
6.871287128712871,2.2219109183285246
6.891089108910891,2.2098033395957
6.910891089108911,2.1987114618796246
6.930693069306931,2.1886935292781824
6.9504950495049505,2.179803063319543
6.97029702970297,2.1720883353096645
6.99009900990099,2.165591870575186
7.00990099009901,2.1603499958283265
7.02970297029703,2.156392440525156
7.0495049504950495,2.153742002268141
7.069306930693069,2.1524142850231303
7.089108910891089,2.1524175172177373
7.108910891089109,2.1537524547296973
7.128712871287128,2.156412371458237
7.148514851485149,2.160383137714255
7.1683168316831685,2.165643384197028
7.188118811881187,2.1721647469741945
7.207920792079208,2.1799121867696587
7.227722772277228,2.1888443740901837
7.247524752475247,2.19891413036041
7.267326732673268,2.2100689143303702
7.287128712871287,2.222251342579751
7.306930693069306,2.235399732950234
7.326732673267327,2.2494486601458736
7.346534653465347,2.2643295134884007
7.366336633663366,2.279971047823586
7.3861386138613865,2.296299919766544
7.405940594059406,2.3132412027691722
7.425742574257425,2.3307188758208377
7.445544554455446,2.3486562818919747
7.465346534653466,2.3669765534511957
7.485148514851485,2.385603003494087
7.504950495049505,2.40445948149282
7.524752475247524,2.4234706944982456
7.544554455445544,2.4425624942983766
7.564356435643565,2.4616621320637995
7.584158415841584,2.4806984823023
7.603960396039604,2.499602238216425
7.623762376237624,2.518306080724082
7.643564356435643,2.5367448234813335
7.663366336633663,2.554855536253725
7.683168316831684,2.572577648933798
7.702970297029703,2.5898530384111553
7.7227722772277225,2.6066261003799056
7.742574257425743,2.622843808027007
7.762376237623762,2.6384557593911384
7.782178217821782,2.6534142150241022
7.801980198019803,2.667674127428423
7.821782178217822,2.681193163591303
7.841584158415841,2.69393172178856
7.861386138613862,2.705852943694461
7.881188118811881,2.7169227227060273
7.900990099009901,2.7271097092735883
7.92079207920792,2.736385313923324
7.9405940594059405,2.7447237085620997
7.96039603960396,2.7521018265694774
7.980198019801979,2.758499362105573
8.0,2.7638987689958623
8.01980198019802,2.76828525949411
8.03960396039604,2.7716468031711545
8.05940594059406,2.77397412613004
8.07920792079208,2.7752607107050737
8.099009900990099,2.7755027957636638
8.118811881188119,2.774699377694097
8.138613861386139,2.7728522121282704
8.158415841584159,2.769965816415976
8.178217821782178,2.7660474728346873
8.198019801980198,2.761107232485497
8.217821782178218,2.755157919791093
8.237623762376238,2.748215137474053
8.257425742574258,2.74029727185274
8.277227722772277,2.731425498246598
8.297029702970297,2.7216237862314148
8.316831683168317,2.7109189044275124
8.336633663366337,2.6993404244387076
8.356435643564357,2.6869207234859895
8.376237623762377,2.6736949851966045
8.396039603960396,2.6597011979155036
8.415841584158416,2.6449801498011682
8.435643564356436,2.6295754198513817
8.455445544554456,2.6135333638756615
8.475247524752476,2.596903094290873
8.495049504950495,2.5797364524646933
8.514851485148515,2.562087972170256
8.534653465346535,2.54401483254607
8.554455445544555,2.52557679878171
8.574257425742575,2.5068361485764092
8.594059405940595,2.487857582250528
8.613861386138613,2.4687081142364846
8.633663366336634,2.4494569435463327
8.653465346534654,2.430175300718781
8.673267326732672,2.410936268703473
8.693069306930694,2.391814575160068
8.712871287128714,2.3728863537515754
8.732673267326732,2.354228872213925
8.752475247524753,2.3359202253054616
8.772277227722773,2.3180389911985406
8.792079207920791,2.3006638504855492
8.811881188118813,2.28387316774442
8.831683168316832,2.2677445365472315
8.85148514851485,2.2523542898951194
8.871287128712872,2.2377769793068922
8.891089108910892,2.224084827147373
8.91089108910891,2.2113471582112108
8.930693069306932,2.1996298180187988
8.950495049504951,2.188994586662298
8.97029702970297,2.1794985982771964
8.990099009900991,2.171193777221263
9.00990099009901,2.164126302729012
9.029702970297029,2.158336114096509
9.04950495049505,2.153856468274878
9.06930693069307,2.1507135610717145
9.089108910891088,2.1489262219697416
9.10891089108911,2.1485056908980624
9.12871287128713,2.1494554831957045
9.148514851485148,2.1517713465864694
9.16831683168317,2.155441311359595
9.188118811881187,2.160445832263663
9.207920792079207,2.1667580180147894
9.227722772277229,2.1743439419338526
9.247524752475247,2.1831630251796565
9.267326732673267,2.193168482428236
9.287128712871288,2.2043078187205225
9.306930693069306,2.216523365583438
9.326732673267326,2.2297528444109087
9.346534653465348,2.2439299454280466
9.366336633663366,2.2589849112884886
9.386138613861386,2.274845115389693
9.405940594059407,2.2914356262462445
9.425742574257425,2.308679750648106
9.445544554455445,2.326499549769096
9.465346534653467,2.3448163238089217
9.485148514851485,2.3635510620940767
9.504950495049505,2.382624856786286
9.524752475247526,2.4019592794240254
9.544554455445544,2.4214767204380814
9.564356435643564,2.4411006925325567
9.584158415841586,2.4607560994123325
9.603960396039604,2.4803694717781486
9.623762376237623,2.49986917281689
9.643564356435645,2.519185575604281
9.663366336633663,2.5382512149291934
9.683168316831683,2.5570009160609795
9.702970297029704,2.5753719029311357
9.722772277227723,2.5933038881028243
9.742574257425742,2.610739146770844
9.762376237623764,2.6276225768810453
9.782178217821782,2.6439017472916158
9.801980198019802,2.6595269357269142
9.821782178217823,2.6744511581031487
9.841584158415841,2.6886301906383
9.861386138613861,2.7020225860002296
9.881188118811881,2.714589684598026
9.900990099009901,2.726295621984089
9.92079207920792,2.7371073332089
9.94059405940594,2.7469945548566455
9.96039603960396,2.755929825387647
9.98019801980198,2.763888484322739
10.0,2.770848670723639
10.01980198019802,2.776791321352467
10.03960396039604,2.7817001688303122
10.05940594059406,2.7855617400597
10.07920792079208,2.788365355126574
10.099009900990099,2.7901031268542833
10.118811881188119,2.790769961142659
10.138613861386139,2.7903635581899775
10.158415841584159,2.7888844146623586
10.178217821782178,2.7863358268437803
10.198019801980198,2.782723894768693
10.217821782178218,2.7780575273081936
10.237623762376238,2.772348448147812
10.257425742574258,2.7656112025601933
10.277227722772277,2.7578631648375804
10.297029702970297,2.7491245462063976
10.316831683168317,2.739418402998155
10.336633663366337,2.728770644796404
10.356435643564357,2.7172100422171197
10.376237623762377,2.7047682339088768
10.396039603960396,2.691479732278291
10.415841584158416,2.6773819273540536
10.435643564356436,2.6625150880989095
10.455445544554454,2.6469223603618524
10.475247524752476,2.6306497605322274
10.495049504950495,2.6137461638129373
10.514851485148514,2.5962632858715726
10.534653465346535,2.5782556564570083
10.554455445544555,2.559780583386085
10.574257425742573,2.540898105113178
10.594059405940595,2.521670929898507
10.613861386138614,2.5021643593942677
10.633663366336632,2.482446194278172
10.653465346534654,2.4625866193911805
10.673267326732674,2.4426580656910497
10.693069306930692,2.4227350462304487
10.712871287128714,2.4028939633232342
10.732673267326733,2.383212884094497
10.752475247524751,2.363771281738861
