Time (s),Filtered Signal
0.0,-0.02861113519404037
0.03337028824833703,0.517492892784672
0.06674057649667406,0.9063804427803185
0.10011086474501109,1.03188094532242
0.13348115299334812,0.8714083544331283
0.16685144124168516,0.48765962025517284
0.20022172949002218,0.0006710235165942259
0.2335920177383592,-0.45736692040222693
0.26696230598669624,-0.786231932199907
0.3003325942350333,-0.9444524740920597
0.3337028824833703,-0.9510356697804296
0.3670731707317073,-0.8652250721704606
0.40044345898004435,-0.7555107230843465
0.4338137472283814,-0.6715144355268652
0.4671840354767184,-0.6289466737706215
0.5005543237250555,-0.6109862519965739
0.5339246119733925,-0.5825273376576936
0.5672949002217295,-0.5094614973403655
0.6006651884700666,-0.37462330663709215
0.6340354767184035,-0.18471818790244907
0.6674057649667406,0.03309003945745893
0.7007760532150776,0.2420999084857131
0.7341463414634146,0.40924607672967245
0.7675166297117517,0.5152728527640679
0.8008869179600887,0.5587179240219297
0.8342572062084257,0.5534229818828587
0.8676274944567628,0.5216282301752031
0.9009977827050998,0.4856670270061969
0.9343680709534368,0.460960716200239
0.9677383592017739,0.45208358058555403
1.001108647450111,0.4526761076388283
1.0344789356984478,0.44903953802299645
1.067849223946785,0.4262414177739784
1.101219512195122,0.3746296544617384
1.134589800443459,0.2942743720742073
1.167960088691796,0.19549389569792655
1.2013303769401331,0.0952082427713575
1.23470066518847,0.010690216423340155
1.268070953436807,-0.046596810936974264
1.3014412416851442,-0.07455728494423784
1.3348115299334813,-0.08023288696456628
1.3681818181818182,-0.07634172566232061
1.4015521064301553,-0.07638315632573398
1.4349223946784924,-0.0902808739985321
1.4682926829268292,-0.12177556335238425
1.5016629711751663,-0.16774486006677744
1.5350332594235034,-0.21902433183924372
1.5684035476718403,-0.2623486661456814
1.6017738359201774,-0.2833482337111949
1.6351441241685145,-0.27052960102698664
1.6685144124168514,-0.2195940107877728
1.7018847006651885,-0.13665775349069637
1.7352549889135256,-0.03861952883894551
1.7686252771618625,0.050430485907139166
1.8019955654101996,0.10631273170185343
1.8353658536585367,0.11312035733292142
1.8687361419068735,0.06948488097487973
1.9021064301552106,-0.010246167062940055
1.9354767184035477,-0.10097526352371271
1.9688470066518848,-0.17628919777180482
2.002217294900222,-0.21849600226266816
2.035587583148559,-0.22491657600380408
2.0689578713968957,-0.20763458108132452
2.102328159645233,-0.18680055074023952
2.13569844789357,-0.18048846175553565
2.1690687361419068,-0.19569709185129366
2.202439024390244,-0.22464127035716133
2.235809312638581,-0.24813311316271933
2.269179600886918,-0.24458536149519589
2.302549889135255,-0.200429241220223
2.335920177383592,-0.11687684990525378
2.369290465631929,-0.009579857815166688
2.4026607538802662,0.09873775859433981
2.436031042128603,0.18886964033745737
2.46940133037694,0.25328822415668883
2.5027716186252773,0.2974982752815408
2.536141906873614,0.33406530035493504
2.569512195121951,0.373047148775775
2.6028824833702884,0.4145944953328434
2.6362527716186253,0.44802582063635854
2.6696230598669626,0.45765141384897445
2.7029933481152995,0.4315959185000833
2.7363636363636363,0.3683772154830259
2.7697339246119737,0.27783701201555266
2.8031042128603105,0.1767530987941774
2.8364745011086474,0.0824779404546221
2.8698447893569847,0.008303703467542958
2.9032150776053216,-0.037955322519103746
2.9365853658536585,-0.05346588149198724
2.969955654101996,-0.040353116636011786
3.0033259423503327,-0.007126190606381943
3.0366962305986696,0.0300479775682532
3.070066518847007,0.049163798500209854
3.1034368070953438,0.028847129199893587
3.1368070953436806,-0.042376787975590205
3.170177383592018,-0.1588409741779179
3.203547671840355,-0.29743139030393595
3.2369179600886917,-0.42577418336332096
3.270288248337029,-0.515530088322163
3.303658536585366,-0.5540076553835914
3.337028824833703,-0.5477708401154955
3.37039911308204,-0.5162071917942443
3.403769401330377,-0.4786856281256033
3.437139689578714,-0.4426079511768949
3.470509977827051,-0.39915597580718504
3.503880266075388,-0.32914624325280567
3.537250554323725,-0.21566839080984737
3.5706208425720622,-0.05636015875131482
3.603991130820399,0.13162948603977107
3.637361419068736,0.3168954620727179
3.6707317073170733,0.4665621143245932
3.70410199556541,0.5598470882328567
3.737472283813747,0.5952910416272053
3.7708425720620844,0.5880187403442751
3.8042128603104213,0.5588068843172826
3.8375831485587586,0.5211750642412554
3.8709534368070955,0.47380697808634725
3.9043237250554323,0.4027206055147557
3.9376940133037697,0.2922215990125562
3.9710643015521065,0.1386595928569685
4.004434589800444,-0.040891395309611625
4.037804878048781,-0.21056690610082499
4.071175166297118,-0.32837720922239266
4.1045454545454545,-0.36405595014658687
4.137915742793791,-0.3136104900002419
4.171286031042128,-0.20339201513270752
4.204656319290466,-0.08132240071083328
4.238026607538803,0.0011918264093103545
4.27139689578714,0.008987217725812223
4.304767184035477,-0.06372775896382236
4.3381374722838135,-0.19201182812106135
4.371507760532151,-0.33060557995583084
4.404878048780488,-0.4312491783989678
4.438248337028825,-0.45954932806422405
4.471618625277162,-0.40490927473341054
4.504988913525499,-0.2806444966328284
4.538359201773836,-0.11590252166110804
4.571729490022173,0.055812431274091294
4.60509977827051,0.20628120821740994
4.638470066518847,0.3173860883271612
4.671840354767184,0.38142645611147147
4.705210643015521,0.3995059088327384
4.738580931263858,0.3803967794807728
4.771951219512196,0.3401028146743342
4.8053215077605325,0.30005931633621763
4.838691796008869,0.2816393752983499
4.872062084257206,0.29704718880647857
4.905432372505543,0.3403077542509097
4.93880266075388,0.38415697309766544
4.972172949002218,0.3871036722687686
5.005543237250555,0.30998886015932275
5.0389135254988915,0.13564107835508407
5.072283813747228,-0.11780588294510033
5.105654101995565,-0.3975841204872433
5.139024390243902,-0.6325668941392985
5.17239467849224,-0.7593893194467425
5.205764966740577,-0.747583924678308
5.239135254988914,-0.6126454274175664
5.2725055432372505,-0.41076359890778547
5.305875831485587,-0.21682352330047236
5.339246119733925,-0.09470624873924294
5.372616407982262,-0.07253129378483426
5.405986696230599,-0.13347886676404233
5.439356984478936,-0.2259657029323073
5.472727272727273,-0.2882909799881753
5.5060975609756095,-0.27643181500201597
5.539467849223947,-0.18250622392825058
5.572838137472284,-0.03609690079340728
5.606208425720621,0.11115806473261403
5.639578713968958,0.20962326707324402
5.672949002217295,0.2328986781278751
5.706319290465632,0.18710117825722447
5.7396895787139695,0.1055790007098099
5.773059866962306,0.033480805625789256
5.806430155210643,0.010541850042636131
5.83980044345898,0.059630741664206836
5.873170731707317,0.1840877086138045
5.906541019955654,0.3716820584560345
5.939911308203992,0.600208785836017
5.9732815964523285,0.8406883763900679
6.006651884700665,1.057747555734604
6.040022172949002,1.2103046726465678
6.073392461197339,1.2565453629109642
6.106762749445676,1.1645548938903623
6.140133037694014,0.9254660491695763
6.173503325942351,0.5626014063671125
6.2068736141906875,0.13033153227101527
6.240243902439024,-0.2994444216157748
6.273614190687361,-0.6592713310656545
6.306984478935698,-0.9080386387426491
6.340354767184036,-1.0435715211850076
6.373725055432373,-1.1002406337390056
6.40709534368071,-1.1320614707532222
6.4404656319290465,-1.187750163146152
6.473835920177383,-1.2876204476583855
6.507206208425721,-1.4117833882377777
6.540576496674058,-1.5049963962241815
6.573946784922395,-1.497105811300964
6.607317073170732,-1.3316400616140263
6.640687361419069,-0.9913157914351528
6.674057649667406,-0.5098839178054856
6.707427937915743,0.035032714772657035
6.74079822616408,0.5457388289663813
6.774168514412417,0.9357406833437647
6.807538802660754,1.1565114999649946
6.840909090909091,1.209983664902795
6.874279379157428,1.1429443540004558
6.9076496674057655,1.0264232374368303
6.941019955654102,0.9283558477072147
6.974390243902439,0.8896972559976243
7.007760532150776,0.9124521561721263
7.041130820399113,0.9635006759985937
7.07450110864745,0.9921258959589533
7.107871396895788,0.9538349855791394
7.1412416851441245,0.8304948488941465
7.174611973392461,0.638228816207661
7.207982261640798,0.41961609425030555
7.241352549889135,0.22352985281138651
7.274722838137472,0.0815860705280125
7.30809312638581,-0.00788287396196881
7.341463414634147,-0.0802677536479719
7.3748337028824835,-0.18819500311351214
7.40820399113082,-0.37462799816420717
7.441574279379157,-0.6475454330751927
7.474944567627494,-0.9685042594929908
7.508314855875832,-1.2619303298275937
7.541685144124169,-1.4427942447030169
7.575055432372506,-1.4514799887981666
7.6084257206208425,-1.280416326662683
7.641796008869179,-0.97982853172101
7.675166297117517,-0.638963684387516
7.708536585365854,-0.3504066459685667
7.741906873614191,-0.17325922192911872
7.775277161862528,-0.11179669859435237
7.808647450110865,-0.11900221875701615
7.842017738359202,-0.12250681498226144
7.875388026607539,-0.05991179988999321
7.908758314855876,0.09335027503552584
7.942128603104213,0.31574956282787137
7.97549889135255,0.5527372447178297
8.008869179600888,0.7426640160825565
8.042239467849225,0.8422028792125428
8.075609756097561,0.8403200881684273
8.108980044345898,0.7570746340669323
8.142350332594235,0.6310386537852308
8.175720620842572,0.5030766022422879
8.209090909090909,0.4035129386082089
8.242461197339246,0.34602683677083484
8.275831485587583,0.32775675882690214
8.30920177383592,0.33313032556627487
8.342572062084257,0.339142385692213
8.375942350332595,0.3210394193685617
8.409312638580932,0.2582168414535526
8.442682926829269,0.13996454735937866
8.476053215077606,-0.03009959686152306
8.509423503325943,-0.23260226271427165
8.54279379157428,-0.4353293156692035
8.576164079822616,-0.6005753130578818
8.609534368070953,-0.6953928845200771
8.64290465631929,-0.7018285732082238
8.676274944567627,-0.6236377435673869
8.709645232815964,-0.48655003491260207
8.743015521064303,-0.3310476754456474
8.77638580931264,-0.19944107874805095
8.809756097560976,-0.12171070609998795
8.843126385809313,-0.10570371061021998
8.87649667405765,-0.13587261362426267
8.909866962305987,-0.18112933885566848
8.943237250554324,-0.20822480007713798
8.97660753880266,-0.1945446276486037
9.009977827050998,-0.13476272461692593
9.043348115299334,-0.03915058620131157
9.076718403547671,0.07436761533101936
9.110088691796008,0.18947373819672347
9.143458980044347,0.29714318219729036
9.176829268292684,0.395544539500279
9.21019955654102,0.48543626979667176
9.243569844789358,0.5646068482874308
9.276940133037694,0.6248541966785518
9.310310421286031,0.6530846325741448
9.343680709534368,0.6357628970757747
9.377050997782705,0.5644971180359909
9.410421286031042,0.4404381000729619
9.443791574279379,0.27595626358502
9.477161862527716,0.0930047980314126
9.510532150776053,-0.08167092510150435
9.543902439024391,-0.22361580932333158
9.577272727272728,-0.3183008727606427
9.610643015521065,-0.3667179168152614
9.644013303769402,-0.3861806510382399
9.677383592017739,-0.4047829639874543
9.710753880266076,-0.4504878481656374
9.744124168514412,-0.5386222816417934
9.77749445676275,-0.6630469779818995
9.810864745011086,-0.7953198196638034
9.844235033259423,-0.8929430664870448
9.87760532150776,-0.9137806877307482
9.910975609756099,-0.8309529770164529
9.944345898004435,-0.6423196902316959
9.977716186252772,-0.37107747479915026
10.01108647450111,-0.057805983967822126
10.044456762749446,0.2522830768733383
10.077827050997783,0.5216072216750611
10.11119733924612,0.7276035881067027
10.144567627494457,0.8635908162921903
10.177937915742794,0.9345316032042397
10.21130820399113,0.9510422423484014
10.244678492239467,0.9249100580244667
10.278048780487804,0.8675522817329675
10.311419068736143,0.7904660528623838
10.34478935698448,0.7052551098516998
10.378159645232817,0.6212311570200972
10.411529933481154,0.5407209869485148
10.44490022172949,0.45477139268038086
10.478270509977827,0.34315533343975285
10.511640798226164,0.1812424178364442
10.545011086474501,-0.04733469664389845
10.578381374722838,-0.33736920952463006
10.611751662971175,-0.6552802535582986
10.645121951219512,-0.9441907110438226
10.67849223946785,-1.1409931574038814
10.711862527716187,-1.1992645278947152
10.745232815964524,-1.1080408819477883
10.778603104212861,-0.8974222458446399
10.811973392461198,-0.6276836320924285
10.845343680709535,-0.36633371528517605
10.878713968957872,-0.16339963971385055
10.912084257206208,-0.03599908350555014
10.945454545454545,0.03147557721495318
10.978824833702882,0.07296866017834742
11.012195121951219,0.1202245354432471
11.045565410199556,0.18640882119861063
11.078935698447895,0.2612505916110606
11.112305986696231,0.3188571522862562
11.145676274944568,0.3332161512598583
11.179046563192905,0.2932437469669278
11.212416851441242,0.2101747372339705
11.245787139689579,0.11418589317761901
11.279157427937916,0.04218381037710497
11.312527716186253,0.02239629480328528
11.34589800443459,0.06242616857138566
11.379268292682926,0.14568713658949656
11.412638580931263,0.23761365951523414
11.4460088691796,0.2991730753704122
11.479379157427939,0.3023866917733629
11.512749445676276,0.24172865540552294
11.546119733924613,0.13674486665060243
11.57949002217295,0.024620895827176716
11.612860310421286,-0.05444583644322171
11.646230598669623,-0.07305989477524832
11.67960088691796,-0.02698958605220991
11.712971175166297,0.06415944065304517
11.746341463414634,0.16578519963986002
11.77971175166297,0.24221393273699712
11.813082039911308,0.2693284200869251
11.846452328159646,0.2407937015195131
11.879822616407983,0.16639177901406377
11.91319290465632,0.06482221341724143
11.946563192904657,-0.04463496787980664
11.979933481152994,-0.14772263109026612
12.01330376940133,-0.23651439447538516
12.046674057649668,-0.30736888836364046
12.080044345898004,-0.3578438456335843
12.113414634146341,-0.38472675256773425
12.146784922394678,-0.38414316338106935
12.180155210643015,-0.353331905831564
12.213525498891352,-0.2928339484246011
12.24689578713969,-0.2078077437076335
12.280266075388028,-0.10780731060772678
12.313636363636364,-0.005204629630747218
12.347006651884701,0.08699075002926542
12.380376940133038,0.15715051210452502
12.413747228381375,0.196546918781901
12.447117516629712,0.2004450591122317
12.480487804878049,0.1688393296484388
12.513858093126386,0.10656323208861747
12.547228381374723,0.022335926447477793
12.58059866962306,-0.07323943651797758
12.613968957871396,-0.16984110227581833
12.647339246119735,-0.25840589518723023
12.680709534368072,-0.3302242604398205
12.714079822616409,-0.37505602808484223
12.747450110864746,-0.38051447534882005
12.780820399113082,-0.3347342509821107
12.81419068736142,-0.23225675660355696
12.847560975609756,-0.08036446854159515
12.880931263858093,0.09827338505706447
12.91430155210643,0.2695868720300036
12.947671840354767,0.3983578961225725
12.981042128603104,0.46082151163191337
13.014412416851442,0.4539733171552135
13.04778270509978,0.3970581135409967
13.081152993348116,0.3241295716608029
13.114523281596453,0.27058730504882567
13.14789356984479,0.2593073522809839
13.181263858093127,0.29216275404531544
13.214634146341464,0.3503436015576915
13.2480044345898,0.40303825796195974
13.281374722838137,0.42047271902733924
13.314745011086474,0.38561990730998974
13.348115299334811,0.29980384112981734
13.381485587583148,0.18043103957692463
13.414855875831487,0.05268708071451728
13.448226164079824,-0.06051348340015537
13.48159645232816,-0.14585555763705113
13.514966740576497,-0.20174973612374839
13.548337028824834,-0.23569233385589777
13.581707317073171,-0.2594764923991381
13.615077605321508,-0.28517586538648504
13.648447893569845,-0.32328335991431834
13.681818181818182,-0.38219139714662476
13.715188470066519,-0.4669566743553273
13.748558758314855,-0.5759903658076053
13.781929046563192,-0.6966058058964143
13.815299334811531,-0.8026612409436971
13.848669623059868,-0.8579819448145536
13.882039911308205,-0.8269200267975578
13.915410199556542,-0.6891728106922795
13.948780487804878,-0.45224526829785155
13.982150776053215,-0.15435651483493523
14.015521064301552,0.14571909146765466
14.048891352549889,0.38888880803515075
14.082261640798226,0.5373118931093294
14.115631929046563,0.5871080876231555
14.1490022172949,0.5660979218324487
14.182372505543238,0.518019236927774
14.215742793791575,0.48146003568096757
14.249113082039912,0.47400289913692445
14.282483370288249,0.4886903719233087
14.315853658536586,0.5030239494790671
14.349223946784923,0.49427589390431714
14.38259423503326,0.4523695779027636
14.415964523281596,0.3839736840176183
14.449334811529933,0.30693998896233926
14.48270509977827,0.23943568932987222
14.516075388026607,0.19025838812602078
14.549445676274944,0.15516002167995666
14.582815964523283,0.12008325604152277
14.61618625277162,0.06859270892939365
14.649556541019956,-0.01062843062188724
14.682926829268293,-0.11930548556847899
14.71629711751663,-0.24894942225202324
14.749667405764967,-0.3830649771727433
14.783037694013304,-0.5006892553348525
14.81640798226164,-0.5804375220263357
14.849778270509978,-0.6050598879563238
14.883148558758315,-0.5665071838144443
14.916518847006651,-0.47047516207732654
14.949889135254988,-0.33815004654848846
14.983259423503327,-0.20269830739598574
15.016629711751664,-0.09972924846890872
15.05,-0.05407216412946955
15.083370288248338,-0.06810742412378078
15.116740576496674,-0.1176320295873447
15.150110864745011,-0.1588305425372871
15.183481152993348,-0.14508772508044576
15.216851441241685,-0.04734984972195976
15.250221729490022,0.13085378529188724
15.283592017738359,0.35113935751386677
15.316962305986696,0.552902547111505
15.350332594235034,0.6762423565892296
15.383702882483371,0.6855206302383994
15.417073170731708,0.5832340438195075
15.450443458980045,0.40812967767612396
15.483813747228382,0.21867764631760414
15.517184035476719,0.06954184581275293
15.550554323725056,-0.008655568712635234
15.583924611973393,-0.018266006129321125
15.61729490022173,0.010120410822456377
15.650665188470066,0.032555947242923024
15.684035476718403,0.009865633615287311
15.71740576496674,-0.07782029837045115
15.750776053215079,-0.2244711483035793
15.784146341463416,-0.4006099154892753
15.817516629711752,-0.5632465789630429
15.85088691796009,-0.6699346686078756
15.884257206208426,-0.6925982359725906
15.917627494456763,-0.6266403110338473
15.9509977827051,-0.49195566852696426
15.984368070953437,-0.3250466486666614
16.017738359201775,-0.1649172081849501
16.05110864745011,-0.03835197403168738
16.08447893569845,0.04908240425377887
16.117849223946784,0.11222715571352658
16.151219512195123,0.17604772977430938
16.184589800443458,0.2606848403797663
16.217960088691797,0.3689179452600323
16.251330376940132,0.48205945243189285
16.28470066518847,0.5664543312305744
16.31807095343681,0.5879508363629363
16.351441241685144,0.5280851796808156
16.384811529933483,0.3948261932320926
16.418181818181818,0.2228954859582214
16.451552106430157,0.06296984809946299
16.48492239467849,-0.03632106988671618
16.51829268292683,-0.04666302189821991
16.551662971175165,0.028602602919835303
16.585033259423504,0.15470038609363354
16.61840354767184,0.27747506452848797
16.651773835920178,0.3429938199296328
16.685144124168513,0.31734175808431025
16.71851441241685,0.19893032176253683
16.75188470066519,0.018415445717992248
16.785254988913525,-0.17371434739958208
16.818625277161864,-0.326715568497421
16.8519955654102,-0.4082257557760491
16.885365853658538,-0.4144375197966589
16.918736141906873,-0.36811752277024506
16.95210643015521,-0.30607786895076655
16.985476718403547,-0.2621226423938
17.018847006651885,-0.25312455297318887
17.05221729490022,-0.2740841142905677
17.08558758314856,-0.3036621479959766
17.118957871396898,-0.31680942497795445
17.152328159645233,-0.2980378968535256
17.18569844789357,-0.24897863959737915
17.219068736141907,-0.1869468437047172
17.252439024390245,-0.13565762388528468
17.28580931263858,-0.11286235674549637
