Time (s),Filtered Signal
0.0,0.025155231426643693
0.033370535714285714,0.19636742856165176
0.06674107142857143,0.3156748612179442
0.10011160714285713,0.3388758537416195
0.13348214285714285,0.2394328648391135
0.16685267857142858,0.019187499176689486
0.20022321428571427,-0.28622566312510156
0.23359375,-0.6133911736923655
0.2669642857142857,-0.8894941037596047
0.30033482142857143,-1.0566219781877237
0.33370535714285715,-1.0910934580204863
0.36707589285714287,-1.0086954513403417
0.40044642857142854,-0.8537493518466768
0.43381696428571426,-0.6779381174940546
0.4671875,-0.5192693819216248
0.5005580357142857,-0.39042170987468366
0.5339285714285714,-0.2802850680533153
0.5672991071428571,-0.16601284537010347
0.6006696428571429,-0.028553928385956263
0.6340401785714286,0.13591997154438548
0.6674107142857143,0.31335743214881345
0.70078125,0.47800334116145976
0.7341517857142857,0.6034450787452336
0.7675223214285715,0.672838854134548
0.8008928571428571,0.683714583002615
0.8342633928571428,0.6458866669502908
0.8676339285714285,0.574541859282707
0.9010044642857142,0.48280359320041893
0.934375,0.37791701186376214
0.9677455357142857,0.2627743667833395
1.0011160714285714,0.1411254351469363
1.0344866071428571,0.02241749589338086
1.0678571428571428,-0.07772719222500733
1.1012276785714286,-0.14275050480022722
1.1345982142857143,-0.1637187838624352
1.16796875,-0.14619857144669765
1.2013392857142857,-0.11067400038512577
1.2347098214285714,-0.08491447784319248
1.2680803571428572,-0.09121894411859527
1.3014508928571429,-0.1348208067919281
1.3348214285714286,-0.19989887495104278
1.3681919642857143,-0.2561806917881874
1.4015625,-0.27361692073881383
1.4349330357142858,-0.23794464098289714
1.4683035714285715,-0.15886058836706987
1.5016741071428572,-0.06594157967898787
1.535044642857143,0.0061678627664173095
1.5684151785714286,0.03579186586249344
1.6017857142857141,0.025758026208637076
1.6351562499999999,0.0017456139075378825
1.6685267857142856,-0.0022900551120173334
1.7018973214285713,0.035892386846929164
1.735267857142857,0.1124553924521588
1.7686383928571427,0.19737533994716538
1.8020089285714285,0.24981276736507996
1.8353794642857142,0.24152385366946794
1.86875,0.17568164427593322
1.9021205357142856,0.08987945972365202
1.9354910714285714,0.0398552961054492
1.968861607142857,0.07085361429201396
2.002232142857143,0.191018052069864
2.0356026785714287,0.3614179481545027
2.0689732142857142,0.5095787768280656
2.10234375,0.5613949279144493
2.1357142857142857,0.47631280465261583
2.169084821428571,0.2681738664908064
2.202455357142857,0.0007541325697568708
2.2358258928571426,-0.2404144428857441
2.2691964285714286,-0.38641894013518485
2.302566964285714,-0.4149591227602139
2.3359375,-0.35776981894624893
2.3693080357142855,-0.2826228870040753
2.4026785714285714,-0.2593570265563212
2.436049107142857,-0.32651851591621706
2.469419642857143,-0.4740506819871528
2.5027901785714284,-0.649160912004273
2.5361607142857143,-0.781408451438941
2.56953125,-0.8145092014576093
2.6029017857142858,-0.7300914475723072
2.6362723214285713,-0.5532615382866157
2.669642857142857,-0.3387612655301762
2.7030133928571427,-0.1453440887439534
2.7363839285714286,-0.0107412046348042
2.769754464285714,0.06161558186367256
2.803125,0.09908991276144545
2.8364955357142856,0.14246143567607522
2.8698660714285715,0.2236353030034364
2.903236607142857,0.34908392940182137
2.936607142857143,0.4965174212122024
2.9699776785714285,0.6258907792948419
3.0033482142857144,0.6991040175149322
3.03671875,0.6986738420307836
3.070089285714286,0.6361867163059121
3.1034598214285714,0.546340292786049
3.1368303571428573,0.4695101202602357
3.170200892857143,0.43153717671331593
3.2035714285714283,0.43088894380531434
3.2369419642857142,0.43969468588281735
3.2703124999999997,0.4182013647167138
3.3036830357142857,0.335482567281768
3.337053571428571,0.1861859922418643
3.370424107142857,-0.004801654955180955
3.4037946428571426,-0.1918926316780774
3.4371651785714286,-0.3278969721528521
3.470535714285714,-0.38378902083371036
3.50390625,-0.3602765333743508
3.5372767857142855,-0.28627479634808556
3.5706473214285714,-0.20532551780518252
3.604017857142857,-0.1563158306420229
3.637388392857143,-0.15733123484421
3.6707589285714284,-0.20003488143204282
3.7041294642857143,-0.2570932443425635
3.7375,-0.2988894840351174
3.7708705357142858,-0.3109594550021514
3.8042410714285713,-0.30275234874489076
3.837611607142857,-0.302282944286675
3.8709821428571427,-0.3384719874914238
3.9043526785714286,-0.4200140982462617
3.937723214285714,-0.5226459511076109
3.97109375,-0.5935327038780797
4.004464285714286,-0.5730741009662622
4.0378348214285715,-0.4247645395583607
4.0712053571428575,-0.15812206324017966
4.1045758928571425,0.16818749233314642
4.1379464285714285,0.4664530912328773
4.171316964285714,0.654655373805335
4.2046875,0.6893686619612657
4.238058035714285,0.5812273948114958
4.271428571428571,0.38651069300720353
4.304799107142857,0.18052073233361982
4.338169642857142,0.026700705418610405
4.371540178571428,-0.044262935952634766
4.404910714285714,-0.03799852705957109
4.43828125,0.015256321986843473
4.471651785714285,0.07888794127597787
4.505022321428571,0.12497375836919095
4.538392857142857,0.14061084375200084
4.571763392857143,0.1259276746147803
4.605133928571428,0.08843204680214727
4.638504464285714,0.038767314238610406
4.671875,-0.01000312508118642
4.705245535714286,-0.04138512294982638
4.738616071428571,-0.03660567443185388
4.771986607142857,0.019432278189766644
4.805357142857143,0.12861228102845146
4.838727678571429,0.2716243709896829
4.872098214285714,0.40780739155950624
4.90546875,0.48606683729841177
4.938839285714286,0.4641834782731293
4.972209821428572,0.32825990181946846
5.005580357142857,0.10239641810815098
5.038950892857143,-0.15748885110993813
5.072321428571429,-0.3841097533044313
5.105691964285715,-0.5245490407979159
5.1390625,-0.5594008315134145
5.172433035714286,-0.5067476877239472
5.2058035714285715,-0.41004666444019156
5.2391741071428575,-0.31672171909442626
5.2725446428571425,-0.25803108080641546
5.3059151785714285,-0.23903779977029646
5.339285714285714,-0.24173843151847405
5.3726562499999995,-0.23793895009897323
5.406026785714285,-0.20452706876567345
5.439397321428571,-0.13387377087263996
5.472767857142857,-0.03552093008524334
5.506138392857142,0.07008433431312913
5.539508928571428,0.16160288866285688
5.572879464285714,0.22544063599935335
5.60625,0.2594311378713472
5.639620535714285,0.2708230431127134
5.672991071428571,0.2704652590295833
5.706361607142857,0.26643698859629655
5.739732142857143,0.2601388931710069
5.773102678571428,0.24642498491447853
5.806473214285714,0.21744714091297196
5.83984375,0.168257380370192
5.873214285714286,0.10142672456419437
5.906584821428571,0.028275567946262428
5.939955357142857,-0.034278619094343876
5.973325892857143,-0.07021560343973314
6.006696428571429,-0.07140360614438448
6.040066964285714,-0.04166072665659342
6.0734375,0.004340433239508059
6.106808035714286,0.04699377755634987
6.140178571428572,0.06963657603517275
6.173549107142857,0.06452452972504179
6.206919642857143,0.03423357004962095
6.240290178571429,-0.011571742738874166
6.273660714285715,-0.06163475830462318
6.30703125,-0.10765227124391555
6.340401785714286,-0.1457295350680603
6.3737723214285715,-0.1747768144473125
6.407142857142857,-0.19374536912187743
6.4405133928571425,-0.20007655771494565
6.4738839285714285,-0.19067322543981063
6.507254464285714,-0.1648698953070059
6.5406249999999995,-0.12741092488756614
6.573995535714285,-0.08915978737817493
6.607366071428571,-0.06428616415168559
6.640736607142857,-0.06450253084817542
6.674107142857142,-0.09269995891043609
6.707477678571428,-0.13920210665676086
6.740848214285714,-0.18323639728388902
6.77421875,-0.2000986493834804
6.807589285714285,-0.17161382672097072
6.840959821428571,-0.09526980447098651
6.874330357142857,0.012746936017929124
6.907700892857143,0.12292217959484403
6.941071428571428,0.20440876516100284
6.974441964285714,0.23830632330344448
7.0078125,0.22593862517818283
7.041183035714286,0.18813073845244424
7.074553571428571,0.1557939516066162
7.107924107142857,0.1561796050203662
7.141294642857143,0.2009951463443767
7.174665178571429,0.2814888941852579
7.208035714285714,0.3723262051113711
7.24140625,0.44221751597165765
7.274776785714286,0.4665313840546707
7.308147321428572,0.43661034978031443
7.341517857142857,0.36223351480747296
7.374888392857143,0.2666887524003976
7.408258928571429,0.17683702153946906
7.441629464285715,0.11223731967413463
7.475,0.07742675125315673
7.508370535714286,0.060081604029691316
7.5417410714285715,0.03565631624262675
7.575111607142857,-0.0231059274948474
7.6084821428571425,-0.13507438638107888
7.6418526785714285,-0.301988487312534
7.675223214285714,-0.5053533936678761
7.7085937499999995,-0.7103250098805134
7.741964285714285,-0.8753419849355487
7.775334821428571,-0.9640598773777315
7.808705357142857,-0.9553613965588149
7.842075892857142,-0.8482276465866335
7.875446428571428,-0.6604790728007619
7.908816964285714,-0.42265228029247087
7.9421875,-0.16956950658647776
7.975558035714285,0.06774116132702236
8.008928571428571,0.26772082391841945
8.042299107142856,0.42026397156062156
8.075669642857143,0.5246090585355654
8.109040178571428,0.5840151339884196
8.142410714285715,0.5996915677160211
8.17578125,0.5674560638215895
8.209151785714285,0.4798611642811619
8.242522321428572,0.3337271769219566
8.275892857142857,0.13939432708577917
8.309263392857142,-0.07410704251677437
8.342633928571429,-0.26252946503994845
8.376004464285714,-0.3787094084177253
8.409375,-0.3888437869097406
8.442745535714286,-0.2853537654337841
8.47611607142857,-0.09053300691737766
8.509486607142858,0.15018838921402994
8.542857142857143,0.3817919729744939
8.576227678571428,0.5543080145562037
8.609598214285715,0.633918467225947
8.64296875,0.6087043331255376
8.676339285714285,0.48942985361709707
8.709709821428572,0.3062147172254342
8.743080357142857,0.10135275137678376
8.776450892857143,-0.08143382127128679
8.809821428571428,-0.2094358863272384
8.843191964285714,-0.2709804990825365
8.8765625,-0.27815169535191825
8.909933035714285,-0.2596324336583399
8.94330357142857,-0.24592578505636625
8.976674107142857,-0.25384314273481223
9.010044642857142,-0.27838031152941295
9.04341517857143,-0.2965796000947856
9.076785714285714,-0.28137018118635904
9.11015625,-0.21756912209432794
9.143526785714286,-0.11088164558550892
9.176897321428571,0.015123535725663162
9.210267857142856,0.13190342188331883
9.243638392857143,0.22070349241613707
9.277008928571428,0.28028862227428347
9.310379464285715,0.32321981138963435
9.34375,0.3633217150311401
9.377120535714285,0.402366651644536
9.410491071428572,0.42455691159352205
9.443861607142857,0.4028614151765938
9.477232142857142,0.31428852133884033
9.510602678571429,0.15570576924013027
9.543973214285714,-0.0490831782582539
9.57734375,-0.2560670318872651
9.610714285714286,-0.41943726398174536
9.64408482142857,-0.5130937745847441
9.677455357142858,-0.5442302488374844
9.710825892857143,-0.5509709907683776
9.744196428571428,-0.5833095179235749
9.777566964285715,-0.6750117146746928
9.8109375,-0.8197438710979185
9.844308035714285,-0.9643599842445632
9.877678571428572,-1.025341490018767
9.911049107142857,-0.9233960870961736
9.944419642857143,-0.6213813394663369
9.977790178571428,-0.14747886667108706
10.011160714285714,0.40853990208977276
10.04453125,0.9254505394501309
10.077901785714285,1.2937488109136743
10.11127232142857,1.4524494992287074
10.144642857142857,1.4040306969343594
10.178013392857142,1.203373507869283
10.21138392857143,0.9288133146499793
10.244754464285714,0.650339932551285
10.278125,0.40887266707255937
10.311495535714286,0.21313173261390086
10.344866071428571,0.05143568739495094
10.378236607142856,-0.0906466128384162
10.411607142857143,-0.21696378708951197
10.444977678571428,-0.3180475466247369
10.478348214285715,-0.37884942392312076
10.51171875,-0.3912039117822032
10.545089285714285,-0.3630516253313967
10.578459821428572,-0.31848585577805105
10.611830357142857,-0.2877851104609266
10.645200892857142,-0.29215182082806945
10.678571428571429,-0.3310973895041673
10.711941964285714,-0.3796366835952999
10.745312499999999,-0.39794240666115827
10.778683035714286,-0.3499318080404293
10.81205357142857,-0.22236080875036665
10.845424107142858,-0.03488669096023424
10.878794642857143,0.1648726481399674
10.912165178571428,0.3202833802165819
10.945535714285715,0.3904106709047349
10.97890625,0.3685219917019168
11.012276785714285,0.2846007819119225
11.045647321428572,0.1897818772150044
11.079017857142857,0.13012166775369538
11.112388392857143,0.12323571402955907
11.145758928571428,0.1503152122368861
11.179129464285714,0.16798417132964313
11.2125,0.1336143606386999
11.245870535714285,0.030164844873627073
11.27924107142857,-0.12320341612052248
11.312611607142857,-0.28048676662122546
11.345982142857142,-0.39261976906659846
11.37935267857143,-0.4320990373161936
11.412723214285714,-0.40480186001235857
11.44609375,-0.3431281934080673
11.479464285714286,-0.2854120687911283
11.512834821428571,-0.2539863594222281
11.546205357142856,-0.24427664283600295
11.579575892857143,-0.23037677863803993
11.612946428571428,-0.18311490421867188
11.646316964285715,-0.09000602618836712
11.6796875,0.034038734065683196
11.713058035714285,0.15111001183788814
11.746428571428572,0.21778709415658223
11.779799107142857,0.2072330627387587
11.813169642857142,0.1252281162595781
11.846540178571429,0.012185720192706645
11.879910714285714,-0.07064635150720766
11.913281249999999,-0.06568543660919413
11.946651785714286,0.05573795536556929
11.98002232142857,0.2781135619497775
12.013392857142858,0.5434913409320056
12.046763392857143,0.770436199223644
12.080133928571428,0.8832239214859319
12.113504464285715,0.8398143432327003
12.146875,0.6473673515961118
12.180245535714285,0.3590502428796696
12.213616071428572,0.05357207847458802
12.246986607142857,-0.19401250714906604
12.280357142857143,-0.3382635150679539
12.313727678571428,-0.3758816839015585
12.347098214285714,-0.3407111040275439
12.38046875,-0.284710844377605
12.413839285714285,-0.2539722969596346
12.44720982142857,-0.27010948160221643
12.480580357142857,-0.3241194892473579
12.513950892857142,-0.38396131858861826
12.54732142857143,-0.41136618254611895
12.580691964285714,-0.3800621365287034
12.6140625,-0.2876970335415958
12.647433035714286,-0.15689193531859744
12.680803571428571,-0.02560066359462299
12.714174107142856,0.06864562364263274
12.747544642857143,0.10370505746456612
12.780915178571428,0.08073841038212738
12.814285714285713,0.02206143937246436
12.84765625,-0.039642902018338505
12.881026785714285,-0.07565032538143197
12.914397321428572,-0.07260448260716212
12.947767857142857,-0.03611671580823957
12.981138392857142,0.014554132314174942
13.014508928571429,0.05760157794418043
13.047879464285714,0.07975620281000728
13.081249999999999,0.08184697826846402
13.114620535714286,0.07640751690269697
13.14799107142857,0.07911939353549692
13.181361607142858,0.09900072326458918
13.214732142857143,0.13265257645980105
13.248102678571428,0.16549378864595132
13.281473214285715,0.179163969756081
13.31484375,0.1611770850487046
13.348214285714285,0.11194999793512052
13.381584821428572,0.04577167969857439
13.414955357142857,-0.014781031494710117
13.448325892857143,-0.04848999359473877
13.481696428571428,-0.044970724811552544
13.515066964285714,-0.009855692573642525
13.5484375,0.03665895753342078
13.581808035714285,0.0675921979769406
13.61517857142857,0.060416817919748685
13.648549107142857,0.007325428109990684
13.681919642857142,-0.07985979745322519
13.71529017857143,-0.1726585892945564
13.748660714285714,-0.23612722797266747
13.78203125,-0.2423466573524186
13.815401785714286,-0.1814943734862639
13.848772321428571,-0.06559757253225722
13.882142857142856,0.07668038906127542
13.915513392857143,0.21165061805467508
13.948883928571428,0.31299605719858375
13.982254464285713,0.3691384305487729
14.015625,0.38259358325614556
14.048995535714285,0.36274328941190653
14.082366071428572,0.31700086865803356
14.115736607142857,0.24598862057414372
14.149107142857142,0.14565185710141582
14.182477678571429,0.014757241921648307
14.215848214285714,-0.13735371952720557
14.249218749999999,-0.28834568986183207
14.282589285714286,-0.4083818758717821
14.31595982142857,-0.47139205458276096
14.349330357142858,-0.46639930777808947
14.382700892857143,-0.4028755484889186
14.416071428571428,-0.3071943778755016
14.449441964285715,-0.2118875217805241
14.4828125,-0.142925617008144
14.516183035714285,-0.11082141165323496
14.549553571428572,-0.10901656156677232
14.582924107142857,-0.11937406240708369
14.616294642857143,-0.12165841584545264
14.649665178571428,-0.10281125497006892
14.683035714285714,-0.06253442313163356
14.71640625,-0.013334901762416465
14.749776785714285,0.02500540281222508
14.78314732142857,0.03488186691197953
14.816517857142857,0.01105543176486053
14.849888392857142,-0.03266131590521459
14.88325892857143,-0.06424562363845163
14.916629464285714,-0.04363956429180361
14.95,0.05998601914552357
14.983370535714286,0.2504306960086959
15.016741071428571,0.4947799557126091
15.050111607142856,0.7284480654650977
15.083482142857143,0.8754583850636283
15.116852678571428,0.8769052996832476
15.150223214285713,0.715509556716128
15.18359375,0.4248360635922951
15.216964285714285,0.07834273170022901
15.250334821428572,-0.23716809412847242
15.283705357142857,-0.4518620432305562
15.317075892857142,-0.5338991502291902
15.350446428571429,-0.4934580007263904
15.383816964285714,-0.3707272330423305
15.417187499999999,-0.21598655604378547
15.450558035714286,-0.0719209825372002
15.48392857142857,0.03513192551940879
15.517299107142858,0.09445971202559193
15.550669642857143,0.10524419322264608
15.584040178571428,0.07154262749072701
15.617410714285715,0.0011823619654690492
15.65078125,-0.0922926293676193
15.684151785714285,-0.1882356557246579
15.717522321428572,-0.26145193898783936
15.750892857142857,-0.2892719307518226
15.784263392857143,-0.26035845530694285
15.817633928571428,-0.18072749768994478
15.851004464285714,-0.0733797843695808
15.884375,0.02907619269368608
15.917745535714285,0.09604017760853334
15.95111607142857,0.1099428661343248
15.984486607142857,0.07206068883010991
16.017857142857142,0.0008315723153783854
16.05122767857143,-0.07632192280468102
16.084598214285712,-0.13391984408612823
16.11796875,-0.15741372925649233
16.151339285714286,-0.14673954707204492
16.18470982142857,-0.11359194706897142
16.218080357142856,-0.07437679618549389
16.251450892857143,-0.042462462665754534
16.28482142857143,-0.02323272227268812
16.318191964285713,-0.013762330622605895
16.3515625,-0.006581121026230401
16.384933035714287,0.00491830613933194
16.41830357142857,0.0224887120069128
16.451674107142857,0.04259264095200294
16.485044642857144,0.05967492338948237
16.518415178571427,0.07120090256929364
16.551785714285714,0.08136914408444883
16.58515625,0.10085766325294493
16.618526785714284,0.14191226505543614
16.65189732142857,0.2106455786966397
16.685267857142858,0.3002832618919356
16.71863839285714,0.3892102083923117
16.752008928571428,0.4458155196440217
16.785379464285715,0.439104764238385
16.81875,0.35126414536036515
16.852120535714285,0.18714197511760422
16.88549107142857,-0.02348968335625372
16.91886160714286,-0.23245516424653967
16.95223214285714,-0.38689607427632766
16.98560267857143,-0.44605087163139007
17.018973214285715,-0.39567368966575556
17.05234375,-0.2549051363927857
17.085714285714285,-0.07218627502139327
17.119084821428572,0.08992418080133997
17.152455357142856,0.17692654426201848
17.185825892857142,0.1636564850169797
17.21919642857143,0.06553902798388027
17.252566964285712,-0.06636383655125307
17.2859375,-0.16598559054231288
17.319308035714286,-0.18044172773870404
17.35267857142857,-0.09325512390883547
17.386049107142856,0.06822753565136794
17.419419642857143,0.24475867337202462
17.45279017857143,0.3707069305773952
17.486160714285713,0.4010852133042877
17.51953125,0.3278535342316086
17.552901785714287,0.17909673280037594
17.58627232142857,0.0031628291834353904
17.619642857142857,-0.15345034944483307
