Frequency (Hz),Amplitude
0.0,0.4471083801467173
0.019867549668874173,0.4487592362084812
0.039735099337748346,0.4536694557409958
0.059602649006622516,0.4617165009697633
0.07947019867549669,0.4727100662539198
0.09933774834437085,0.4864095650524076
0.11920529801324503,0.5025431925471104
0.13907284768211922,0.5208255509893108
0.15894039735099338,0.5409719500916765
0.17880794701986755,0.5627086932681487
0.1986754966887417,0.5857795557350786
0.2185430463576159,0.6099491443660929
0.23841059602649006,0.6350039730579241
0.2582781456953642,0.6607520233447178
0.27814569536423844,0.6870214050607661
0.2980132450331126,0.7136585616132203
0.31788079470198677,0.740526316364936
0.33774834437086093,0.7675019429616995
0.3576158940397351,0.7944753621555635
0.3774834437086093,0.8213475145463176
0.3973509933774834,0.8480289255365069
0.4172185430463576,0.8744384594531304
0.4370860927152318,0.9005022494675852
0.45695364238410596,0.926152785260965
0.4768211920529801,0.9513281390525894
0.49668874172185434,0.975971311158994
0.5165562913907285,1.0000296777563313
0.5364238410596026,1.023454525426132
0.5562913907284769,1.0462006590537953
0.5761589403973509,1.068226071548454
0.5960264900662252,1.0894916655790219
0.6158940397350993,1.109961019042937
0.6357615894039735,1.1296001872992147
0.6556291390728477,1.1483775363194764
0.6754966887417219,1.166263601859073
0.695364238410596,1.1832309705476474
0.7152317880794702,1.1992541794662446
0.7350993377483444,1.2143096313358694
0.7549668874172186,1.2283755229084492
0.7748344370860927,1.2414317845400904
0.7947019867549668,1.2534600292519291
0.8145695364238411,1.2644435098562685
0.8344370860927152,1.2743670829546123
0.8543046357615894,1.283217178806924
0.8741721854304636,1.2909817762348466
0.8940397350993378,1.2976503818603295
0.9139072847682119,1.303214013100261
0.9337748344370861,1.3076651844405387
0.9536423841059603,1.3109978966025941
0.9735099337748344,1.3132076282948837
0.9933774834437087,1.3142913303127832
1.0132450331125828,1.314247421815331
1.033112582781457,1.3130757886676998
1.0529801324503312,1.3107777837959236
1.0728476821192052,1.3073562295565218
1.0927152317880795,1.3028154221803907
1.1125827814569538,1.2971611384079424
1.1324503311258278,1.2904006444937763
1.1523178807947019,1.2825427078249299
1.1721854304635762,1.2735976114690788
1.1920529801324504,1.2635771720500062
1.2119205298013245,1.252494761439433
1.2317880794701985,1.2403653328599293
1.2516556291390728,1.227205452115744
1.271523178807947,1.2130333348119011
1.2913907284768211,1.1978688905901327
1.3112582781456954,1.181733775610009
1.3311258278145695,1.164651454740698
1.3509933774834437,1.1466472752119834
1.370860927152318,1.1277485538117977
1.390728476821192,1.1079846801234228
1.410596026490066,1.0873872387827324
1.4304635761589404,1.0659901543206058
1.4503311258278146,1.0438298628573823
1.4701986754966887,1.020945515756153
1.4900662251655628,0.9973792213445437
1.5099337748344372,0.9731763320039777
1.5298013245033113,0.9483857853257688
1.5496688741721854,0.9230605096596104
1.5695364238410596,0.8972579062346152
1.5894039735099337,0.8710404220861416
1.609271523178808,0.8444762301900711
1.6291390728476822,0.8176400353118519
1.6490066225165563,0.7906140257857225
1.6688741721854303,0.7634889921598782
1.6887417218543048,0.7363656323876425
1.7086092715231789,0.7093560584162699
1.728476821192053,0.682585508138595
1.7483443708609272,0.6561942460209652
1.7682119205298013,0.6303396000496967
1.7880794701986755,0.6051980250576682
1.8079470198675496,0.5809669950533951
1.8278145695364238,0.5578664029701162
1.847682119205298,0.5361389843292397
1.8675496688741722,0.5160490958619863
1.8874172185430464,0.4978790142422446
1.9072847682119205,0.48192186015544564
1.9271523178807946,0.46847043110745895
1.9470198675496688,0.4578017877265934
1.9668874172185429,0.4501584501678896
1.9867549668874174,0.4457283777035798
2.0066225165562916,0.4446270770910013
2.0264900662251657,0.44688556945389
2.0463576158940397,0.45244706731105094
2.066225165562914,0.4611731912080512
2.086092715231788,0.4728581775343014
2.1059602649006623,0.4872478091584428
2.1258278145695364,0.5040593405876774
2.1456953642384105,0.5229993887588592
2.165562913907285,0.5437780419363675
2.185430463576159,0.5661186920482577
2.205298013245033,0.5897639679554019
2.2251655629139075,0.6144785744631437
2.2450331125827816,0.6400499293533501
2.2649006622516556,0.6662873858030449
2.2847682119205297,0.6930206491148064
2.3046357615894038,0.7200978161737476
2.324503311258278,0.7473833157609058
2.3443708609271523,0.774755915950182
2.364238410596027,0.8021068877421555
2.384105960264901,0.8293383642763517
2.403973509933775,0.8563619046910877
2.423841059602649,0.883097254593468
2.443708609271523,0.9094712864318624
2.463576158940397,0.935417099550811
2.4834437086092715,0.9608732591871533
2.5033112582781456,0.9857831547580084
2.52317880794702,1.0100944596540038
2.543046357615894,1.0337586768871014
2.562913907284768,1.0567307570748714
2.5827814569536423,1.078968777228651
2.6026490066225163,1.1004336705882394
2.622516556291391,1.1210889992932693
2.642384105960265,1.1409007630070942
2.662251655629139,1.1598372377332344
2.6821192052980134,1.17786884000934
2.7019867549668874,1.1949680124550028
2.7218543046357615,1.2111091273103078
2.741721854304636,1.2262684051519641
2.76158940397351,1.240423846432759
2.781456953642384,1.2535551738719073
2.801324503311258,1.2656437840429946
2.821192052980132,1.27667270677311
2.8410596026490067,1.2866265711905611
2.8609271523178808,1.2954915774470235
2.8807947019867552,1.3032554732995518
2.9006622516556293,1.309907534873546
2.9205298013245033,1.3154385510438897
2.9403973509933774,1.319840810972064
2.9602649006622515,1.3231080944247784
2.9801324503311255,1.3252356645771404
3.0,1.32622026307335
3.0198675496688745,1.3260601071814606
3.0397350993377485,1.3247548889385883
3.0596026490066226,1.3223057762398613
3.0794701986754967,1.3187154158802825
3.0993377483443707,1.3139879386152207
3.119205298013245,1.3081289663631008
3.1390728476821192,1.30114562173583
3.1589403973509933,1.293046540148975
3.1788079470198674,1.2838418848375466
3.198675496688742,1.2735433651861077
3.218543046357616,1.2621642588763904
3.23841059602649,1.2497194384646062
3.2582781456953644,1.2362254031279198
3.2781456953642385,1.2217003164685096
3.2980132450331126,1.2061640514406302
3.3178807947019866,1.1896382436760753
3.3377483443708607,1.1721463547341042
3.3576158940397347,1.1537137471035275
3.3774834437086096,1.1343677731460795
3.3973509933774837,1.1141378806071638
3.4172185430463577,1.0930557378471562
3.437086092715232,1.0711553825835023
3.456953642384106,1.0484733987048802
3.47682119205298,1.025049126648274
3.4966887417218544,1.000924913951815
3.5165562913907285,0.9761464139404281
3.5364238410596025,0.9507629421056906
3.556291390728477,0.9248279016327288
3.576158940397351,0.8983992917265444
3.596026490066225,0.8715403148873239
3.615894039735099,0.8443201020172278
3.6357615894039736,0.816814577051658
3.6556291390728477,0.7891074853700776
3.6754966887417218,0.7612916119493797
3.695364238410596,0.7334702150181162
3.7152317880794703,0.7057586970810092
3.7350993377483444,0.678286524764224
3.754966887417219,0.6511993875953594
3.774834437086093,0.6246615471499446
3.794701986754967,0.5988582631988456
3.814569536423841,0.5739980819139493
3.834437086092715,0.5503146225839495
3.854304635761589,0.5280672998208786
3.8741721854304636,0.5075401824811208
3.8940397350993377,0.48903797049758085
3.9139072847682117,0.47287797743942644
3.9337748344370858,0.4593772160545868
3.9536423841059607,0.4488343945614804
3.9735099337748347,0.4415079352638011
3.993377483443709,0.4375928155000664
4.013245033112583,0.43720047246690613
4.033112582781457,0.44034633216867247
4.052980132450331,0.44694815010032957
4.072847682119205,0.4568355979072504
4.0927152317880795,0.46976858008497036
4.112582781456953,0.48545993342092136
4.132450331125828,0.5035980368700012
4.152317880794702,0.5238660730650765
4.172185430463576,0.5459563787624787
4.19205298013245,0.5695797671886899
4.211920529801325,0.5944705789381037
4.231788079470199,0.6203885484793409
4.251655629139073,0.6471185453621662
4.271523178807947,0.6744690519142026
4.291390728476821,0.7022700018687738
4.311258278145695,0.7303703931934816
4.33112582781457,0.7586359261972373
4.3509933774834435,0.7869468046282649
4.370860927152318,0.8151957637474132
4.390728476821192,0.843286344447888
4.410596026490066,0.8711314070579128
4.43046357615894,0.8986518654749381
4.450331125827815,0.9257756168545199
4.470198675496689,0.9524366410009643
4.490066225165563,0.9785742448569495
4.509933774834438,1.004132429841342
4.529801324503311,1.029059362526945
4.549668874172186,1.0533069318928934
4.569536423841059,1.0768303789315155
4.589403973509934,1.0995879866529934
4.6092715231788075,1.1215408204906743
4.629139072847682,1.1426525107771959
4.649006622516556,1.162889070365027
4.66887417218543,1.1822187416360317
4.688741721854305,1.2006118681186366
4.708609271523179,1.2180407867375165
4.728476821192054,1.2344797373886767
4.748344370860927,1.249904787084694
4.768211920529802,1.2642937663724212
4.788079470198675,1.2776262161041803
4.80794701986755,1.2898833429586443
4.827814569536423,1.3010479823695578
4.847682119205298,1.3111045677400752
4.867549668874172,1.320039105004259
4.887417218543046,1.327839151752752
4.9072847682119205,1.334493800271369
4.927152317880794,1.3399936639543004
4.947019867549669,1.3443308666508036
4.966887417218543,1.3474990345893747
4.986754966887418,1.349493290598666
5.006622516556291,1.3503102504120537
5.026490066225166,1.3499480209048333
5.04635761589404,1.3484062001712946
5.066225165562914,1.3456858794047377
5.086092715231788,1.3417896465987906
5.105960264900662,1.3367215921440532
5.125827814569536,1.3304873164524766
5.14569536423841,1.323093939803542
5.1655629139072845,1.3145501146742327
5.185430463576159,1.3048660408898054
5.205298013245033,1.29405348401754
5.225165562913908,1.2821257975235858
5.245033112582782,1.2690979493264025
5.264900662251656,1.254986553513609
5.28476821192053,1.2398099081469474
5.304635761589404,1.2235880402675263
5.324503311258278,1.2063427594387919
5.344370860927152,1.1880977214351864
5.364238410596027,1.168878504011998
5.3841059602649,1.1487126970887613
5.403973509933775,1.1276300101615921
5.4238410596026485,1.1056624003490703
5.443708609271523,1.08284422519572
5.463576158940397,1.059212425237685
5.483443708609272,1.034806742412552
5.503311258278146,1.009669981712143
5.52317880794702,0.9838483250851009
5.543046357615895,0.9573917085493252
5.562913907284768,0.930354275834066
5.582781456953643,0.9027949246918192
5.602649006622516,0.8747779653381688
5.622516556291391,0.8463739142873763
5.642384105960264,0.8176604510530737
5.662251655629139,0.788723569507416
5.682119205298013,0.7596589595594981
5.701986754966887,0.7305736571143383
5.7218543046357615,0.7015879990166896
5.741721854304636,0.6728379114662562
5.7615894039735105,0.6444775396535368
5.781456953642384,0.616682184465141
5.801324503311259,0.589651436436894
5.821192052980132,0.5636122710028121
5.841059602649007,0.5388216739966643
5.860927152317881,0.5155680897560622
5.880794701986755,0.4941706372569345
5.900662251655629,0.4749746890452252
5.920529801324503,0.4583422159658436
5.940397350993377,0.44463554795667865
5.960264900662251,0.4341942227066887
5.980132450331126,0.4273065582477606
6.0,0.4241801377737723
6.0198675496688745,0.42491744224393285
6.039735099337749,0.42950295829348645
6.059602649006623,0.43780547980969653
6.079470198675497,0.4495948968829185
6.099337748344371,0.4645687020665262
6.119205298013245,0.4823816495905917
6.139072847682119,0.5026728243029663
6.158940397350993,0.5250867235898214
6.178807947019867,0.5492874019018474
6.198675496688741,0.5749664051302775
6.218543046357616,0.6018459746163518
6.23841059602649,0.629679080334886
6.258278145695365,0.6582475814043307
6.2781456953642385,0.6873594536127734
6.298013245033113,0.7168456967675602
6.317880794701987,0.7465572848228405
6.337748344370861,0.7763623503477299
6.357615894039735,0.806143686487778
6.377483443708609,0.835796585887979
6.397350993377484,0.8652270016865403
6.417218543046357,0.8943499994068401
6.437086092715232,0.9230884628173579
6.456953642384105,0.95137201680984
6.47682119205298,0.9791361331714182
6.496688741721854,1.0063213891243978
6.516556291390729,1.0328728527588007
6.5364238410596025,1.0587395735215177
6.556291390728477,1.083874159540253
6.5761589403973515,1.1082324266865597
6.596026490066225,1.1317731069261525
6.6158940397351,1.1544576057107738
6.635761589403973,1.176249799989273
6.655629139072848,1.197115869914226
6.675496688741721,1.2170241585484447
6.695364238410596,1.235945054879514
6.715231788079469,1.253850896271364
6.735099337748344,1.2707158871532713
6.754966887417219,1.286516031296384
6.774834437086093,1.301229075478976
6.794701986754967,1.314834462712908
6.814569536423841,1.3273132935099679
6.8344370860927155,1.3386482939202238
6.854304635761589,1.3488237892857335
6.874172185430464,1.3578256828288757
6.894039735099337,1.3656414383429647
6.913907284768212,1.3722600663779863
6.933774834437086,1.3776721134216596
6.95364238410596,1.3818696536677666
6.973509933774834,1.3848462830447086
6.993377483443709,1.3865971152483154
7.013245033112583,1.3871187795871864
7.033112582781457,1.3864094205081021
7.052980132450331,1.3844686987247286
7.072847682119205,1.381297793926764
7.0927152317880795,1.3768994091000222
7.112582781456954,1.3712777765430737
7.132450331125828,1.3644386657230125
7.152317880794702,1.3563893931752398
7.172185430463576,1.3471388347199091
7.19205298013245,1.3366974403446115
7.211920529801324,1.3250772521898275
7.231788079470198,1.3122919261755774
7.251655629139073,1.2983567579258777
7.271523178807947,1.2832887137886322
7.291390728476822,1.2671064679160806
7.311258278145695,1.2498304465726924
7.33112582781457,1.231482881081061
7.3509933774834435,1.2120878711126557
7.370860927152318,1.1916714603920073
7.390728476821192,1.1702617273263538
7.410596026490066,1.1478888936188183
7.430463576158941,1.1245854545971277
7.450331125827814,1.1003863358248362
7.470198675496689,1.0753290815988223
7.490066225165562,1.0494540822261589
7.509933774834438,1.022804848579845
7.52980132450331,0.9954283444338465
7.549668874172186,0.9673753895681616
7.569536423841059,0.9387011497252826
7.589403973509934,0.9094657333151875
7.6092715231788075,0.8797349194348971
7.629139072847682,0.8495810474012161
7.649006622516557,0.8190841046352841
7.66887417218543,0.7883330572756035
7.6887417218543055,0.7574274759024403
7.708609271523178,0.7264795161897216
7.728476821192054,0.695616319004948
7.748344370860927,0.6649828923537111
7.768211920529802,0.6347455212652905
7.788079470198675,0.6050957087640948
7.80794701986755,0.576254561516661
7.827814569536423,0.5484773681898211
7.847682119205298,0.5220578391240611
7.8675496688741715,0.49733104607921885
7.887417218543046,0.4746735147946313
7.907284768211921,0.45449826816272454
7.927152317880795,0.43724216912948655
7.9470198675496695,0.42334320787919066
7.966887417218543,0.4132071178574426
7.986754966887418,0.4071662645107697
8.006622516556291,0.4054383370173313
8.026490066225167,0.40809557748909364
8.046357615894038,0.41505421293432665
8.066225165562914,0.426087674535804
8.086092715231787,0.44085905601311376
8.105960264900663,0.45896273661835324
8.125827814569536,0.4799646822863754
8.14569536423841,0.5034344783800295
8.165562913907285,0.5289666861315567
8.185430463576159,0.5561924396075082
8.205298013245034,0.5847837171121435
8.225165562913906,0.6144528872162435
8.245033112582782,0.64494963740058
8.264900662251655,0.676056743365218
8.28476821192053,0.7075855736033939
8.304635761589404,0.7393718174090181
8.324503311258278,0.7712716632090221
8.344370860927151,0.803158500713666
8.364238410596027,0.8349201381972061
8.3841059602649,0.8664564873769562
8.403973509933774,0.8976776541375887
8.42384105960265,0.9285023721257771
8.443708609271523,0.9588567212112559
8.463576158940398,0.9886730801923527
8.483443708609272,1.0178892709400906
8.503311258278146,1.0464478584788803
8.52317880794702,1.0742955779116088
8.543046357615895,1.1013828645221626
8.562913907284768,1.127663467881019
8.582781456953642,1.1530941344493784
8.602649006622515,1.1776343461492509
8.62251655629139,1.2012461047616338
8.642384105960264,1.223893753940457
8.66225165562914,1.2455438321751056
8.682119205298013,1.2661649512764397
8.701986754966887,1.2857276959594808
8.721854304635762,1.3042045409009064
8.741721854304636,1.3215697822990342
8.76158940397351,1.3377994814910872
8.781456953642383,1.3528714186101272
8.801324503311259,1.3667650546133165
8.821192052980132,1.3794615002994741
8.841059602649008,1.3909434911687624
8.86092715231788,1.401195367172434
8.880794701986755,1.4102030565622317
8.90066225165563,1.4179540631846492
8.920529801324504,1.424437456679705
8.940397350993377,1.4296438651412862
8.960264900662251,1.433565469880158
8.980132450331126,1.4361960020038902
9.0,1.4375307405932491
9.019867549668875,1.4375665123130805
9.039735099337747,1.436301692350812
9.059602649006623,1.433736206626697
9.079470198675496,1.429871535271064
9.099337748344372,1.4247107174141147
9.119205298013245,1.4182583573864898
9.139072847682119,1.4105206324845134
9.158940397350994,1.4015053025148603
9.178807947019868,1.391221721401091
9.198675496688743,1.379680851211621
9.218543046357615,1.3668952790578195
9.23841059602649,1.3528792374149399
9.258278145695364,1.3376486285426397
9.27814569536424,1.3212210538290272
9.298013245033111,1.3036158490608938
9.317880794701987,1.2848541268392994
9.33774834437086,1.264958827623929
9.357615894039736,1.2439547812154392
9.37748344370861,1.221868780886748
9.397350993377483,1.1987296728735881
9.417218543046358,1.1745684645575987
9.437086092715232,1.1494184554559028
9.456953642384107,1.1233153961133286
9.47682119205298,1.0962976812348397
9.496688741721854,1.0684065849691258
9.516556291390728,1.039686548256199
9.536423841059603,1.0101855307048184
9.556291390728477,0.9799554427272124
9.57615894039735,0.9490526778303241
9.596026490066224,0.9175387702924351
9.6158940397351,0.8854812102455586
9.635761589403973,0.8529544567831887
9.655629139072847,0.8200412004830486
9.675496688741722,0.7868339399719294
9.695364238410596,0.7534369529175354
9.715231788079471,0.7199687595560231
9.735099337748345,0.6865651946755759
9.754966887417218,0.6533832173476922
9.774834437086092,0.6206055870721509
9.794701986754967,0.5884465018026995
9.814569536423841,0.5571581938217908
9.834437086092716,0.5270382568840113
9.854304635761588,0.49843704671964173
9.874172185430464,0.47176375031171924
9.894039735099337,0.44748858118613394
9.913907284768213,0.42613712620777094
9.933774834437086,0.4082716882429694
9.95364238410596,0.3944548198893371
9.973509933774835,0.38519396847295045
9.993377483443709,0.38087420776836645
10.013245033112582,0.38169586034462233
10.033112582781456,0.3876384614404117
10.052980132450331,0.3984655243640161
10.072847682119205,0.41376801706239413
10.09271523178808,0.4330293852411178
10.112582781456952,0.45569092474890666
10.132450331125828,0.4812028722186547
10.152317880794701,0.509056440495979
10.172185430463577,0.538799091578826
10.192052980132452,0.5700381128343182
10.211920529801324,0.6024374110777255
10.2317880794702,0.6357111320212218
10.251655629139073,0.6696163367211724
10.271523178807948,0.7039459299006634
10.29139072847682,0.7385223758428145
10.311258278145695,0.7731923657493777
10.331125827814569,0.8078224133383387
10.350993377483444,0.8422952750062268
10.370860927152318,0.8765070669081714
10.390728476821192,0.9103649545003074
10.410596026490065,0.9437853045215405
10.43046357615894,0.976692206985944
10.450331125827816,1.0090162917594276
10.470198675496688,1.0406937792064426
10.490066225165563,1.0716657168305759
10.509933774834437,1.1018773639123258
10.529801324503312,1.131277694179899
10.549668874172186,1.1598189928854465
10.56953642384106,1.187456529632293
10.589403973509933,1.2141482921909894
10.609271523178808,1.2398547695882332
10.629139072847682,1.2645387751380979
10.649006622516556,1.2881653019574917
10.66887417218543,1.3107014049811256
