Time (s),Filtered Signal
0.0,-0.06410495882544608
0.033370165745856356,-0.16969818292769748
0.06674033149171271,-0.23916209973187075
0.10011049723756907,-0.25099720514555174
0.13348066298342542,-0.20496419542358038
0.16685082872928178,-0.11974274840885213
0.20022099447513814,-0.02278704458735562
0.2335911602209945,0.0620289478229813
0.26696132596685085,0.12286583503151502
0.30033149171270723,0.16107142581118836
0.33370165745856356,0.18580703477212263
0.3670718232044199,0.20615709696586312
0.4004419889502763,0.22538189036056996
0.43381215469613266,0.24001417609066333
0.467182320441989,0.24336093486051952
0.5005524861878453,0.23055797218427176
0.5339226519337017,0.20189077881503167
0.5672928176795581,0.16261600529561146
0.6006629834254145,0.11986574236232841
0.6340331491712707,0.07892480258004668
0.6674033149171271,0.0413030134309145
0.7007734806629835,0.005656656704864222
0.7341436464088398,-0.029300625627134327
0.7675138121546962,-0.06201237269605191
0.8008839779005525,-0.08739910182123596
0.8342541436464089,-0.09887969790725205
0.8676243093922653,-0.09194628729624303
0.9009944751381216,-0.06711761212837934
0.934364640883978,-0.030410827039705015
0.9677348066298344,0.009065536423438271
1.0011049723756906,0.043072480593377344
1.0344751381215471,0.06749712356607522
1.0678453038674034,0.08307907317279802
1.1012154696132597,0.09332910041588964
1.1345856353591162,0.10108972248322114
1.1679558011049724,0.10602557747515037
1.201325966850829,0.10473446378250796
1.2346961325966852,0.09346653732981106
1.2680662983425415,0.0716654688814737
1.301436464088398,0.04383305343552251
1.3348066298342542,0.018092710167939858
1.3681767955801105,0.0018426454822952998
1.401546961325967,-0.0031463726120324344
1.4349171270718233,-0.0031625711322155296
1.4682872928176796,-0.010636744986945779
1.501657458563536,-0.038413188417037815
1.5350276243093923,-0.09304972607708155
1.5683977900552488,-0.17078328573254742
1.601767955801105,-0.25849625886765415
1.6351381215469614,-0.3392773660423502
1.6685082872928179,-0.39956433619258724
1.7018784530386741,-0.43395653305372767
1.7352486187845306,-0.4451815613233651
1.768618784530387,-0.4395896412562831
1.8019889502762432,-0.42120306525965917
1.8353591160220997,-0.38815965051615536
1.868729281767956,-0.33386497977626606
1.9020994475138122,-0.2522315671890918
1.9354696132596687,-0.1438101609609753
1.968839779005525,-0.01895831682748655
2.0022099447513813,0.10416561155235676
2.0355801104972375,0.20603763020230859
2.0689502762430942,0.2733678912532735
2.1023204419889505,0.303968703586686
2.135690607734807,0.3065398263696809
2.169060773480663,0.29576028697438334
2.2024309392265193,0.28542051112161104
2.235801104972376,0.28304807815254
2.2691712707182323,0.2883551680837983
2.3025414364640886,0.2956517550677397
2.335911602209945,0.2983732387073081
2.369281767955801,0.29306975591278767
2.402651933701658,0.28087462627013066
2.436022099447514,0.2660966858190999
2.4693922651933704,0.2531993107409974
2.5027624309392267,0.24416617711409427
2.536132596685083,0.23779256007813407
2.5695027624309392,0.23114555683710028
2.602872928176796,0.2220984438820078
2.636243093922652,0.21121550090275634
2.6696132596685085,0.2016573584470861
2.7029834254143648,0.19694359253145208
2.736353591160221,0.19771366163056628
2.7697237569060777,0.199388884751918
2.803093922651934,0.19244366901350507
2.8364640883977903,0.16585828025668425
2.8698342541436466,0.11268197600803576
2.903204419889503,0.035196654037086675
2.936574585635359,-0.05330945586016712
2.969944751381216,-0.13218152706851385
3.003314917127072,-0.18213848056168871
3.0366850828729284,-0.19590904107841697
3.0700552486187846,-0.185512088748425
3.103425414364641,-0.18115971106365636
3.1367955801104976,-0.2199004900516999
3.170165745856354,-0.3273269372358553
3.20353591160221,-0.5006035971041031
3.2369060773480665,-0.7027777978701492
3.2702762430939227,-0.8748077680288732
3.3036464088397794,-0.9634275099958551
3.3370165745856357,-0.953268145425886
3.370386740331492,-0.8858166330800861
3.4037569060773483,-0.8503288939475643
3.4371270718232045,-0.9436137199440361
3.4704972375690613,-1.2123866192179744
3.5038674033149175,-1.6053427304357826
3.537237569060774,-1.9637150257193032
3.57060773480663,-2.065149220110244
3.6039779005524863,-1.7106447982239705
3.6373480662983426,-0.8198537573655379
3.6707182320441993,0.510091974361335
3.7040883977900556,2.0149895445131616
3.737458563535912,3.3454566440145874
3.770828729281768,4.188301855762295
3.8041988950276244,4.375487404846707
3.837569060773481,3.9342402216906387
3.8709392265193374,3.0598205915653494
3.9043093922651937,2.028038919728676
3.93767955801105,1.0896674637654042
3.9710497237569062,0.39208761070085646
4.0044198895027625,-0.044339472670244615
4.037790055248619,-0.29547782424884667
4.071160220994475,-0.47183699829691644
4.104530386740332,-0.6587069152969973
4.1379005524861885,-0.8833148750131834
4.171270718232044,-1.1171985310130657
4.204640883977901,-1.3045296543540368
4.238011049723757,-1.3973311451238772
4.271381215469614,-1.3794672319890944
4.30475138121547,-1.2704920501296637
4.338121546961326,-1.1119738928685232
4.371491712707183,-0.9467537199455477
4.404861878453039,-0.8026318775478472
4.438232044198895,-0.687094082710884
4.471602209944752,-0.592628554789719
4.504972375690608,-0.5070545561186874
4.538342541436465,-0.42228475932120224
4.5717127071823205,-0.3375977111598585
4.605082872928177,-0.257486165678969
4.638453038674034,-0.18700221218230131
4.67182320441989,-0.12800087711968824
4.7051933701657465,-0.07816593245609937
4.738563535911602,-0.03257372938329997
4.771933701657459,0.01381933518492429
4.805303867403316,0.06442122537502273
4.8386740331491715,0.12069274401620723
4.872044198895028,0.18288026954533607
4.905414364640884,0.25080596789079024
4.938784530386741,0.3238880059332757
4.972154696132597,0.4002320092141086
5.005524861878453,0.4753641275674404
5.03889502762431,0.5415692804422473
5.072265193370166,0.5886651388832816
5.105635359116023,0.6064322446589075
5.1390055248618784,0.5880831490297592
5.172375690607735,0.5334579686068575
5.205745856353592,0.45044305634967446
5.239116022099448,0.3536154224628925
5.272486187845304,0.26019985137738144
5.30585635359116,0.18464964874922285
5.339226519337017,0.13394145554617648
5.372596685082874,0.10557194593135365
5.4059668508287295,0.0892141173889711
5.439337016574586,0.07143814813746387
5.472707182320442,0.04151977100516601
5.506077348066299,-0.0041799123930923625
5.5394475138121555,-0.06115603683988928
5.572817679558011,-0.11937012906619868
5.606187845303868,-0.16814798945680787
5.639558011049724,-0.20095718427756143
5.672928176795581,-0.21785911118194676
5.706298342541437,-0.22471585327302926
5.739668508287293,-0.22985817563246577
5.77303867403315,-0.24001084638853518
5.806408839779006,-0.2573364983900766
5.839779005524862,-0.2786429904970223
5.873149171270718,-0.2966994633434689
5.906519337016575,-0.3028345553067568
5.939889502762432,-0.28979643984395753
5.9732596685082875,-0.2540701283592491
6.006629834254144,-0.19714361833673197
6.04,-0.12542215225245537
6.073370165745857,-0.04870261829170013
6.1067403314917135,0.022494691579217217
6.140110497237569,0.07991565003115848
6.173480662983426,0.11970831290740323
6.206850828729282,0.14271342408219925
6.240220994475139,0.152724095029691
6.273591160220995,0.15360359433383244
6.306961325966851,0.14685655948644377
6.340331491712708,0.1310808316436397
6.373701657458564,0.1036834076947267
6.40707182320442,0.06389196017109583
6.440441988950277,0.015242490480597842
6.473812154696133,-0.034082451760146314
6.50718232044199,-0.0735257975631702
6.5405524861878455,-0.09402488301237039
6.573922651933702,-0.09154032400084783
6.607292817679559,-0.06847777800100278
6.640662983425415,-0.032391851243996794
6.674033149171271,0.007189783240306892
6.707403314917127,0.04209436745111323
6.740773480662984,0.06741267618276876
6.774143646408841,0.08145557182442244
6.8075138121546965,0.08445430375586595
6.840883977900553,0.07733754021690967
6.874254143646409,0.06158618463898304
6.907624309392266,0.04013095264663
6.9409944751381225,0.01825415123914862
6.974364640883978,0.0032109826223148874
7.007734806629835,0.002023786677207026
7.041104972375691,0.01818673953288181
7.074475138121548,0.049013836235315224
7.107845303867403,0.08537169323295499
7.14121546961326,0.1144560409147321
7.174585635359117,0.12467107889356296
7.207955801104973,0.11046630829934155
7.241325966850829,0.07487211452540225
7.274696132596685,0.028520119044580475
7.308066298342542,-0.01443855057994294
7.341436464088399,-0.041741097576740015
7.3748066298342545,-0.047501792087551044
7.408176795580111,-0.03407763099280636
7.441546961325967,-0.010794071786087265
7.474917127071824,0.009735747278312187
7.5082872928176805,0.01615404581008613
7.541657458563536,0.0020870091681273765
7.575027624309393,-0.0321251127596378
7.608397790055249,-0.08002788290940013
7.641767955801106,-0.1314548702353927
7.675138121546962,-0.1756564649847722
7.708508287292818,-0.20401712135858086
7.741878453038675,-0.21161292408962645
7.775248618784531,-0.1974785972693401
7.808618784530387,-0.1639820652984297
7.841988950276244,-0.11589285932263418
7.8753591160221,-0.05952684059814549
7.908729281767957,-0.001954232538989278
7.9420994475138125,0.04998380823494444
7.975469613259669,0.09095435496020252
8.008839779005525,0.11836720466731528
8.042209944751383,0.13289346778792668
8.075580110497238,0.13776682043272998
8.108950276243094,0.1370308734292276
8.14232044198895,0.13360291523511905
8.175690607734808,0.12821623336366061
8.209060773480664,0.11977768517528337
8.24243093922652,0.10677081285014516
8.275801104972377,0.08868545308502393
8.309171270718233,0.06652698094064943
8.342541436464089,0.04219184629752811
8.375911602209946,0.01734351140893739
8.409281767955802,-0.007245285778734185
8.442651933701658,-0.031341741588677766
8.476022099447514,-0.054201278099123174
8.509392265193371,-0.07374824098170643
8.542762430939227,-0.08683705564600926
8.576132596685083,-0.09067986342272881
8.60950276243094,-0.08462237950838647
8.642872928176796,-0.07106150196265876
8.676243093922652,-0.054740259212245415
8.709613259668508,-0.04066497831857751
8.742983425414366,-0.0317971111908486
8.776353591160222,-0.027862608946724123
8.809723756906077,-0.02595518981632855
8.843093922651935,-0.02251420145965215
8.87646408839779,-0.01544053367492842
8.909834254143647,-0.005095520407224742
8.943204419889504,0.006297509957970046
8.97657458563536,0.016283188325727477
9.009944751381216,0.0236400900275264
9.043314917127072,0.028675777855516112
9.07668508287293,0.032211829720168915
9.110055248618785,0.034086884619489416
9.143425414364641,0.03242247786070278
9.176795580110499,0.02445479342770235
9.210165745856354,0.008675453745381008
9.24353591160221,-0.012991547427317332
9.276906077348068,-0.03453751824992108
9.310276243093924,-0.04759888287179507
9.34364640883978,-0.0450873214667684
9.377016574585635,-0.02503581448011018
9.410386740331493,0.007373031383803948
9.443756906077349,0.04089407053758772
9.477127071823205,0.06226496722398582
9.510497237569062,0.061612356532445275
9.543867403314918,0.036904369805905606
9.577237569060774,-0.004513112732061369
9.610607734806631,-0.048010344739322086
9.643977900552487,-0.07657192357249365
9.677348066298343,-0.07657928906903018
9.710718232044199,-0.042381630999219336
9.744088397790057,0.021740982445207675
9.777458563535912,0.10253353246791315
9.810828729281768,0.18106602887865847
9.844198895027626,0.2374046387815816
9.877569060773482,0.25563817310345793
9.910939226519337,0.2282325583792959
9.944309392265193,0.15858482428818102
9.97767955801105,0.060716411430137514
10.011049723756907,-0.044330924483122355
10.044419889502763,-0.1346200020009801
10.07779005524862,-0.19392714000321098
10.111160220994476,-0.21630423788110964
10.144530386740332,-0.20679748803709955
10.17790055248619,-0.1782001487987724
10.211270718232045,-0.14544608922278168
10.244640883977901,-0.12012819301255592
10.278011049723757,-0.10726839392233793
10.311381215469615,-0.10518454887847496
10.34475138121547,-0.10784297756838886
10.378121546961326,-0.10818091632570072
10.411491712707184,-0.10085558054891079
10.44486187845304,-0.08354871311259388
10.478232044198895,-0.056833242220335416
10.511602209944753,-0.02320430366543204
10.544972375690609,0.01402693576782535
10.578342541436465,0.05156090091297173
10.61171270718232,0.08659305743896539
10.645082872928178,0.11705360143842038
10.678453038674034,0.1416625881633824
10.71182320441989,0.15977703017816783
10.745193370165747,0.1710415688855994
10.778563535911603,0.17499864175390073
10.811933701657459,0.1709122688167197
10.845303867403315,0.1579775507083274
10.878674033149172,0.13585594788611768
10.912044198895028,0.10526832907919809
10.945414364640884,0.06834959628761539
10.978784530386742,0.028614950330896602
11.012154696132598,-0.009441014288351198
11.045524861878453,-0.04102937053786374
11.078895027624311,-0.06198413253099297
11.112265193370167,-0.06984715853517254
11.145635359116023,-0.06490579344398287
11.179005524861878,-0.050756993764118345
11.212375690607736,-0.03390977788864229
11.245745856353592,-0.02219424102428961
11.279116022099448,-0.02227968091117539
11.312486187845305,-0.03714838834868814
11.345856353591161,-0.06458582323688758
11.379226519337017,-0.09744803583109761
11.412596685082875,-0.12576078442437658
11.44596685082873,-0.13993523442963968
11.479337016574586,-0.13392219479475767
11.512707182320442,-0.10716011618637529
11.5460773480663,-0.06464856698794746
11.579447513812156,-0.015184564876177668
11.612817679558011,0.03152854826773314
11.646187845303869,0.06779215381312731
11.679558011049725,0.08977504601967987
11.71292817679558,0.09773993988333811
11.746298342541436,0.09476479518082939
11.779668508287294,0.08471008143018698
11.81303867403315,0.07041867801114134
11.846408839779006,0.05291555804354013
11.879779005524863,0.03185548689699318
11.91314917127072,0.0068993544889560795
11.946519337016575,-0.020709100034386294
11.979889502762433,-0.04722305410061744
12.013259668508288,-0.06677831198488986
12.046629834254144,-0.07320940133679979
12.08,-0.06272496920423118
12.113370165745858,-0.03629811024575525
12.146740331491714,-0.0005115979329045906
12.18011049723757,0.03388534212601523
12.213480662983427,0.05545636549886384
12.246850828729283,0.05632608204426847
12.280220994475139,0.03542468012011066
12.313591160220996,-0.0007425023767379513
12.346961325966852,-0.040272298174897164
12.380331491712708,-0.0702051940526264
12.413701657458564,-0.08129476720060423
12.447071823204421,-0.07123574859797167
12.480441988950277,-0.04498893217780073
12.513812154696133,-0.012066688315324016
12.54718232044199,0.01801106873366592
12.580552486187846,0.04001060363500206
12.613922651933702,0.05499397763567606
12.64729281767956,0.06902117758813119
12.680662983425416,0.08908236313498213
12.714033149171271,0.11819724524635265
12.747403314917127,0.15217064919819526
12.780773480662985,0.17986630296585432
12.81414364640884,0.1872614136480947
12.847513812154697,0.163670888716498
12.880883977900554,0.1072866669666905
12.91425414364641,0.027248608913426686
12.947624309392266,-0.059062036222351094
12.980994475138122,-0.13255820091429496
13.01436464088398,-0.17990989439305982
13.047734806629835,-0.19841512821550303
13.081104972375691,-0.19589904969720806
13.114475138121549,-0.18567869364677841
13.147845303867404,-0.17912327494347374
13.18121546961326,-0.17959110932295155
13.214585635359118,-0.1808337972456989
13.247955801104974,-0.17066159626325786
13.28132596685083,-0.1379649233859606
13.314696132596685,-0.07949064344779773
13.348066298342543,-0.002917682009890142
13.381436464088399,0.07537508581951433
13.414806629834255,0.13687701491735726
13.448176795580112,0.1688179273149211
13.481546961325968,0.16969040395628057
13.514917127071824,0.14981882372827024
13.548287292817681,0.12661228776722822
13.581657458563537,0.11658638706654047
13.615027624309393,0.12778909697104585
13.648397790055249,0.15615051128099755
13.681767955801106,0.18746159080632152
13.715138121546962,0.20399009417708525
13.748508287292818,0.19249783982625046
13.781878453038676,0.1498071994438905
13.815248618784532,0.08342425588599027
13.848618784530387,0.007338666746821647
13.881988950276245,-0.06444385930809975
13.9153591160221,-0.12315502621973477
13.948729281767957,-0.16685721339625062
13.982099447513813,-0.1982228198334937
14.01546961325967,-0.2204863419859311
14.048839779005526,-0.2343158813124284
14.082209944751382,-0.23741524940330674
14.11558011049724,-0.22675253676001705
14.148950276243095,-0.2016492925769079
14.182320441988951,-0.16553328797275063
14.215690607734807,-0.12511988570033353
14.249060773480664,-0.08745716832098707
14.28243093922652,-0.05659075040134532
14.315801104972376,-0.03180800923695119
14.349171270718234,-0.008459964911257533
14.38254143646409,0.019135899948153064
14.415911602209945,0.05435264392705521
14.449281767955803,0.09628759046612319
14.482651933701659,0.14015985594070327
14.516022099447515,0.17973114332994455
14.54939226519337,0.2103250254032857
14.582762430939228,0.23075034090029176
14.616132596685084,0.243092462101532
14.64950276243094,0.25053759656450714
14.682872928176797,0.25448089983045696
14.716243093922653,0.2525688391172577
14.749613259668509,0.23885726621680997
14.782983425414367,0.20620176988705224
14.816353591160222,0.14988487463621195
14.849723756906078,0.07085323296185542
14.883093922651934,-0.02294984593543802
14.916464088397792,-0.11790111719420439
14.949834254143648,-0.19833430332300644
14.983204419889503,-0.2512363214243356
15.016574585635361,-0.27030489502594823
15.049944751381217,-0.2578709456233347
15.083314917127073,-0.22394262109316368
15.116685082872928,-0.18266965903168467
15.150055248618786,-0.14749730991779322
15.183425414364642,-0.12681281598830482
15.216795580110498,-0.12172766455495646
15.250165745856355,-0.12677505550844367
15.283535911602211,-0.13305594456937375
15.316906077348067,-0.1323108835420112
15.350276243093925,-0.12007267380154353
15.38364640883978,-0.09664882643800952
15.417016574585636,-0.06586323266241764
15.450386740331492,-0.032584571549937554
15.48375690607735,-0.00048397163049263665
15.517127071823205,0.02896356883145212
15.550497237569061,0.056126399816875644
15.583867403314919,0.08216964933576684
15.617237569060775,0.10814844568165868
15.65060773480663,0.13466845497501134
15.683977900552488,0.16194953573475573
15.717348066298344,0.18980333323033716
15.7507182320442,0.21717016208973502
15.784088397790056,0.24131667496436127
15.817458563535913,0.2572565349696062
15.85082872928177,0.25811931187970727
15.884198895027625,0.23689616158397422
15.917569060773483,0.18928833752296795
15.950939226519338,0.11658239068794223
15.984309392265194,0.027052792199390954
16.01767955801105,-0.06525397885530627
16.051049723756908,-0.1443703897471884
16.084419889502765,-0.1975257435985124
16.11779005524862,-0.21931948189502218
16.151160220994477,-0.21300769307522271
16.18453038674033,-0.18828773522966252
16.21790055248619,-0.15666790414443227
16.251270718232046,-0.12667333019894178
16.2846408839779,-0.1011464007451518
16.318011049723758,-0.07775592912690603
16.351381215469615,-0.052145901889234736
16.38475138121547,-0.021817178204378073
16.418121546961327,0.011462713474524412
16.451491712707185,0.04204579972640434
16.48486187845304,0.06333425180809596
16.518232044198896,0.07158031176995629
16.551602209944754,0.0683697908571475
16.584972375690608,0.060278837793488506
16.618342541436466,0.055702011044620144
16.651712707182323,0.060396095851422416
16.685082872928177,0.07404542328798107
16.718453038674035,0.08971248650308204
16.751823204419892,0.09660781901372903
16.785193370165747,0.0849357531934901
16.818563535911604,0.05051725059641601
16.851933701657458,-0.0030053879729317287
16.885303867403316,-0.06538129101250365
16.918674033149173,-0.12371398626063392
16.952044198895027,-0.16722036801385495
16.985414364640885,-0.19056843466389306
17.018784530386743,-0.19443924970145068
17.052154696132597,-0.18344868348269527
17.085524861878454,-0.16285966651561917
17.118895027624312,-0.13593869153838245
