Frequency (Hz),Amplitude
0.0,1.9083180280725787
0.04,1.907827030203527
0.08,1.9063553764103554
0.12,1.9039070875712172
0.16,1.9004888699294704
0.19999999999999998,1.8961101222353807
0.24,1.8907829456861136
0.27999999999999997,1.8845221565987504
0.32,1.877345301723315
0.36,1.8692726760669125
0.39999999999999997,1.8603273430550296
0.44,1.8505351567990809
0.48,1.839924786168095
0.52,1.8285277402741804
0.5599999999999999,1.816378394873178
0.6,1.8035140190502568
0.64,1.7899748014021297
0.6799999999999999,1.7758038747386589
0.72,1.7610473381044942
0.76,1.7457542746615957
0.7999999999999999,1.7299767636743595
0.84,1.7137698844978526
0.88,1.6971917100872977
0.9199999999999999,1.6803032871240613
0.96,1.6631685993968068
1.0,1.645854510593832
1.04,1.6284306821700483
1.0799999999999998,1.6109694614701564
1.1199999999999999,1.5935457348480422
1.1600000000000001,1.5762367401598298
1.2,1.559121832772746
1.24,1.5422821991823465
1.28,1.525800512533813
1.3199999999999998,1.509760524872466
1.3599999999999999,1.4942465918789243
1.4,1.4793431272449653
1.44,1.4651339857711194
1.48,1.4517017767436429
1.52,1.4391271121636275
1.5599999999999998,1.4274877978879779
1.5999999999999999,1.4168579795699494
1.64,1.4073072592540858
1.68,1.3988998023179644
1.72,1.3916934578367453
1.76,1.3857389180236832
1.7999999999999998,1.3810789438247892
1.8399999999999999,1.3777476837281428
1.88,1.3757701111953746
1.92,1.375161602785824
1.9599999999999997,1.3759276741391158
2.0,1.3780638847971554
2.0399999999999996,1.3815559158178743
2.08,1.3863798167971035
2.12,1.3925024118469678
2.1599999999999997,1.3998818478209032
2.2,1.4084682630700707
2.2399999999999998,1.41820455156281
2.28,1.4290271954252223
2.3200000000000003,1.4408671388282008
2.36,1.4536506774716789
2.4,1.4673003404141194
2.44,1.4817357443224481
2.48,1.4968744040221633
2.5199999999999996,1.5126324871823604
2.56,1.5289255048037038
2.6,1.5456689326834128
2.6399999999999997,1.562778762073797
2.68,1.580171980260254
2.7199999999999998,1.5977669837440291
2.76,1.6154839281488158
2.8,1.6332450199315958
2.84,1.6509747555346974
2.88,1.6686001138419984
2.92,1.6860507077718412
2.96,1.7032589006182917
2.9999999999999996,1.7201598924015553
3.04,1.736691781054715
3.08,1.7527956027980325
3.1199999999999997,1.768415355562865
3.16,1.7834980088471784
3.1999999999999997,1.797993502928392
3.2399999999999998,1.8118547399370644
3.28,1.825037568911663
3.32,1.8375007666128864
3.36,1.8492060155757375
3.4,1.86011788061678
3.44,1.8702037847907143
3.4799999999999995,1.8794339856009081
3.52,1.8877815521092776
3.5599999999999996,1.8952223434591697
3.5999999999999996,1.9017349892159585
3.64,1.9073008718420996
3.6799999999999997,1.911904111552158
3.7199999999999998,1.915531553736914
3.76,1.9181727591013318
3.7999999999999994,1.9198199966265161
3.84,1.9204682394390045
3.88,1.920115163649936
3.9199999999999995,1.9187611502101256
3.96,1.9164092898129232
4.0,1.9130653908641753
4.04,1.9087379905250632
4.079999999999999,1.9034383688183982
4.12,1.8971805657702525
4.16,1.8899814015340675
4.199999999999999,1.8818604994133055
4.24,1.8728403116573575
4.28,1.8629461478527727
4.319999999999999,1.8522062056645658
4.36,1.8406516035975722
4.4,1.8283164153423948
4.4399999999999995,1.8152377051402189
4.4799999999999995,1.8014555634424256
4.5200000000000005,1.7870131419494708
4.56,1.7719566868850993
4.6,1.7563355690919606
4.640000000000001,1.740202309219264
4.68,1.7236125959090225
4.72,1.706625294472757
4.76,1.6893024430854922
4.8,1.6717092330118901
4.84,1.6539139688275954
4.88,1.635988004020919
4.92,1.618005646775878
4.96,1.6000440301769407
5.0,1.5821829405782466
5.039999999999999,1.5645045974977925
5.08,1.5470933781939216
5.12,1.5300354801343548
5.159999999999999,1.513418514963278
5.2,1.497331028401312
5.24,1.4818619418668817
5.279999999999999,1.467099913563004
5.319999999999999,1.4531326193825829
5.36,1.4400459572559716
5.3999999999999995,1.427923182446897
5.4399999999999995,1.4168439856694082
5.48,1.4068835305371812
5.52,1.3981114714669514
5.56,1.3905909773636405
5.6,1.3843777897909872
5.64,1.3795193464469044
5.68,1.3760540012354106
5.72,1.3740103707848395
5.76,1.373406833797596
5.8,1.3742512042264778
5.84,1.3765405922668434
5.879999999999999,1.3802614590366669
5.92,1.3853898622288436
5.96,1.3918918816637096
5.999999999999999,1.3997242062153643
6.04,1.408834857590063
6.08,1.4191640222773485
6.119999999999999,1.4306449608437573
6.16,1.443204963552901
6.2,1.4567663228540055
6.239999999999999,1.4712472962332477
6.279999999999999,1.486563036850818
6.32,1.5026264738602075
6.359999999999999,1.5193491289321248
6.3999999999999995,1.536641859956692
6.44,1.5544155269334465
6.4799999999999995,1.572581578525176
6.52,1.5910525605733565
6.56,1.60974255004015
6.6,1.628567519392813
6.64,1.6474456374493056
6.68,1.666297513245874
6.72,1.685046389658595
6.76,1.703618293399515
6.8,1.7219421476931853
6.84,1.7399498534892792
6.88,1.7575763445363326
6.92,1.7747596210749201
6.959999999999999,1.7914407663374134
7.0,1.8075639494896896
7.04,1.8230764181325059
7.08,1.8379284830070712
7.119999999999999,1.8520734971239532
7.16,1.8654678311593906
7.199999999999999,1.878070846636596
7.239999999999999,1.8898448681287705
7.28,1.9007551554826947
7.32,1.9107698768616397
7.359999999999999,1.919860083240419
7.3999999999999995,1.927999684849438
7.4399999999999995,1.9351654299541718
7.4799999999999995,1.9413368862684748
7.52,1.946496425230609
7.5600000000000005,1.9506292093174786
7.599999999999999,1.9537231825317485
7.64,1.9557690641668313
7.68,1.9567603459332783
7.719999999999999,1.956693292515374
7.76,1.9555669456169458
7.800000000000001,1.9533831315487487
7.839999999999999,1.950146472404935
7.88,1.9458644008715413
7.92,1.940547178703887
7.959999999999999,1.934207918900889
8.0,1.926862611590803
8.040000000000001,1.9185301536223751
8.08,1.9092323818266934
8.12,1.898994109874209
8.159999999999998,1.887843168596892
8.2,1.87581044957311
8.24,1.8629299516791347
8.28,1.8492388301916582
8.32,1.8347774478754644
8.36,1.8195894273040294
8.399999999999999,1.8037217034321535
8.44,1.7872245751626639
8.48,1.7701517543167862
8.52,1.7525604100243801
8.56,1.734511206089443
8.6,1.7160683283546172
8.639999999999999,1.6972994984842549
8.68,1.678275969910758
8.72,1.659072500952331
8.76,1.6397672993262855
8.8,1.6204419314780432
8.84,1.6011811893593721
8.879999999999999,1.5820729065751291
8.92,1.56320771524809
8.959999999999999,1.5446787346169373
9.0,1.5265811823943765
9.040000000000001,1.5090119003961355
9.079999999999998,1.4920687870430591
9.12,1.475850131171048
9.16,1.4604538442716717
9.2,1.445976591903578
9.24,1.432512829567601
9.280000000000001,1.420153753738992
9.32,1.4089861847911311
9.36,1.3990914048858445
9.399999999999999,1.3905439800738417
9.44,1.3834106012646892
9.48,1.3777489827532026
9.52,1.37360685901131
9.559999999999999,1.3710211199662257
9.6,1.3700171216896708
9.639999999999999,1.370608203304335
9.68,1.3727954322850968
9.72,1.376567589820099
9.76,1.3819013963769826
9.8,1.388761966105785
9.84,1.3971034682134038
9.879999999999999,1.4068699648354226
9.92,1.417996388828632
9.959999999999999,1.430409621614655
10.0,1.4440296307027245
10.04,1.4587706285059574
10.079999999999998,1.4745422180369538
10.12,1.4912504964125868
10.16,1.5087990931841433
10.2,1.5270901267657058
10.24,1.54602506819488
10.280000000000001,1.5655055067907113
10.319999999999999,1.5854338167711917
10.36,1.605713727469895
10.4,1.6262508024558273
10.44,1.6469528346833784
10.48,1.6677301658939927
10.52,1.6884959389875673
10.559999999999999,1.7091662921132253
10.6,1.7296605029186318
10.639999999999999,1.7499010908540056
10.68,1.769813884739358
10.72,1.789328062043423
10.76,1.8083761655428225
10.799999999999999,1.8268941022688943
10.84,1.8448211289322543
10.879999999999999,1.862099827358167
10.92,1.8786760728760943
10.96,1.894498998088003
11.0,1.9095209539898452
11.04,1.9236974700361422
11.08,1.9369872144129152
11.12,1.9493519555135446
11.16,1.960756525389316
11.2,1.9711687857650073
11.24,1.9805595970647576
11.28,1.9889027907782593
11.319999999999999,1.996175145408995
11.36,2.002356366178373
11.4,2.007429068611035
11.44,2.0113787660919025
11.48,2.014193861463396
11.52,2.0158656427189845
11.559999999999999,2.0163882828440873
11.6,2.015758843856755
11.64,2.0139772851056077
11.68,2.011046475890729
11.72,2.006972212482442
11.759999999999998,2.0017632396221385
11.799999999999999,1.9954312765969189
11.84,1.9879910479840375
11.879999999999999,1.9794603191604874
11.92,1.969859936664875
11.96,1.9592138734813755
11.999999999999998,1.94754927928514
12.04,1.9348965356423313
12.08,1.9212893160916382
12.12,1.906764650942504
12.16,1.891362996503129
12.200000000000001,1.8751283082913897
12.239999999999998,1.8581081175767213
12.28,1.8403536103418785
12.32,1.8219197074302937
12.36,1.8028651442474877
12.4,1.7832525479015573
12.44,1.7631485090887604
12.479999999999999,1.7426236453437611
12.52,1.7217526514745238
12.559999999999999,1.7006143320844267
12.6,1.679291610052886
12.64,1.6578715037138194
12.68,1.6364450642661383
12.719999999999999,1.6151072637175248
12.76,1.5939568224722063
12.799999999999999,1.5730959646232785
12.84,1.5526300882313848
12.88,1.5326673375301405
12.92,1.5133180642924262
12.959999999999999,1.4946941667435467
12.999999999999998,1.4769082966471985
13.04,1.4600729287304655
13.08,1.4442992916107051
13.12,1.4296961658930585
13.16,1.416368563022458
13.2,1.4044163074944203
13.239999999999998,1.393932554617465
13.28,1.3850022854017185
13.32,1.3777008283536047
13.36,1.3720924639132561
13.4,1.368229169948066
13.44,1.3661495652956854
13.479999999999999,1.3658781024061843
13.52,1.367424549764326
13.559999999999999,1.3707837906592295
13.6,1.3759359482227584
13.64,1.3828468290695823
13.68,1.3914686610728104
13.719999999999999,1.4017410864076214
13.76,1.4135923602367044
13.799999999999999,1.426940699018137
13.84,1.4416957205316392
13.88,1.4577599199570337
13.919999999999998,1.4750301319145092
13.959999999999999,1.4933989362786384
14.0,1.5127559747448407
14.04,1.53298915458613
14.08,1.5539857250064975
14.120000000000001,1.5756332194233647
14.16,1.5978202635761671
14.2,1.6204372544452126
14.239999999999998,1.6433769186136782
14.28,1.666534761060783
14.32,1.6898094166393276
14.36,1.7131029168902143
14.399999999999999,1.7363208845995477
14.44,1.759372667806979
14.479999999999999,1.7821714239920625
14.52,1.804634164030708
14.56,1.8266817643254694
14.6,1.8482389543425652
14.64,1.8692342856826214
14.68,1.889600087799875
14.719999999999999,1.9092724145809512
14.76,1.9281909852034511
14.799999999999999,1.9462991220146484
14.84,1.9635436875946288
14.879999999999999,1.9798750226870079
14.919999999999998,1.995246886283676
14.959999999999999,2.009616398827217
15.0,2.0229439892354266
15.04,2.0351933462473557
15.079999999999998,2.0463313744310003
15.120000000000001,2.0563281550713186
15.159999999999998,2.06515691206777
15.199999999999998,2.072793982906423
15.24,2.079218794729363
15.28,2.084413845498603
15.319999999999999,2.0883646902400166
15.36,2.09105993235249
15.399999999999999,2.092491219975738
15.439999999999998,2.092653247425158
15.48,2.0915437617225705
15.52,2.0891635742753825
15.559999999999999,2.085516577783123
15.600000000000001,2.080609768477726
15.639999999999999,2.0744532738309167
15.679999999999998,2.0670603858880003
15.72,2.0584476004096177
15.76,2.0486346620208185
15.799999999999999,2.0376446155772334
15.84,2.025503863958939
15.879999999999999,2.0122422324903644
15.919999999999998,1.9978930401552997
15.96,1.9824931777247845
16.0,1.9660831928365472
16.04,1.9487073819498075
16.080000000000002,1.9304138889406461
16.12,1.9112548098893287
16.16,1.891286303330223
16.200000000000003,1.8705687048723887
16.24,1.8491666446385635
16.279999999999998,1.8271491653934924
16.319999999999997,1.8045898385208812
16.36,1.7815668741411161
16.4,1.7581632206216982
16.439999999999998,1.7344666475043704
16.48,1.7105698044491955
16.52,1.6865702471813915
16.56,1.662570419643537
16.6,1.6386775796521227
16.64,1.6150036534176535
16.68,1.5916650024388925
16.72,1.5687820847096863
16.759999999999998,1.5464789911253911
16.799999999999997,1.5248828377564165
16.84,1.5041229956341597
16.88,1.4843301422720314
16.919999999999998,1.46563512371521
16.96,1.4481676228046172
17.0,1.4320546387256565
17.04,1.4174187947119758
17.080000000000002,1.4043765045580618
17.12,1.3930360435080729
17.16,1.3834955838334855
17.2,1.3758412683176762
17.24,1.3701454040581027
17.279999999999998,1.3664648626798115
17.32,1.3648397698491774
17.36,1.3652925562611058
17.4,1.3678274244270223
17.44,1.3724302620646818
17.48,1.379069006054952
17.52,1.3876944337098576
17.56,1.3982413334783614
17.6,1.410629987740861
17.64,1.4247678877012375
17.68,1.4405515952160919
17.72,1.4578686683118232
17.759999999999998,1.4765995749186955
17.799999999999997,1.4966195312849493
17.84,1.5178002157594468
17.88,1.5400113234257542
17.919999999999998,1.5631219410485933
17.96,1.587001734001615
18.0,1.6115219467566406
18.04,1.6365562259713669
18.080000000000002,1.6619812803287504
18.12,1.6876773943463679
18.159999999999997,1.7135288147632841
18.2,1.739424028220912
18.24,1.7652559481535008
18.279999999999998,1.7909220274113524
18.32,1.8163243114141923
18.36,1.8413694447675837
18.4,1.8659686424129762
18.44,1.890037634613635
18.48,1.9134965934622423
18.52,1.936270047158302
18.560000000000002,1.9582867870550174
18.6,1.9794797714112744
18.64,1.9997860288925688
18.679999999999996,2.019146564128537
18.72,2.037506267035981
18.759999999999998,2.054813827135218
18.799999999999997,2.071021653707818
18.84,2.0860858023476223
18.88,2.0999659082312045
18.919999999999998,2.112625126265165
18.96,2.12403007814594
19.0,2.1341508062832317
19.04,2.142960734484646
19.080000000000002,2.1504366352688846
19.119999999999997,2.1565586036643993
19.159999999999997,2.1613100373544296
19.2,2.1646776230459124
19.24,2.1666513289647034
19.279999999999998,2.1672244034123325
19.32,2.1663933793571375
19.36,2.164158085074662
19.4,2.1605216608966415
19.44,2.1554905821742882
19.48,2.1490746886082825
19.52,2.141287220144257
19.560000000000002,2.1321448596765946
19.6,2.121667782844566
19.639999999999997,2.109879715239699
19.68,2.096807997371056
19.72,2.082483657751136
19.759999999999998,2.0669414944663074
19.8,2.050220165576453
19.84,2.032362288642713
19.88,2.013414549601302
19.919999999999998,1.9934278210756071
19.96,1.9724572900355708
20.0,1.9505625944573077
20.04,1.9278079682890308
20.08,1.904262393569724
20.119999999999997,1.8799997579493306
20.159999999999997,1.8550990150950182
20.2,1.8296443445056396
20.24,1.8037253060627423
20.279999999999998,1.7774369831888959
20.32,1.7508801067343251
20.36,1.7241611496525366
20.4,1.6973923801541302
20.44,1.670691858372428
20.48,1.644183358705932
20.52,1.6179961970489727
20.560000000000002,1.5922649392911274
20.599999999999998,1.567128965061032
20.639999999999997,1.5427318591255663
20.68,1.5192206026590183
20.72,1.496744538396878
20.759999999999998,1.475454088167298
20.8,1.4554992091046999
20.84,1.4370275864942874
20.88,1.4201825768497864
20.92,1.4051009341542404
20.96,1.3919103741727235
21.0,1.3807270545670305
21.04,1.3716530696450013
21.08,1.3647740748862935
21.119999999999997,1.3601571647524646
21.159999999999997,1.3578491251055858
21.2,1.3578751674108134
21.24,1.3602382260850197
21.279999999999998,1.3649188650908546
21.32,1.3718757990699473
21.36,1.3810469929000155
21.4,1.3923512666021556
21.44,1.4056903042234645
21.48,1.4209509483114975
21.52,1.4380076566130988
21.56,1.4567250036169912
21.599999999999998,1.4769601241349193
21.639999999999997,1.4985650162143018
21.68,1.5213886431716992
21.72,1.545278796739404
21.759999999999998,1.5700837032467159
21.8,1.5956533712193524
21.84,1.6218406912966625
21.88,1.6485023080089123
21.92,1.6754992881608173
21.96,1.7026976129573488
22.0,1.7299685212610458
22.04,1.7571887301251874
22.08,1.7842405565531265
22.119999999999997,1.8110119617268747
22.16,1.837396536053906
22.2,1.8632934405259445
22.24,1.8886073172122633
22.28,1.9132481793049438
22.32,1.937131289030944
22.36,1.960177029951637
22.4,1.9823107786695213
22.44,2.0034627797293387
22.48,2.023568026504586
22.519999999999996,2.0425661500689936
22.56,2.0604013174334623
22.599999999999998,2.0770221400540216
22.639999999999997,2.092381593159971
22.68,2.1064369461906876
22.72,2.1191497044468877
22.759999999999998,2.1304855619407728
22.8,2.1404143653573366
22.84,2.1489100890052275
22.88,2.155950820631582
22.92,2.161518757994386
22.96,2.1656002161223085
23.0,2.168185645241748
23.04,2.1692696594092964
23.08,2.1688510759526802
23.119999999999997,2.166932965890794
23.16,2.163522715571224
23.2,2.158632099828384
23.24,2.1522773670237796
23.28,2.1444793363775503
23.32,2.1352635080330575
23.36,2.1246601863066727
23.400000000000002,2.112704616556037
23.44,2.0994371360419657
23.479999999999997,2.0849033390488705
23.519999999999996,2.0691542563521104
23.56,2.052246548857347
23.599999999999998,2.0342427148658757
23.639999999999997,2.0152113099114364
23.68,1.995227177436917
23.72,1.9743716876955
23.759999999999998,1.9527329811275
23.8,1.930406211036391
23.84,1.907493778618004
23.88,1.8841055512426153
23.92,1.8603590523166011
23.96,1.8363796080453727
23.999999999999996,1.812300433000485
24.04,1.7882626326323523
24.08,1.7644150969090617
24.119999999999997,1.7409142553436174
24.16,1.7179236601645722
24.2,1.6956133618028297
24.24,1.674159039882094
24.28,1.6537408543261642
24.32,1.6345419859392085
24.36,1.6167468447702107
24.400000000000002,1.6005389384617306
24.439999999999998,1.5860984119347254
24.479999999999997,1.5735992938552568
24.52,1.563206513158688
24.56,1.5550727782273503
24.599999999999998,1.5493354388798486
24.64,1.5461134731709154
24.68,1.5455047530189863
24.72,1.5475837414391542
24.759999999999998,1.5523997577511255
24.8,1.5599759158591748
24.84,1.570308797345097
24.88,1.5833688706298477
24.92,1.5991016161158937
24.959999999999997,1.6174292713991356
24.999999999999996,1.638253075601112
25.04,1.6614558708522655
25.08,1.6869049127758988
25.119999999999997,1.714454749068756
25.16,1.7439500429237065
25.2,1.7752282422706671
25.24,1.8081220227940178
25.28,1.8424614591678403
25.32,1.8780759025851352
25.36,1.9147955620677397
25.4,1.9524528017145713
25.439999999999998,1.9908831761136252
25.479999999999997,2.0299262321620137
25.52,2.0694261082720327
25.56,2.1092319621996203
25.599999999999998,2.1491982572702577
25.64,2.189184934235633
25.68,2.229057492877773
25.72,2.2686870041581586
25.76,2.3079500704445706
25.8,2.346728748300465
25.84,2.3849104455810504
25.880000000000003,2.422387802186266
25.919999999999998,2.459058561777088
25.959999999999997,2.494825440050738
25.999999999999996,2.5295959937615136
26.04,2.563282493531062
26.08,2.5958018025782703
26.119999999999997,2.6270752627778147
26.16,2.6570285888953364
26.2,2.6855917714177404
26.24,2.712698988072866
26.28,2.73828852389414
26.32,2.762302699513661
26.36,2.7846878072482935
26.4,2.8053940544645832
26.439999999999998,2.824375513661594
26.479999999999997,2.8415900786871053
26.52,2.8569994264971452
26.56,2.8705689838760646
26.599999999999998,2.882267898550916
26.64,2.892069014157082
26.68,2.8999488485393425
26.72,2.9058875749026005
26.76,2.9098690053578853
26.8,2.9118805764409617
26.84,2.911913336212876
26.88,2.909961932582505
26.919999999999998,2.906024602521503
26.959999999999997,2.900103161870927
27.0,2.892202995466371
27.04,2.88233304733487
27.08,2.870505810741536
27.119999999999997,2.8567373178873487
27.16,2.841047129081454
27.2,2.8234583212319406
27.24,2.8039974755179062
27.28,2.782694664123227
27.32,2.759583435928251
27.36,2.73470080106973
27.4,2.7080872142915773
27.439999999999998,2.6797865570186366
27.479999999999997,2.6498461180935333
27.52,2.6183165731204956
27.56,2.5852519623610526
27.599999999999998,2.5507096671225504
27.64,2.514750384571395
27.68,2.4774381008868223
27.72,2.438840062647289
27.76,2.3990267463068218
27.8,2.3580718255724893
27.839999999999996,2.3160521364316935
27.88,2.273047639497144
27.919999999999998,2.229141379233493
27.959999999999997,2.1844194394975758
28.0,2.1389708946583887
28.04,2.0928877553567493
28.08,2.0462649077098023
28.12,1.9992000444542763
28.16,1.951793586145256
