Time (s),Filtered Signal
0.0,-0.06272901648500963
0.0334075723830735,-0.1766813947053525
0.066815144766147,-0.27669156555047675
0.1002227171492205,-0.35034841137726647
0.133630289532294,-0.3875513459529051
0.1670378619153675,-0.3831445503898603
0.200445434298441,-0.3396085246336722
0.23385300668151449,-0.2681947931471307
0.267260579064588,-0.18715902685615057
0.3006681514476615,-0.1169321399558414
0.334075723830735,-0.07362954798585458
0.3674832962138085,-0.06343152797631348
0.400890868596882,-0.08040033307225687
0.4342984409799555,-0.10904309208055858
0.46770601336302897,-0.13083204807701615
0.5011135857461025,-0.1319134987636898
0.534521158129176,-0.10843091832943075
0.5679287305122495,-0.06685228990633668
0.601336302895323,-0.019131388257719716
0.6347438752783965,0.024732723340321592
0.66815144766147,0.06265437651021566
0.7015590200445435,0.10152580915944448
0.734966592427617,0.15261642253871313
0.7683741648106905,0.22374221534584762
0.801781737193764,0.31258782587098477
0.8351893095768375,0.4050908622823822
0.868596881959911,0.4801259459959834
0.9020044543429845,0.5183327241896221
0.9354120267260579,0.5106766169844025
0.9688195991091315,0.46238733865225395
1.002227171492205,0.39018558229848277
1.0356347438752784,0.3139826782965906
1.069042316258352,0.24694656229840792
1.1024498886414256,0.18877190492896195
1.135857461024499,0.12576571465045217
1.1692650334075725,0.03840249614260863
1.202672605790646,-0.08655072121924494
1.2360801781737194,-0.24487578604226018
1.269487750556793,-0.41060397204823773
1.3028953229398665,-0.5420042399296636
1.33630289532294,-0.5967614446815778
1.3697104677060135,-0.5505931125116036
1.403118040089087,-0.4110655576859768
1.4365256124721606,-0.21954789818538445
1.469933184855234,-0.03892628226132153
1.5033407572383075,0.06901647034133947
1.536748329621381,0.06762995333883576
1.5701559020044544,-0.03936990091723072
1.603563474387528,-0.20835429426224128
1.6369710467706016,-0.3722301149929627
1.670378619153675,-0.466284565854851
1.7037861915367485,-0.45277973671000654
1.737193763919822,-0.3342992576050155
1.7706013363028954,-0.15079754732873707
1.804008908685969,0.03778740388551537
1.8374164810690425,0.1756799560516278
1.8708240534521159,0.23213120073223417
1.9042316258351895,0.21081709841665777
1.937639198218263,0.14468650710158215
1.9710467706013366,0.07930261896477682
2.00445434298441,0.05229521179576605
2.0378619153674835,0.07766942895142692
2.071269487750557,0.14105771027808606
2.1046770601336307,0.2069625981442036
2.138084632516704,0.23406538269695315
2.1714922048997773,0.19196815328614555
2.204899777282851,0.0731501381858438
2.2383073496659245,-0.10331486158187117
2.271714922048998,-0.2963670091649104
2.3051224944320716,-0.45362292823758915
2.338530066815145,-0.5250234609221138
2.3719376391982183,-0.4765725296131763
2.405345211581292,-0.30142855527150003
2.4387527839643655,-0.025346013894488397
2.472160356347439,0.2965763199091979
2.5055679287305126,0.5934776918132229
2.538975501113586,0.8007469233749974
2.5723830734966593,0.8837854993016687
2.605790645879733,0.8534111013408863
2.6391982182628064,0.7637029509433577
2.67260579064588,0.6896138447303298
2.7060133630289536,0.6916858469915267
2.739420935412027,0.783566641349092
2.7728285077951007,0.919290233404059
2.806236080178174,1.0093041088547703
2.8396436525612474,0.960140415216561
2.873051224944321,0.7196924281511266
2.9064587973273945,0.3056681294281701
2.939866369710468,-0.197912044627442
2.9732739420935417,-0.6755965879567759
3.006681514476615,-1.0302115009125745
3.0400890868596884,-1.223180844795757
3.073496659242762,-1.286057635065288
3.1069042316258355,-1.2985226159155545
3.140311804008909,-1.3447105297514512
3.1737193763919826,-1.4696223810613185
3.207126948775056,-1.6559786741417866
3.2405345211581293,-1.8308252891621861
3.273942093541203,-1.8969526758532347
3.3073496659242765,-1.773934146532554
3.34075723830735,-1.4314145036444175
3.3741648106904236,-0.9026192735369558
3.407572383073497,-0.2750232754257803
3.4409799554565703,0.336650830121658
3.474387527839644,0.8250389601085253
3.5077951002227175,1.1211556977476758
3.541202672605791,1.2125731677672253
3.5746102449888646,1.1436950405258148
3.608017817371938,0.998653825069169
3.6414253897550113,0.8729163605923529
3.674832962138085,0.8431983960134358
3.7082405345211584,0.9452175416493399
3.7416481069042318,1.1652819587817997
3.7750556792873056,1.4466366245637075
3.808463251670379,1.7072601567520231
3.8418708240534527,1.8636307900859712
3.875278396436526,1.8544051709772729
3.9086859688195994,1.6579781072689048
3.942093541202673,1.2984849397770022
3.9755011135857465,0.8371159020551288
4.00890868596882,0.3504273350730897
4.042316258351893,-0.096676217100374
4.075723830734967,-0.47189072420328065
4.109131403118041,-0.7807334734624951
4.142538975501114,-1.0536687169529375
4.1759465478841875,-1.321850968605099
4.209354120267261,-1.5938254481822545
4.242761692650334,-1.8446093315179755
4.276169265033408,-2.0220630679948055
4.309576837416482,-2.0671998939047187
4.342984409799555,-1.9391281265759017
4.3763919821826285,-1.633896736803755
4.409799554565702,-1.1895826312093076
4.443207126948775,-0.6758504095352648
4.476614699331849,-0.17249135514313266
4.510022271714923,0.2543205141560595
4.543429844097996,0.5687837277998467
4.5768374164810695,0.7693319887150574
4.610244988864143,0.8794809705359489
4.643652561247216,0.9310844699878797
4.67706013363029,0.9481950295676519
4.710467706013364,0.9385901140676227
4.743875278396437,0.8958061192645199
4.77728285077951,0.8093970308461437
4.810690423162584,0.6774471352060631
4.844097995545657,0.5146041305352884
4.877505567928731,0.3512147839527847
4.910913140311805,0.22341072236673593
4.944320712694878,0.15827758824789986
4.977728285077951,0.16064669007753005
5.011135857461025,0.20756875106267922
5.044543429844098,0.25348054671407383
5.077951002227172,0.2448420050714615
5.111358574610246,0.1393267744691915
5.144766146993319,-0.07719125439554378
5.178173719376392,-0.3820790278360421
5.211581291759466,-0.7193753038174638
5.244988864142539,-1.0147908838497515
5.278396436525613,-1.1977534297809247
5.311804008908687,-1.2231666695000576
5.34521158129176,-1.0852730836975328
5.378619153674833,-0.8186588777994533
5.412026726057907,-0.486171337382046
5.445434298440981,-0.1584261919126542
5.478841870824054,0.10744322990047159
5.512249443207128,0.2823660427064626
5.545657015590201,0.36900862104104903
5.579064587973274,0.3948846952388246
5.612472160356348,0.39905542267723493
5.645879732739422,0.41802791354619967
5.679287305122495,0.4752956829969677
5.712694877505569,0.5763126632214075
5.746102449888642,0.7083029092845311
5.779510022271715,0.8434143119749599
5.812917594654789,0.9443027785640747
5.846325167037863,0.9721474364872064
5.879732739420936,0.8970047733203359
5.91314031180401,0.7088236666793954
5.946547884187083,0.42527697540924236
5.979955456570156,0.09172031638311959
6.01336302895323,-0.2293636390161996
6.046770601336304,-0.477369283480191
6.080178173719377,-0.614019360652739
6.1135857461024505,-0.6363382434096552
6.146993318485524,-0.5759841700082712
6.180400890868597,-0.48493560437284555
6.213808463251671,-0.41367703353396407
6.247216035634745,-0.39103598112097626
6.280623608017818,-0.4136945875624924
6.3140311804008915,-0.44930237684519775
6.347438752783965,-0.45202184219951935
6.380846325167038,-0.38483531214184313
6.414253897550112,-0.24008557755300539
6.447661469933186,-0.0494079563334852
6.481069042316259,0.12286655691871573
6.5144766146993325,0.2027639842607094
6.547884187082406,0.1387336385272203
6.581291759465479,-0.07033688944188492
6.614699331848553,-0.36477791354011146
6.648106904231627,-0.6390240509395689
6.6815144766147,-0.7784043516713199
6.7149220489977735,-0.7037442808969668
6.748329621380847,-0.40477203352688956
6.78173719376392,0.05259834007475292
6.815144766146994,0.548570127603946
6.848552338530068,0.951688687180216
6.881959910913141,1.1631363428089618
6.915367483296214,1.1457371840764243
6.948775055679288,0.9284728037346487
6.982182628062361,0.5884123680921955
7.015590200445435,0.22050757169540908
7.048997772828509,-0.09169547215456406
7.082405345211582,-0.2947497031724295
7.115812917594655,-0.370365864179981
7.149220489977729,-0.3299908825986354
7.182628062360802,-0.20499445299741445
7.216035634743876,-0.03752811323847493
7.24944320712695,0.12632491112664007
7.282850779510023,0.24263001936272194
7.316258351893096,0.27705214457955274
7.34966592427617,0.21363495649518055
7.383073496659243,0.06171835011274934
7.416481069042317,-0.1436163370055985
7.449888641425391,-0.3502679051559595
7.4832962138084635,-0.5051839022167243
7.516703786191537,-0.571575526659072
7.550111358574611,-0.5397621968027941
7.583518930957685,-0.4269968162259691
7.616926503340758,-0.26714551101093675
7.650334075723832,-0.0960370612558056
7.683741648106905,0.06020122110789746
7.717149220489978,0.18910159406477653
7.750556792873052,0.28821467085152913
7.783964365256126,0.3579888831245337
7.817371937639199,0.39631243778503483
7.850779510022273,0.39782981319377564
7.884187082405346,0.35780436325691506
7.917594654788419,0.27775067651675533
7.951002227171493,0.16941927697896025
7.984409799554567,0.05475993663496204
8.01781737193764,-0.038720064289802576
8.051224944320714,-0.0860738036609571
8.084632516703786,-0.07410378678767354
8.118040089086861,-0.008479366010291712
8.151447661469934,0.08437011102781633
8.184855233853007,0.16268425901432074
8.218262806236082,0.18194156059002295
8.251670378619155,0.11133646096255488
8.285077951002227,-0.051702404764698694
8.318485523385302,-0.27550150113240546
8.351893095768375,-0.5008936633740204
8.385300668151448,-0.6600321200768071
8.418708240534523,-0.7008933828070336
8.452115812917596,-0.6075572600066339
8.485523385300668,-0.4071968369677582
8.518930957683743,-0.16007730638346349
8.552338530066816,0.06359933550232827
8.585746102449889,0.21015109453136796
8.619153674832964,0.2608512136464088
8.652561247216036,0.23479981869668584
8.68596881959911,0.17580458740814156
8.719376391982184,0.12986486937845348
8.752783964365257,0.12363347679154231
8.78619153674833,0.15332177167058028
8.819599109131405,0.18859906117333483
8.853006681514477,0.18938591729777163
8.88641425389755,0.1278611012188352
8.919821826280625,0.005752953525280216
8.953229398663698,-0.14105327991119612
8.98663697104677,-0.25324515292450317
9.020044543429846,-0.2703876170309263
9.053452115812918,-0.15619560169921934
9.086859688195991,0.08321789273749494
9.120267260579066,0.39567191884300734
9.153674832962139,0.6961961344872757
9.187082405345212,0.8935501728378048
9.220489977728286,0.9212290068236215
9.25389755011136,0.7618076735656909
9.287305122494432,0.4548505852750654
9.320712694877507,0.08393340376894218
9.35412026726058,-0.2536866366225638
9.387527839643653,-0.4834578516501467
9.420935412026727,-0.5808067844500683
9.4543429844098,-0.576767079017042
9.487750556792873,-0.5384366402126037
9.521158129175948,-0.53252435435442
9.55456570155902,-0.5891325390173793
9.587973273942094,-0.6839144648319944
9.621380846325168,-0.7484991749616762
9.654788418708241,-0.7051334264454149
9.688195991091314,-0.5088352446451584
9.721603563474389,-0.1757863158065495
9.755011135857462,0.2169848245380435
9.788418708240535,0.5613275818517628
9.82182628062361,0.7629591181279851
9.855233853006682,0.7799349271262886
9.888641425389755,0.6363828613683031
9.92204899777283,0.40608528196650306
9.955456570155903,0.1756691538919123
9.988864142538976,0.00672332621051116
10.02227171492205,-0.08467995093058837
10.055679287305123,-0.12290046068319048
10.089086859688196,-0.1477561868555591
10.12249443207127,-0.18512625797616164
10.155902004454344,-0.2294353752444751
10.189309576837417,-0.24652558107375544
10.222717149220491,-0.19399086262202903
10.256124721603564,-0.047432313340719776
10.289532293986637,0.18066675922305633
10.322939866369712,0.4379461234597202
10.356347438752785,0.645851488379013
10.389755011135858,0.7243516291777428
10.423162583518932,0.6190897943312416
10.456570155902005,0.322654079238697
10.489977728285078,-0.11629022859568314
10.523385300668153,-0.5995212440798013
10.556792873051226,-1.0015967425901993
10.590200445434299,-1.20391168049646
10.623608017817373,-1.1317219212039284
10.657015590200446,-0.7821254972439425
10.69042316258352,-0.231512078336588
10.723830734966594,0.38339970213340896
10.757238307349667,0.907216285929035
10.790645879732741,1.2165461065014171
10.824053452115814,1.2605104916362269
10.857461024498887,1.07428439664812
10.890868596881962,0.7591716118676376
10.924276169265035,0.4369584033363427
10.957683741648108,0.19804271012500893
10.991091314031182,0.06628940136625819
11.024498886414255,-0.0035454819670981625
11.057906458797328,-0.0949493279987442
11.091314031180403,-0.2805429206498618
11.124721603563476,-0.5792122374188761
11.158129175946549,-0.9413392535883561
11.191536748329623,-1.2700036982513263
11.224944320712696,-1.467326409422605
11.25835189309577,-1.4814867277485644
11.291759465478844,-1.329132211278263
11.325167037861917,-1.0810116062901813
11.35857461024499,-0.8189385202943777
11.391982182628064,-0.5883862189512801
11.425389755011137,-0.37375202991075435
11.45879732739421,-0.11077852402846372
11.492204899777285,0.2701737444777433
11.525612472160358,0.793507664476136
11.55902004454343,1.4080189245415193
11.592427616926505,1.9936280571289682
11.625835189309578,2.403015813453467
11.659242761692651,2.5188956163231087
11.692650334075726,2.300769473727914
11.726057906458799,1.8006489694489365
11.759465478841872,1.1417235119322606
11.792873051224946,0.4702296666922771
11.82628062360802,-0.09824169895433886
11.859688195991092,-0.5152812731112127
11.893095768374167,-0.804419264194918
11.92650334075724,-1.033487003545113
11.959910913140313,-1.2680378079439256
11.993318485523387,-1.5276348658657672
12.02672605790646,-1.7658521506453468
12.060133630289533,-1.8846463482430904
12.093541202672608,-1.7783108119732671
12.12694877505568,-1.3880607158530354
12.160356347438753,-0.7420232554957673
12.193763919821828,0.03933311202756099
12.227171492204901,0.7771009512053497
12.260579064587974,1.293706676258015
12.293986636971049,1.472969901592554
12.327394209354122,1.2952388156804429
12.360801781737194,0.8349989476130496
12.39420935412027,0.22627124552644173
12.427616926503342,-0.38521429875350105
12.461024498886415,-0.8813872596098654
12.49443207126949,-1.189638518588969
12.527839643652563,-1.2798360365008492
12.561247216035635,-1.152040153774088
12.59465478841871,-0.8279587963390264
12.628062360801783,-0.35168386721797834
12.661469933184856,0.20538913833257444
12.69487750556793,0.7465611693018678
12.728285077951004,1.1667803379611867
12.761692650334076,1.3823301330387063
12.795100222717151,1.3606243501907542
12.828507795100224,1.13422278245961
12.861915367483297,0.7897578369365997
12.895322939866372,0.43512189969997983
12.928730512249444,0.1594653661471385
12.962138084632517,0.0038995206763332967
12.995545657015592,-0.04516561650501328
13.028953229398665,-0.0395152046017798
13.062360801781738,-0.03936029364397277
13.095768374164813,-0.08468199045451592
13.129175946547885,-0.17946738922162978
13.162583518930958,-0.29356180861685777
13.195991091314033,-0.3793507409483635
13.229398663697106,-0.3953915035529794
13.262806236080179,-0.3273053012624178
13.296213808463254,-0.19742215058195212
13.329621380846326,-0.05848582227104506
13.3630289532294,0.027302585024682843
13.396436525612474,0.016038969977367565
13.429844097995547,-0.0954888926147347
13.46325167037862,-0.2640217728533599
13.496659242761694,-0.41513854306048004
13.530066815144767,-0.474175338880679
13.56347438752784,-0.39916900500421243
13.596881959910915,-0.2005074211291246
13.630289532293988,0.062073709635613816
13.66369710467706,0.3036943067940673
13.697104677060135,0.4481825443862292
13.730512249443208,0.4559454936450333
13.763919821826281,0.3342007616637678
13.797327394209356,0.12748725705353328
13.830734966592429,-0.10397061697033708
13.864142538975502,-0.3060005721345124
13.897550111358576,-0.4428781764288586
13.93095768374165,-0.4981958062849669
13.964365256124722,-0.46901647147051745
13.997772828507797,-0.36064776998300935
14.03118040089087,-0.18645707820986318
14.064587973273943,0.028579559468579544
14.097995545657017,0.24616069827620002
14.13140311804009,0.42006469585929923
14.164810690423163,0.5092993886195313
14.198218262806238,0.4937493750887041
14.23162583518931,0.38406164723982134
14.265033407572384,0.2195611824563337
14.298440979955458,0.05402111784556247
14.331848552338531,-0.0644708078839688
14.365256124721604,-0.11027424738371307
14.398663697104679,-0.08629538189053679
14.432071269487752,-0.01779840500712538
14.465478841870825,0.06166374122168947
14.4988864142539,0.12464255093010329
14.532293986636972,0.15803159052944485
14.565701559020045,0.16284907104802984
14.59910913140312,0.14787056936758314
14.632516703786193,0.1219342259160117
14.665924276169266,0.08922511015120843
14.69933184855234,0.04919581985277236
14.732739420935413,-0.00011403079263984915
14.766146993318486,-0.05813146173008299
14.79955456570156,-0.11964428787161813
14.832962138084634,-0.17549516413019053
14.866369710467707,-0.21542668886926072
14.899777282850781,-0.23155473961170178
14.933184855233854,-0.2210037380608369
14.966592427616927,-0.18688460825182826
15.0,-0.13752726923453848
