Frequency (Hz),Amplitude
0.0,34.51019454263969
0.019823788546255508,34.50614273459961
0.039647577092511016,34.49400033611985
0.059471365638766524,34.47380640780741
0.07929515418502203,34.44562599608529
0.09911894273127755,34.40955005058034
0.11894273127753305,34.365695307005026
0.13876651982378857,34.314204134069065
0.15859030837004406,34.25524434253236
0.17841409691629956,34.189008954082276
0.1982378854625551,34.1157159272933
0.2180616740088106,34.03560783749226
0.2378854625550661,33.9489515069286
0.25770925110132165,33.85603758122241
0.27753303964757714,33.757180047651175
0.29735682819383263,33.652715690438264
0.31718061674008813,33.543003477832755
0.3370044052863437,33.428423875429694
0.3568281938325991,33.30937807988707
0.37665198237885467,33.186287166959566
0.3964757709251102,33.05959114760942
0.41629955947136565,32.92974792588777
0.4361233480176212,32.79723215232732
0.4559471365638767,32.6625339667639
0.4757709251101322,32.5261576248467
0.49559471365638774,32.388620003011184
0.5154185022026433,32.250448977412894
0.5352422907488987,32.11218167326803
0.5550660792951543,31.974362582240477
0.5748898678414097,31.83754154697139
0.5947136563876653,31.702271613576446
0.6145374449339208,31.569106754939423
0.6343612334801763,31.43859946990703
0.6541850220264318,31.311298266017868
0.6740088105726874,31.18774503615091
0.6938325991189428,31.068472342415234
0.7136563876651982,30.95400062365903
0.7334801762114539,30.844835346086967
0.7533039647577093,30.741464119546645
0.7731277533039648,30.644353804982853
0.7929515418502204,30.55394764124803
0.8127753303964759,30.470662421788685
0.8325991189427313,30.394885753576567
0.8524229074889869,30.32697343191309
0.8722466960352424,30.267246965302885
0.8920704845814978,30.21599128438054
0.9118942731277534,30.173452667830652
0.931718061674009,30.13983691632528
0.9515418502202644,30.115307802730264
0.9713656387665199,30.09998582323324
0.9911894273127755,30.093947269705545
1.0110132158590308,30.09722363863872
1.0308370044052866,30.109801386537068
1.0506607929515421,30.13162203587295
1.0704845814977975,30.162582629800344
1.090308370044053,30.20253652797288
1.1101321585903086,30.251294530209737
1.1299559471365639,30.308626309573462
1.1497797356828194,30.374262131824576
1.1696035242290752,30.447894834318024
1.1894273127753305,30.529182034309787
1.209251101321586,30.61774853438888
1.2290748898678416,30.71318889136981
1.248898678414097,30.81507011445121
1.2687224669603525,30.92293445871953
1.288546255506608,31.036302281076992
1.3083700440528636,31.15467492730563
1.3281938325991192,31.27753762113549
1.3480176211453747,31.404362328747528
1.36784140969163,31.534610574993657
1.3876651982378856,31.667736190649812
1.4074889867841411,31.803187973117442
1.4273127753303965,31.9404122460792
1.4471365638766522,32.078855306598314
1.4669603524229078,32.217965750981485
1.4867841409691631,32.357196673342635
1.5066079295154187,32.49600773317893
1.5264317180616742,32.633867090379034
1.5462555066079295,32.770253207921215
1.5660792951541853,32.90465652407487
1.5859030837004409,33.03658099721625
1.6057268722466962,33.1655455274078
1.6255506607929517,33.29108525969869
1.6453744493392073,33.41275277469791
1.6651982378854626,33.53011917237693
1.6850220264317182,33.64277505529671
1.7048458149779737,33.7503314175505
1.7246696035242293,33.852420445688054
1.7444933920704848,33.94869623776196
1.7643171806167404,34.038835446427456
1.7841409691629957,34.122537851757066
1.8039647577092512,34.199526869106364
1.8237885462555068,34.26954999700587
1.8436123348017623,34.33237920966661
1.863436123348018,34.38781129827762
1.8832599118942732,34.435668164854235
1.9030837004405288,34.475797071969914
1.9229074889867843,34.5080708512739
1.9427312775330399,34.53238807326794
1.9625550660792954,34.54867318038908
1.982378854625551,34.55687658501797
2.002202643171806,34.55697473361176
2.0220264317180616,34.54897013774179
2.041850220264317,34.53289137239695
2.061674008810573,34.50879304149753
2.0814977973568287,34.47675571014958
2.1013215859030843,34.43688580274794
2.1211453744493394,34.38931546562074
2.140969162995595,34.334202392481174
2.1607929515418505,34.271729610529675
2.180616740088106,34.20210522462017
2.2004405286343616,34.12556211647566
2.220264317180617,34.04235759550718
2.2400881057268722,33.95277299736768
2.2599118942731278,33.85711322595321
2.2797356828193833,33.755706234160705
2.299559471365639,33.64890243832784
2.319383259911895,33.537074060929235
2.3392070484581504,33.420614395789976
2.3590308370044055,33.299936989819294
2.378854625550661,33.17547473507919
2.3986784140969166,33.047678864898515
2.418502202643172,32.91701784774581
2.4383259911894277,32.78397617270238
2.4581497797356833,32.64905302065312
2.4779735682819384,32.512760815761006
2.497797356828194,32.37562365243448
2.5176211453744495,32.23817559385724
2.537444933920705,32.100958839247966
2.5572687224669606,31.964521758375263
2.577092511013216,31.829416793472753
2.5969162995594717,31.696198230601457
2.6167400881057272,31.565419844674878
2.6365638766519828,31.437632424797346
2.6563876651982383,31.313381189229634
2.676211453744494,31.193203102168688
2.6960352422907494,31.077624107536064
2.715859030837005,30.967156298066556
2.73568281938326,30.86229504107881
2.7555066079295156,30.76351608530283
2.775330396475771,30.671272675932688
2.7951541850220267,30.58599270754605
2.8149779735682823,30.508075946574348
2.834801762114538,30.437891356500987
2.854625550660793,30.375774559804288
2.874449339207049,30.32202547075699
2.8942731277533045,30.27690613247429
2.91409691629956,30.240638790027237
2.9339207048458156,30.21340422899705
2.953744493392071,30.19534040556657
2.9735682819383262,30.1865413901891
2.993392070484582,30.18705664214397
3.0132158590308373,30.196890627012998
3.033039647577093,30.216002783452776
3.0528634361233484,30.24430783977339
3.072687224669604,30.28167647495359
3.092511013215859,30.32793631301806
3.1123348017621146,30.382873234351788
3.1321585903083706,30.44623298269729
3.151982378854626,30.51772304240632
3.1718061674008817,30.59701475710392
3.1916299559471373,30.683745658342037
3.2114537444933924,30.777521971099002
3.231277533039648,30.877921262121724
3.2511013215859035,30.984495197069556
3.270925110132159,31.09677237313696
3.2907488986784146,31.21426119522198
3.31057268722467,31.33645276565981
3.3303964757709252,31.46282375994697
3.350220264317181,31.592839263622725
3.3700440528634363,31.725955548435998
3.389867841409692,31.86162276900071
3.4096916299559474,31.999287564236653
3.4295154185022034,32.13839555091537
3.4493392070484585,32.278393699522134
3.469162995594714,32.41873258534189
3.4889867841409696,32.55886851014597
3.508810572687225,32.69826549206656
3.5286343612334807,32.83639712318754
3.5484581497797363,32.972748296045545
3.5682819383259914,33.106816801631076
3.588105726872247,33.2381148026199
3.6079295154185025,33.36617018645975
3.627753303964758,33.49052780361826
3.6475770925110136,33.6107505967726
3.667400881057269,33.72642062702874
3.6872246696035247,33.83714000340761
3.7070484581497802,33.94253172185858
3.726872246696036,34.042240419975585
3.7466960352422913,34.1359330534145
3.7665198237885464,34.223299499766355
3.7863436123348024,34.304053095334936
3.8061674008810575,34.37793110992467
3.8259911894273135,34.44469516436557
3.8458149779735686,34.50413159510228
3.8656387665198246,34.556051769760145
3.8854625550660797,34.60029235717712
3.905286343612335,34.636715554962635
3.925110132158591,34.665209277215354
3.9449339207048464,34.6856873046033
3.964757709251102,34.69808939858537
3.9845814977973575,34.70238138112742
4.004405286343612,34.6985551808486
4.024229074889869,34.686628846113614
4.044052863436123,34.66664652516964
4.06387665198238,34.63867841301043
4.083700440528634,34.60282066423246
4.103524229074891,34.55919527072837
4.123348017621146,34.507949902641336
4.143171806167401,34.449257710581016
4.162995594713657,34.383317086671894
4.182819383259912,34.31035138157999
4.2026431718061685,34.230608574231255
4.222466960352423,34.144360890512196
4.242290748898679,34.05190436682167
4.262114537444934,33.95355835393527
4.28193832599119,33.84966495625433
4.301762114537445,33.740588401147996
4.321585903083701,33.62671433277093
4.3414096916299565,33.5084490244626
4.361233480176212,33.386218503619034
4.381057268722468,33.26046758279547
4.400881057268723,33.13165879076092
4.420704845814979,33.000271197308194
4.440528634361234,32.86679912584406
4.46035242290749,32.73175074816942
4.4801762114537445,32.59564655642739
4.500000000000001,32.45901770797821
4.5198237885462555,32.32240423996651
4.539647577092512,32.18635315160425
4.559471365638767,32.05141635371356
4.579295154185023,31.918148486864887
4.599118942731278,31.787104611512724
4.618942731277533,31.658837775857904
4.63876651982379,31.533896469743887
4.658590308370044,31.412821975677364
4.678414096916301,31.29614563101888
4.6982378854625555,31.18438601844639
4.718061674008811,31.078046104881086
4.737885462555067,30.97761035209178
4.757709251101322,30.88354182505913
4.777533039647578,30.796279326771803
4.797356828193833,30.716234590333002
4.817180616740089,30.643789560956616
4.837004405286344,30.579293801522432
4.856828193832599,30.523062055742464
4.876651982378855,30.475372002585356
4.896475770925111,30.436462234365514
4.9162995594713665,30.406530488799756
4.936123348017622,30.38573216238706
4.955947136563877,30.374179128716722
4.975770925110133,30.37193888085127
4.995594713656388,30.379034011874232
5.015418502202644,30.395442042192755
5.035242290748899,30.421095596409675
5.055066079295155,30.455882926716814
5.07488986784141,30.499648773994892
5.094713656387666,30.552195552327014
5.114537444933921,30.613284837607157
5.134361233480177,30.682639136499827
5.154185022026432,30.759943908301807
5.174008810572688,30.844849809350976
5.193832599118943,30.93697512757148
5.213656387665199,31.03590837354555
5.2334801762114544,31.141210994138323
5.25330396475771,31.252420175119457
5.2731277533039655,31.369051700343075
5.292951541850221,31.490602836772577
5.312775330396477,31.616555216855055
5.332599118942731,31.74637769234905
5.352422907488988,31.87952913657534
5.372246696035242,32.01546117508175
5.392070484581499,32.15362082778716
5.4118942731277535,32.29345304871551
5.43171806167401,32.43440315236381
5.451541850220265,32.5759191185153
5.47136563876652,32.717453769863646
5.491189427312777,32.85846681912018
5.511013215859031,32.99842678432218
5.530837004405288,33.13681277283221
5.550660792951542,33.27311613601958
5.570484581497798,33.40684199785781
5.5903083700440535,33.537510661662814
5.610132158590309,33.66465889996505
5.6299559471365646,33.78784113306735
5.64977973568282,33.90663050221427
5.669603524229076,34.02061984351555
5.689427312775331,34.12942256884191
5.709251101321586,34.232673459870185
5.729074889867842,34.330029381320564
5.748898678414098,34.4211699192102
5.768722466960353,34.505797949672655
5.788546255506609,34.58364014356307
5.808370044052864,34.65444741170975
5.82819383259912,34.71799529527967
5.848017621145375,34.774084305322546
5.867841409691631,34.82254021513547
5.887665198237886,34.86321430866705
5.907488986784142,34.89598358775282
5.927312775330397,34.920750940542675
5.9471365638766525,34.93744527305813
5.966960352422908,34.94602160539124
5.986784140969164,34.94646113363596
6.00660792951542,34.93877125822378
6.026431718061675,34.922985578916986
6.04625550660793,34.8991638562978
6.066079295154186,34.86739193917132
6.085903083700441,34.8277816568844
6.105726872246697,34.78047067514016
6.125550660792952,34.72562231346558
6.145374449339208,34.663425322063354
6.1651982378854635,34.594093615352485
6.185022026431718,34.51786595907385
6.204845814977975,34.435005607411156
6.224669603524229,34.34579988615764
6.244493392070486,34.25055971754706
6.264317180616741,34.1496190819748
6.284140969162996,34.04333441146336
6.303964757709252,33.932083909388396
6.323788546255507,33.81626679069247
6.3436123348017635,33.696302436575536
6.363436123348018,33.572629457493335
6.3832599118942746,33.44570465822575
6.403083700440529,33.3160018988167
6.422907488986785,33.18401084536202
6.44273127753304,33.05023560494595
6.462555066079296,32.915193239532734
6.482378854625551,32.77941215431821
6.502202643171807,32.64343035697363
6.5220264317180625,32.5077935853737
6.541850220264318,32.37305330282427
6.561674008810574,32.23976456148945
6.581497797356829,32.108483736677435
6.601321585903085,31.979766136866164
6.62114537444934,31.854163496825635
6.640969162995596,31.73222136388838
6.6607929515418505,31.614476390299025
6.680616740088107,31.50145354757856
6.700440528634362,31.39366328190063
6.720264317180618,31.291598632511345
6.740088105726873,31.195732338136636
6.759911894273129,31.106513959000477
6.779735682819384,31.02436704442019
6.799559471365639,30.949686377823678
6.819383259911895,30.882835332353785
6.83920704845815,30.824143370868995
6.859030837004407,30.773903724050115
6.8788546255506615,30.73237127940322
6.898678414096917,30.699760712187484
6.918502202643173,30.67624488668592
6.938325991189428,30.661953552814232
6.958149779735684,30.656972358897793
6.977973568281939,30.66134219664598
6.997797356828195,30.675058889051087
7.01762114537445,30.698073226297943
7.037444933920705,30.730291348967626
7.0572687224669615,30.771575472042812
7.077092511013216,30.82174493765381
7.096916299559473,30.880577579323447
7.116740088105728,30.947811375825886
7.136563876651983,31.02314636879843
7.156387665198239,31.106246815033288
7.176211453744494,31.196743541989214
7.19603524229075,31.29423647352151
7.215859030837005,31.398297292130206
7.235682819383261,31.508472204122004
7.255506607929516,31.624284774907032
7.275330396475772,31.745238803118877
7.295154185022027,31.870821204246592
7.314977973568283,32.00050487689749
7.334801762114538,32.13375152754555
7.354625550660794,32.27001443255978
7.374449339207049,32.40874111934066
7.394273127753305,32.54937595143229
7.4140969162995605,32.691362605439274
7.433920704845816,32.83414643039867
7.453744493392072,32.97717668288546
7.473568281938327,33.11990863352741
7.493392070484583,33.26180554275073
7.513215859030838,33.40234050545365
7.533039647577093,33.540998165917195
7.552863436123348,33.6772763056053
7.572687224669605,33.81068730760304
7.59251101321586,33.9407595023023
7.612334801762115,34.06703839959004
7.6321585903083715,34.189087813248946
7.651982378854627,34.30649088356466
7.671806167400882,34.41885100427195
7.691629955947137,34.52579265998362
7.711453744493394,34.62696218015402
7.731277533039649,34.72202841545056
7.751101321585904,34.81068334215796
7.7709251101321595,34.89264259993889
7.790748898678416,34.96764596792784
7.81057268722467,35.03545778376325
7.830396475770926,35.09586730976365
7.850220264317182,35.148689050041824
7.870044052863436,35.19376302193193
7.889867841409693,35.23095498467828
7.909691629955948,35.26015662790686
7.929515418502204,35.281285721976246
7.9493392070484585,35.29428623187848
7.969162995594715,35.29912839593913
7.9889867841409705,35.29580877014487
8.008810572687224,35.28435023850953
8.02863436123348,35.264801989470485
8.048458149779737,35.23723945789228
8.068281938325994,35.2017642318325
8.088105726872246,35.15850392280927
8.107929515418503,35.10761199788396
8.12775330396476,35.04926757145171
8.147577092511014,34.98367515420318
8.167400881057269,34.91106435629902
8.187224669603525,34.831689541368384
8.207048458149782,34.74582942752761
8.226872246696036,34.65378663119973
8.246696035242293,34.555887149120565
8.266519823788547,34.45247977354066
8.286343612334802,34.34393543528757
8.306167400881058,34.230646469048835
8.325991189427315,34.11302579498518
8.345814977973568,33.99150601060238
8.365638766519824,33.86653838671229
8.38546255506608,33.738591761319825
8.405286343612337,33.6081513254031
8.42511013215859,33.47571729482798
8.444933920704846,33.34180346308077
8.464757709251103,33.20693563013466
8.484581497797357,33.071649903609085
8.504405286343614,32.93649086945562
8.524229074889869,32.80200963072812
8.544052863436125,32.66876171457793
8.56387665198238,32.53730484946518
8.583700440528636,32.4081966166926
8.60352422907489,32.28199198273586
8.623348017621145,32.15924072144131
8.643171806167402,32.04048473795452
8.662995594713658,31.92625530917906
8.682819383259913,31.817070258580927
8.702643171806168,31.7134310861754
8.722466960352424,31.615820077463628
8.74229074889868,31.52469741783052
8.762114537444935,31.4404983413602
8.78193832599119,31.363630345060294
8.801762114537446,31.294470501001197
8.821585903083701,31.233362899766604
8.841409691629957,31.180616258790028
8.861233480176212,31.136501728548165
8.881057268722468,31.10125092815275
8.900881057268723,31.075054239614452
8.92070484581498,31.058059386967628
8.940528634361234,31.050370322598297
8.960352422907489,31.052046438599344
8.980176211453745,31.063102115912713
9.000000000000002,31.0835066185535
9.019823788546258,31.113184334518163
9.039647577092511,31.152015359236383
9.059471365638768,31.199836411820637
9.079295154185024,31.256442069070843
9.099118942731279,31.321586297369183
9.118942731277533,31.394984258384298
9.13876651982379,31.476314361007724
9.158590308370046,31.565220529236676
9.1784140969163,31.661314653841483
9.198237885462555,31.76417919461109
9.218061674008812,31.873369899733785
9.237885462555067,31.988418609381142
9.257709251101323,32.108836111746406
9.27753303964758,32.23411502154524
9.297356828193834,32.363732653208984
9.317180616740089,32.49715386358234
9.337004405286345,32.63383384176013
9.356828193832602,32.773220826663305
9.376651982378855,32.914758735962344
9.396475770925111,33.05788969292294
9.416299559471367,33.202056440607045
9.436123348017622,33.34670463554937
9.455947136563877,33.49128501550695
9.475770925110133,33.63525543811876
9.49559471365639,33.77808278929031
9.515418502202644,33.919244761835174
9.5352422907489,34.05823150635812
9.555066079295155,34.194547157564635
9.57488986784141,34.3277112401423
9.594713656387666,34.457259959099034
9.614537444933923,34.58274737998397
9.634361233480178,34.70374650477834
9.654185022026432,34.819850249448784
9.674008810572689,34.93067232922988
9.693832599118945,35.035848057658114
9.713656387665198,35.13503506524724
9.733480176211454,35.22791394347991
9.75330396475771,35.3141888195198
9.773127753303967,35.39358786672423
9.792951541850222,35.46586375568391
9.812775330396477,35.53079405012874
9.832599118942733,35.588181551640815
9.852422907488988,35.637854596699114
9.872246696035244,35.67966730916022
9.892070484581499,35.71349981085635
9.911894273127754,35.73925839256423
9.93171806167401,35.75687564717726
9.951541850220266,35.76631056648732
9.971365638766521,35.767548602565086
9.991189427312776,35.760601694304825
10.011013215859032,35.74550825928576
10.030837004405289,35.72233315068065
10.050660792951543,35.691167578526816
10.070484581497798,35.652128994253566
10.090308370044054,35.60536093694124
10.11013215859031,35.55103283936223
10.129955947136565,35.48933979143241
10.14977973568282,35.42050225827476
10.169603524229077,35.34476574967588
10.189427312775331,35.26240043729567
10.209251101321588,35.17370071557925
10.229074889867842,35.07898470192379
10.248898678414099,34.97859367127187
10.268722466960353,34.87289141995559
10.28854625550661,34.762263553300976
10.308370044052865,34.64711669124016
10.32819383259912,34.527877585980306
10.348017621145376,34.40499214565703
10.367841409691632,34.27892435787713
10.387665198237887,34.150155107149445
10.407488986784141,34.01918088043016
10.427312775330398,33.88651235539803
10.447136563876654,33.75267286664263
10.466960352422909,33.618196745719224
10.486784140969164,33.48362753201425
10.50660792951542,33.34951605259827
10.526431718061675,33.216418370725556
10.546255506607931,33.08489360438424
10.566079295154186,32.95550161830682
10.585903083700442,32.82880059510727
10.605726872246697,32.705344493704345
10.625550660792953,32.58568040588367
10.645374449339208,32.470345824705426
10.665198237885463,32.35986584141727
10.685022026431719,32.25475029051584
10.704845814977975,32.15549086552802
10.724669603524232,32.06255823085857
10.744493392070485,31.97639915757289
10.764317180616741,31.89743371313918
