Frequency (Hz),Amplitude
0.0,0.8042382466880653
0.01978021978021978,0.8038865601443836
0.03956043956043956,0.8028319594891906
0.05934065934065934,0.8010758222416674
0.07912087912087912,0.7986204462568771
0.0989010989010989,0.7954690527724929
0.11868131868131868,0.7916257907999954
0.13846153846153844,0.7870957429901386
0.15824175824175823,0.7818849331456675
0.17802197802197803,0.77600033560183
0.1978021978021978,0.7694498867493392
0.21758241758241756,0.7622424990359716
0.23736263736263735,0.754388077854684
0.2571428571428572,0.7458975418093386
0.2769230769230769,0.7367828469474413
0.2967032967032967,0.7270570156656816
0.31648351648351647,0.7167341711326273
0.3362637362637363,0.7058295782384758
0.35604395604395606,0.6943596922803764
0.3758241758241758,0.6823422168310237
0.3956043956043956,0.6697961725258347
0.4153846153846154,0.6567419788518444
0.4351648351648351,0.6432015514401708
0.45494505494505494,0.6291984178702423
0.4747252747252747,0.6147578556022606
0.4945054945054945,0.5999070563849404
0.5142857142857143,0.5846753223566414
0.5340659340659341,0.5690943000877086
0.5538461538461538,0.5531982600134452
0.5736263736263736,0.5370244300807763
0.5934065934065934,0.5206133939533776
0.6131868131868132,0.5040095657217883
0.6329670329670329,0.4872617545974664
0.6527472527472528,0.4704238342545908
0.6725274725274726,0.453555531822233
0.6923076923076923,0.4367233501845508
0.7120879120879121,0.4200016328553411
0.7318681318681318,0.4034737711304511
0.7516483516483516,0.3872335353192853
0.7714285714285715,0.37138648117059503
0.7912087912087912,0.3560513334554552
0.810989010989011,0.3413611749098455
0.8307692307692308,0.3274641661480657
0.8505494505494506,0.314523393615163
0.8703296703296702,0.3027153071789209
0.8901098901098901,0.29222611383385094
0.9098901098901099,0.28324552371163403
0.9296703296703297,0.2759575117325479
0.9494505494505494,0.2705283543619566
0.9692307692307692,0.2670930994280032
0.989010989010989,0.26574258129691325
1.0087912087912088,0.2665136443229301
1.0285714285714287,0.2693849306654971
1.0483516483516484,0.2742793323632152
1.0681318681318681,0.281072461983446
1.087912087912088,0.2896050409863453
1.1076923076923075,0.29969652782251627
1.1274725274725275,0.31115766271910555
1.1472527472527472,0.3238005023255126
1.1670329670329669,0.3374454659818983
1.1868131868131868,0.35192560370327475
1.2065934065934065,0.36708864592169477
1.2263736263736265,0.38279747739535525
1.2461538461538462,0.398929606358575
1.2659340659340659,0.4153760692452072
1.2857142857142858,0.4320400780326163
1.3054945054945055,0.4488356068524127
1.3252747252747252,0.4656860331819669
1.3450549450549452,0.48252289370024626
1.3648351648351649,0.4992847798108548
1.3846153846153846,0.5159163769697975
1.4043956043956045,0.5323676405010855
1.4241758241758242,0.5485930950435678
1.443956043956044,0.5645512427669507
1.4637362637362636,0.5802040654815708
1.4835164835164834,0.5955166067846414
1.5032967032967033,0.6104566218608666
1.523076923076923,0.6249942841582679
1.542857142857143,0.6391019397139001
1.5626373626373626,0.6527539013225132
1.5824175824175823,0.6659262759906196
1.6021978021978023,0.6785968201941746
1.621978021978022,0.6907448183711579
1.6417582417582417,0.7023509808468865
1.6615384615384616,0.7133973580301594
1.6813186813186813,0.7238672682504179
1.7010989010989013,0.7337452370473947
1.720879120879121,0.7430169460904053
1.7406593406593405,0.7516691902077426
1.7604395604395604,0.7596898412577163
1.7802197802197801,0.7670678177820832
1.7999999999999998,0.773793059556682
1.8197802197802198,0.7798565062993043
1.8395604395604395,0.7852500799172977
1.8593406593406594,0.7899666697799675
1.879120879120879,0.7940001205884436
1.8989010989010988,0.7973452224901039
1.9186813186813187,0.7999977031491178
1.9384615384615385,0.8019542215406985
1.9582417582417584,0.8032123632861721
1.978021978021978,0.8037706373904596
1.9978021978021978,0.8036284742842551
2.0175824175824175,0.8027862251109265
2.0373626373626372,0.80124516223474
2.0571428571428574,0.7990074809824769
2.076923076923077,0.796076302666246
2.096703296703297,0.7924556789726468
2.1164835164835165,0.7881505978423584
2.1362637362637362,0.7831669910069212
2.1560439560439564,0.7775117433962621
2.175824175824176,0.7711927046831697
2.195604395604396,0.7642187032909891
2.215384615384615,0.7565995632596807
2.2351648351648348,0.7483461244457215
2.254945054945055,0.7394702666255298
2.2747252747252746,0.7299849381827898
2.2945054945054943,0.7199041901916863
2.314285714285714,0.7092432168642817
2.3340659340659338,0.6980184035170008
2.353846153846154,0.6862473834344733
2.3736263736263736,0.6739491052765071
2.3934065934065933,0.6611439129948483
2.413186813186813,0.6478536406109757
2.4329670329670328,0.6341017246668988
2.452747252747253,0.6199133377108808
2.4725274725274726,0.6053155468339295
2.4923076923076923,0.5903375020446815
2.512087912087912,0.5750106601721034
2.5318681318681318,0.559369051022101
2.5516483516483515,0.5434495936779646
2.5714285714285716,0.5272924720937899
2.5912087912087913,0.5109415804076147
2.610989010989011,0.49444504954970464
2.6307692307692307,0.47785586747226366
2.6505494505494505,0.4612326052219279
2.6703296703296706,0.44464025936632734
2.6901098901098903,0.42815121678379015
2.70989010989011,0.41184633872669246
2.7296703296703297,0.395816144752049
2.7494505494505495,0.3801620499937976
2.769230769230769,0.3649975668861302
2.7890109890109893,0.35044932023095104
2.808791208791209,0.33665763959773554
2.8285714285714287,0.3237763883764185
2.8483516483516484,0.3119715797930779
2.8681318681318677,0.3014182535119489
2.887912087912088,0.2922951064214312
2.9076923076923076,0.28477657351459146
2.9274725274725273,0.2790225124865882
2.947252747252747,0.2751663507927248
2.9670329670329667,0.2733033407242619
2.986813186813187,0.27348110229088024
3.0065934065934066,0.27569454669327814
3.0263736263736263,0.27988641623663757
3.046153846153846,0.2859533068289529
3.0659340659340657,0.2937557266673379
3.085714285714286,0.30313002318043153
3.1054945054945056,0.31390005930287573
3.1252747252747253,0.3258871310267525
3.145054945054945,0.33891741125118996
3.1648351648351647,0.35282687172633304
3.184615384615385,0.36746404270283056
3.2043956043956046,0.3826911319702256
3.2241758241758243,0.3983840209471971
3.243956043956044,0.4144315687149969
3.2637362637362637,0.4307345445423652
3.2835164835164834,0.44720440765343794
3.3032967032967036,0.4637620722282289
3.3230769230769233,0.4803367373359266
3.342857142857143,0.49686482228538453
3.3626373626373627,0.5132890230559383
3.3824175824175824,0.5295574907250156
3.4021978021978025,0.5456231247322064
3.4219780219780223,0.5614429699515647
3.441758241758242,0.5769777052092825
3.4615384615384617,0.5921912109877678
3.481318681318681,0.6070502049139163
3.501098901098901,0.6215239348210438
3.520879120879121,0.635583920460516
3.5406593406593405,0.6492037361869497
3.5604395604395602,0.6623588280852633
3.58021978021978,0.6750263600215045
3.5999999999999996,0.6871850839778544
3.61978021978022,0.6988152307826158
3.6395604395604395,0.7098984179804273
3.659340659340659,0.7204175721215386
3.679120879120879,0.7303568631949794
3.6989010989010986,0.7397016493034198
3.718681318681319,0.7484384299880996
3.7384615384615385,0.7565548068715675
3.758241758241758,0.764039450502494
3.7780219780219784,0.770882072467687
3.7978021978021976,0.7770734019885502
3.8175824175824173,0.782605166346872
3.8373626373626375,0.7874700745928338
3.8571428571428568,0.7916618040800565
3.876923076923077,0.7951749894509337
3.896703296703296,0.7980052137633371
3.916483516483517,0.8001490015089577
3.936263736263736,0.8016038133254693
3.956043956043956,0.8023680422516665
3.9758241758241755,0.8024410114170958
3.9956043956043956,0.8018229730975306
4.015384615384615,0.800515109105113
4.035164835164835,0.7985195325189725
4.054945054945055,0.7958392907985896
4.0747252747252745,0.7924783703602777
4.094505494505494,0.7884417027362837
4.114285714285715,0.7837351724788446
4.134065934065934,0.7783656270178698
4.153846153846154,0.7723408887328221
4.173626373626373,0.7656697695577669
4.193406593406594,0.7583620885054891
4.213186813186813,0.7504286925734207
4.232967032967033,0.7418814815837502
4.252747252747253,0.7327334376147291
4.2725274725274724,0.7229986598028137
4.292307692307692,0.712692405440276
4.312087912087913,0.7018311384636232
4.331868131868132,0.6904325866308126
4.351648351648352,0.678515808924377
4.371428571428571,0.6661012750013828
4.391208791208792,0.6532109588457153
4.410989010989011,0.6398684491724194
4.43076923076923,0.6260990795961742
4.450549450549451,0.6119300821126019
4.4703296703296695,0.5973907680590061
4.49010989010989,0.582512741419365
4.50989010989011,0.5673301501090002
4.52967032967033,0.5518799816920601
4.549450549450549,0.5362024107991442
4.569230769230769,0.5203412062269339
4.589010989010989,0.5043442061536965
4.608791208791209,0.4882638698239587
4.628571428571428,0.4721579130133683
4.648351648351649,0.4560900319208002
4.6681318681318675,0.4401307148654095
4.687912087912088,0.4243581318817134
4.707692307692308,0.40885907708586516
4.7274725274725276,0.3937299151035806
4.747252747252747,0.3790774481977165
4.767032967032967,0.36501957271954244
4.786813186813187,0.3516855317786946
4.806593406593407,0.3392154998915734
4.826373626373626,0.3277591678700024
4.846153846153847,0.3174729586432881
4.8659340659340655,0.30851553869567494
4.885714285714286,0.30104144619112616
4.905494505494506,0.2951929744698219
4.9252747252747255,0.2910909173239385
4.945054945054945,0.2888252996981092
4.964835164835165,0.28844758947925353
4.984615384615385,0.2899658921260324
5.004395604395604,0.29334415585455065
5.024175824175824,0.2985055655495558
5.043956043956045,0.3053393854619985
5.0637362637362635,0.31370987019576396
5.083516483516483,0.3234656922843285
5.103296703296703,0.3344485927781994
5.123076923076923,0.3465004509627923
5.142857142857143,0.3594684735071214
5.162637362637362,0.37320858310120697
5.182417582417583,0.3875873009157101
5.2021978021978015,0.4024824911940513
5.221978021978022,0.4177833198339614
5.241758241758242,0.43338971848064967
5.2615384615384615,0.4492115735816266
5.281318681318681,0.4651677935925704
5.301098901098901,0.48118535413618124
5.320879120879121,0.49719838139702144
5.340659340659341,0.5131473065804343
5.36043956043956,0.5289781061950733
5.380219780219781,0.5446416316547259
5.3999999999999995,0.5600930251098722
5.41978021978022,0.5752912149180657
5.43956043956044,0.5901984826091723
5.4593406593406595,0.6047800928269507
5.479120879120879,0.6190039780250736
5.498901098901099,0.6328404703409612
5.518681318681319,0.646262073866127
5.538461538461538,0.6592432713598833
5.558241758241758,0.6717603602490996
5.578021978021979,0.6837913134863166
5.5978021978021975,0.6953156614891558
5.617582417582418,0.7063143919527769
5.637362637362637,0.7167698648179606
5.6571428571428575,0.7266657400977234
5.676923076923077,0.7359869166226863
5.696703296703297,0.7447194800680853
5.716483516483517,0.7528506588816452
5.736263736263735,0.7603687869478772
5.756043956043956,0.7672632720072304
5.775824175824176,0.7735245690033338
5.795604395604395,0.7791441576630934
5.815384615384615,0.7841145237259703
5.835164835164835,0.7884291433347087
5.854945054945055,0.7920824701816137
5.874725274725275,0.7950699250762429
5.894505494505494,0.7973878876621634
5.914285714285715,0.7990336900660499
5.934065934065933,0.800005612311225
5.953846153846154,0.8003028793732015
5.973626373626374,0.7999256597961714
5.993406593406593,0.7988750658290087
6.013186813186813,0.7971531550775154
6.032967032967033,0.7947629337076997
6.052747252747253,0.7917083612732331
6.072527472527473,0.7879943572803196
6.092307692307692,0.7836268096455977
6.112087912087913,0.7786125852485628
6.131868131868131,0.7729595428304762
6.151648351648352,0.7666765485477592
6.171428571428572,0.75977349455145
6.191208791208791,0.7522613210358855
6.210989010989011,0.7441520422827818
6.230769230769231,0.7354587773213977
6.2505494505494505,0.7261957859354542
6.270329670329671,0.716378510874734
6.29010989010989,0.7060236272767483
6.309890109890111,0.6951491004750842
6.329670329670329,0.6837742535693041
6.349450549450549,0.6719198463600407
6.36923076923077,0.6596081675158433
6.3890109890109885,0.6468631421376747
6.408791208791209,0.6337104572248161
6.428571428571428,0.6201777079201598
6.4483516483516485,0.6062945678184625
6.468131868131868,0.5920929870451346
6.487912087912088,0.5776074222299207
6.507692307692308,0.5628751028684318
6.527472527472527,0.5479363388136934
6.547252747252747,0.5328348736591396
6.567032967032967,0.5176182883963328
6.5868131868131865,0.5023384586995213
6.606593406593407,0.4870520671398516
6.626373626373626,0.4718211680438688
6.6461538461538465,0.4567137968769529
6.665934065934065,0.4418046070356454
6.685714285714286,0.42717550366381085
6.705494505494506,0.41291622537888345
6.725274725274725,0.39912479962737063
6.745054945054945,0.3859077655901408
6.764835164835165,0.37338002171023427
6.7846153846153845,0.3616641178318954
6.804395604395605,0.3508887843770224
6.824175824175824,0.34118648890945436
6.8439560439560445,0.332689855287898
6.863736263736263,0.32552689436442706
6.883516483516484,0.3198151894244409
6.903296703296704,0.31565543972429533
6.923076923076923,0.31312503756250964
6.942857142857143,0.31227254716306374
6.962637362637362,0.31311396806581315
6.9824175824175825,0.3156314458042934
7.002197802197802,0.319774671040746
7.021978021978022,0.3254647085991425
7.041758241758242,0.3325995814353855
7.061538461538461,0.34106072269103826
7.081318681318681,0.3507194309616731
7.101098901098901,0.3614426615142479
7.1208791208791204,0.3730977596333829
7.140659340659341,0.3855560012244861
7.16043956043956,0.39869499759304566
7.1802197802197805,0.4124001325230522
7.199999999999999,0.42656524259859774
7.21978021978022,0.4410927483112959
7.23956043956044,0.45589341522822957
7.259340659340659,0.47088588714282825
7.279120879120879,0.48599609627774565
7.298901098901099,0.5011566239327618
7.318681318681318,0.5163060599709753
7.338461538461539,0.5313883909741307
7.358241758241758,0.5463524337728336
7.3780219780219785,0.5611513221760935
7.397802197802197,0.5757420489793169
7.417582417582418,0.5900850618069686
7.437362637362638,0.604143909343497
7.457142857142857,0.6178849335088501
7.476923076923077,0.6312770027789824
7.496703296703297,0.6442912818874215
7.516483516483516,0.656901033403853
7.536263736263736,0.6690814470608447
7.556043956043957,0.6808094931220374
7.575824175824176,0.6920637965118033
7.595604395604395,0.7028245288339358
7.615384615384615,0.713073315782768
7.635164835164835,0.7227931577883228
7.654945054945055,0.7319683620374913
7.674725274725275,0.7405844842761454
7.694505494505494,0.7486282790265011
7.7142857142857135,0.7560876570523067
7.734065934065935,0.7629516490763714
7.753846153846154,0.7692103749022844
7.7736263736263735,0.7748550172203594
7.793406593406592,0.779877799487594
7.813186813186814,0.7842719673673787
7.832967032967034,0.7880317732973645
7.852747252747252,0.7911524638267362
7.872527472527472,0.7936302694282019
7.892307692307693,0.7954623965466766
7.912087912087912,0.7966470216983166
7.931868131868132,0.7971832874795535
7.951648351648351,0.7970713003896844
7.971428571428572,0.7963121304108665
7.991208791208791,0.7949078123286303
8.010989010989011,0.7928613488145029
8.03076923076923,0.7901767153307541
8.05054945054945,0.7868588669566392
8.07032967032967,0.782913747276414
8.09010989010989,0.7783482995131571
8.10989010989011,0.7731704801387996
8.129670329670331,0.7673892752423827
8.149450549450549,0.7610147199944414
8.169230769230769,0.7540579216080746
8.189010989010988,0.7465310862672612
8.20879120879121,0.7384475505712366
8.22857142857143,0.7298218181320233
8.248351648351647,0.7206696020609605
8.268131868131867,0.7110078741916175
8.287912087912087,0.7008549220098939
8.307692307692308,0.6902304144001425
8.327472527472528,0.6791554774664809
8.347252747252746,0.6676527818515405
8.367032967032966,0.6557466431469969
8.386813186813187,0.6434631371653794
8.406593406593407,0.6308302320125497
8.426373626373627,0.6178779390485066
8.446153846153845,0.6046384849281212
8.465934065934066,0.591146506937821
8.485714285714286,0.5774392737376821
8.505494505494505,0.5635569333079741
8.525274725274725,0.5495427892807587
8.545054945054945,0.535443605769857
8.564835164835165,0.521309939105335
8.584615384615384,0.5071964922835484
8.604395604395604,0.49316248415213076
8.624175824175826,0.4792720199936302
8.643956043956043,0.4655944428594343
8.663736263736263,0.4522046353791895
8.683516483516483,0.4391832296376903
8.703296703296704,0.426616668255438
8.723076923076924,0.4145970439148132
8.742857142857142,0.4032216292483226
8.762637362637362,0.39259199783383764
8.782417582417583,0.38281263548524713
8.802197802197803,0.3739889562206674
8.821978021978023,0.3662246768524945
8.84175824175824,0.3596185735830237
8.86153846153846,0.35426074272334346
8.881318681318682,0.35022860471845374
8.901098901098901,0.3475830025054676
8.920879120879121,0.34636481864646335
8.940659340659339,0.34659253762479686
8.96043956043956,0.34826109182140164
8.98021978021978,0.35134216069243823
9.0,0.3557858802220105
9.01978021978022,0.3615237183006991
9.03956043956044,0.36847213145235186
9.05934065934066,0.37653656636593597
9.079120879120879,0.38561540316084403
9.098901098901099,0.3956035303122116
9.11868131868132,0.4063953589430453
9.138461538461538,0.4178871964673311
9.158241758241758,0.42997898766808257
9.178021978021977,0.44257548874890834
9.197802197802199,0.45558696905706886
9.217582417582419,0.4689295428115651
9.237362637362637,0.48252522696922445
9.257142857142856,0.4963018079033405
9.276923076923078,0.5101925835858399
9.296703296703297,0.524136032378854
9.316483516483517,0.5380754458702364
9.336263736263735,0.5519585519930841
9.356043956043957,0.5657371459529453
9.375824175824176,0.5793667399673319
9.395604395604396,0.5928062381147745
9.415384615384616,0.6060176393036096
9.435164835164835,0.6189657691566711
9.454945054945055,0.6316180401793516
9.474725274725275,0.6439442387105137
9.494505494505495,0.6559163366762821
9.514285714285714,0.6675083259511478
9.534065934065934,0.6786960730867496
9.553846153846154,0.6894571922336004
9.573626373626373,0.699770934208999
9.593406593406593,0.7096180898268084
9.613186813186815,0.7189809057806459
9.632967032967032,0.7278430115498571
9.652747252747252,0.7361893559684869
9.672527472527472,0.7440061522579094
9.692307692307693,0.7512808304710562
9.712087912087913,0.7580019964299471
9.731868131868131,0.7641593963583833
9.75164835164835,0.7697438865190166
9.771428571428572,0.7747474072598635
9.791208791208792,0.779162960960214
9.810989010989012,0.7829845934418603
9.83076923076923,0.7862073784789894
9.850549450549451,0.788827405100574
9.87032967032967,0.7908417674337518
9.89010989010989,0.7922485568859505
9.90989010989011,0.7930468565090418
9.92967032967033,0.7932367374305911
9.94945054945055,0.7928192572769881
9.96923076923077,0.7917964605505735
9.989010989010989,0.7901713809593061
10.008791208791209,0.787948045733181
10.028571428571428,0.7851314819973509
10.048351648351648,0.7817277253079147
10.068131868131868,0.7777438304934087
10.08791208791209,0.7731878849837878
10.107692307692307,0.7680690248489725
10.127472527472527,0.7623974538119631
10.147252747252747,0.7561844655469311
10.167032967032966,0.7494424696211168
10.186813186813188,0.7421850214906525
10.206593406593406,0.7344268570148357
10.226373626373626,0.7261839320102313
10.246153846153845,0.7174734674245155
10.265934065934067,0.7083140007691681
10.285714285714286,0.6987254445072268
10.305494505494504,0.6887291521447642
10.325274725274724,0.6783479928168288
10.345054945054946,0.6676064351846376
10.364835164835165,0.6565306414599134
10.384615384615385,0.6451485723320329
10.404395604395603,0.63349010347616
10.424175824175824,0.6215871541408676
10.443956043956044,0.6094738280211068
10.463736263736264,0.5971865661750841
10.483516483516484,0.5847643110897276
10.503296703296703,0.5722486800737241
10.523076923076923,0.5596841448827986
10.542857142857143,0.5471182127684484
