Frequency (Hz),Amplitude
0.0,0.1368583432169314
0.019801980198019802,0.14295895477552217
0.039603960396039604,0.15984922127114848
0.0594059405940594,0.18453668210723626
0.07920792079207921,0.2142665100796447
0.09900990099009901,0.24713270404069143
0.1188118811881188,0.2819360556843814
0.13861386138613863,0.3179283030650797
0.15841584158415842,0.3546290302172987
0.1782178217821782,0.3917163262358144
0.19801980198019803,0.4289641253969065
0.21782178217821782,0.466206095990882
0.2376237623762376,0.5033143540278372
0.25742574257425743,0.5401865597919195
0.27722772277227725,0.5767378692850327
0.297029702970297,0.6128957757098492
0.31683168316831684,0.6485967197160618
0.33663366336633666,0.6837838112811121
0.3564356435643564,0.7184052677625872
0.37623762376237624,0.7524133240094725
0.39603960396039606,0.785763460206988
0.4158415841584158,0.818413847702321
0.43564356435643564,0.8503249469946724
0.45544554455445546,0.8814592136300675
0.4752475247524752,0.9117808817109592
0.495049504950495,0.9412558039504224
0.5148514851485149,0.9698513333921818
0.5346534653465347,0.997536236141042
0.5544554455445545,1.0242806273730143
0.5742574257425742,1.0500559249473707
0.594059405940594,1.0748348164030326
0.613861386138614,1.098591236172528
0.6336633663366337,1.121300350611839
0.6534653465346534,1.1429385490074133
0.6732673267326733,1.1634834391398419
0.6930693069306931,1.1829138462978226
0.7128712871287128,1.2012098148736332
0.7326732673267327,1.2183526118530024
0.7524752475247525,1.2343247316520645
0.7722772277227723,1.2491099018628475
0.7920792079207921,1.2626930895538226
0.8118811881188118,1.275060507839004
0.8316831683168316,1.28619962248303
0.8514851485148516,1.296099158351894
0.8712871287128713,1.3047491055545324
0.891089108910891,1.3121407251482007
0.9108910891089109,1.318266554304717
0.9306930693069307,1.323120410854001
0.9504950495049505,1.3266973971381295
0.9702970297029703,1.3289939031237437
0.99009900990099,1.330007608733244
1.00990099009901,1.3297374853665849
1.0297029702970297,1.3281837965964653
1.0495049504950495,1.325348098029087
1.0693069306930694,1.3212332363330694
1.0891089108910892,1.3158433474487132
1.108910891089109,1.3091838539999563
1.1287128712871286,1.301261461942575
1.1485148514851484,1.2920841564939856
1.1683168316831685,1.2816611974036451
1.188118811881188,1.2700031136383942
1.2079207920792079,1.2571216975753157
1.227722772277228,1.2430299988158546
1.2475247524752475,1.2277423177609585
1.2673267326732673,1.211274199117944
1.2871287128712872,1.1936424255484122
1.3069306930693068,1.174865011713943
1.3267326732673268,1.1549611990357675
1.3465346534653466,1.1339514515596816
1.3663366336633662,1.1118574534126517
1.3861386138613863,1.0887021084596915
1.405940594059406,1.0645095429276121
1.4257425742574257,1.0393051119673817
1.4455445544554455,1.013115411397347
1.4653465346534653,0.9859682962275376
1.4851485148514851,0.9578929080438175
1.504950495049505,0.9289197139789619
1.5247524752475248,0.8990805608803646
1.5445544554455446,0.8684087495041065
1.5643564356435644,0.8369391352677482
1.5841584158415842,0.804708264501476
1.6039603960396038,0.7717545585851107
1.6237623762376237,0.7381185633695323
1.6435643564356437,0.7038432886729233
1.6633663366336633,0.6689746737287955
1.683168316831683,0.6335622313854089
1.7029702970297032,0.5976599501822927
1.7227722772277227,0.5613275752303488
1.7425742574257426,0.5246324566602351
1.7623762376237624,0.487652267102873
1.782178217821782,0.4504790815523324
1.801980198019802,0.41322564808217943
1.8217821782178218,0.3760352780083793
1.8415841584158414,0.3390978830523194
1.8613861386138615,0.3026767286337317
1.881188118811881,0.2671542422920063
1.900990099009901,0.23311176746264464
1.920792079207921,0.2014670175658095
1.9405940594059405,0.17369176715689394
1.9603960396039604,0.1520577694158696
1.98019801980198,0.1395523802328097
2.0,0.13871976549294138
2.01980198019802,0.14975848330340397
2.0396039603960396,0.17034068943940273
2.0594059405940595,0.19744044879345013
2.0792079207920793,0.22866849718984916
2.099009900990099,0.262457447414963
2.118811881188119,0.2978289823659198
2.1386138613861387,0.3341657676946484
2.1584158415841586,0.37106402978265857
2.1782178217821784,0.4082475555408343
2.1980198019801978,0.4455183348857253
2.217821782178218,0.482727822316982
2.237623762376238,0.5197597746098527
2.257425742574257,0.5565197074970659
2.2772277227722775,0.5929282353137784
2.297029702970297,0.6289167522328246
2.3168316831683167,0.6644245644123715
2.336633663366337,0.6993969445540602
2.3564356435643563,0.733783787034581
2.376237623762376,0.7675386627367083
2.3960396039603964,0.80061814528199
2.4158415841584158,0.8329813249489353
2.4356435643564356,0.8645894545573531
2.455445544554456,0.8954056895480836
2.4752475247524752,0.9253948962161495
2.495049504950495,0.9545235098582249
2.514851485148515,0.982759429872479
2.5346534653465347,1.0100719424734494
2.5544554455445545,1.0364316642101168
2.5742574257425743,1.0618105012587282
2.594059405940594,1.0861816207370723
2.6138613861386135,1.1095194312093262
2.633663366336634,1.1317995702255854
2.6534653465346536,1.152998897238805
2.673267326732673,1.1730954906141695
2.6930693069306932,1.192068647726534
2.712871287128713,1.2098988873546743
2.7326732673267324,1.2265679537445664
2.7524752475247527,1.242058821840468
2.7722772277227725,1.256355703280903
2.792079207920792,1.2694440528342832
2.811881188118812,1.2813105750100748
2.8316831683168315,1.2919432306305354
2.8514851485148514,1.3013312431876236
2.8712871287128716,1.3094651048414963
2.891089108910891,1.3163365819439736
2.910891089108911,1.3219387199917862
2.9306930693069306,1.3262658479332974
2.9504950495049505,1.3293135817680564
2.9702970297029703,1.3310788273925012
2.99009900990099,1.3315597826571561
3.00990099009901,1.3307559386121763
3.0297029702970297,1.3286680799281676
3.0495049504950495,1.3252982844895391
3.0693069306930694,1.3206499221675196
3.089108910891089,1.3147276527900433
3.108910891089109,1.3075374233364998
3.128712871287129,1.2990864643970448
3.148514851485148,1.2893832859487857
3.1683168316831685,1.2784376725160171
3.1881188118811883,1.2662606777983585
3.2079207920792077,1.2528646188706367
3.227722772277228,1.238263070081996
3.2475247524752473,1.2224708568103708
3.267326732673267,1.2055040492632612
3.2871287128712874,1.1873799565590162
3.3069306930693068,1.1681171213762689
3.3267326732673266,1.1477353155265415
3.346534653465347,1.1262555368899345
3.366336633663366,1.1037000082627322
3.386138613861386,1.0800921788047573
3.4059405940594063,1.0554567289558843
3.4257425742574257,1.0298195799269534
3.4455445544554455,1.0032079091825965
3.4653465346534653,0.975650173748165
3.485148514851485,0.9471761437301007
3.504950495049505,0.9178169491949834
3.5247524752475248,0.8876051445885094
3.5445544554455446,0.8565747963119931
3.564356435643564,0.8247616010887724
3.5841584158415842,0.7922030456153497
3.603960396039604,0.7589386221147243
3.6237623762376234,0.7250101204327077
3.6435643564356437,0.6904620262594914
3.6633663366336635,0.6553420685527875
3.683168316831683,0.6197019799788813
3.702970297029703,0.5835985666847773
3.722772277227723,0.5470952357057731
3.7425742574257423,0.5102642133595384
3.762376237623762,0.47318983040608886
3.7821782178217824,0.4359734941896397
3.801980198019802,0.3987413979644698
3.8217821782178216,0.36165679176249566
3.841584158415842,0.32494005858202796
3.8613861386138613,0.28890245578714124
3.881188118811881,0.2540040710328082
3.9009900990099013,0.22095396848083854
3.9207920792079207,0.190876990956703
3.9405940594059405,0.16555030424962167
3.96039603960396,0.14756327081955972
3.98019801980198,0.13985873670949464
4.0,0.14412707654972381
4.01980198019802,0.15939595609727453
4.03960396039604,0.1828830202378091
4.0594059405940595,0.21179963360625423
4.079207920792079,0.24413450425120642
4.099009900990099,0.27859801654903843
4.118811881188119,0.31438011606305144
4.138613861386139,0.3509606057280711
4.158415841584159,0.38799205201039366
4.178217821782178,0.4252317224381754
4.198019801980198,0.46250212314967926
4.217821782178218,0.4996676873023703
4.237623762376238,0.5366206412015389
4.257425742574258,0.5732721951130906
4.2772277227722775,0.6095469041701401
4.297029702970297,0.6453789679688477
4.316831683168317,0.6807097471020851
4.336633663366336,0.7154860625677797
4.356435643564357,0.7496590104069348
4.376237623762377,0.7831831225957713
4.3960396039603955,0.8160157651289871
4.415841584158416,0.8481167014422184
4.435643564356436,0.879447772928845
4.455445544554455,0.9099726635821543
4.475247524752476,0.9396567258626719
4.4950495049504955,0.9684668516419548
4.514851485148514,0.9963713766737314
4.534653465346535,1.0233400102243269
4.554455445544555,1.0493437837240474
4.574257425742574,1.074355013885534
4.594059405940594,1.0983472768736908
4.613861386138614,1.1212953909399996
4.633663366336633,1.1431754055424934
4.653465346534653,1.1639645954246378
4.673267326732674,1.1836414584650483
4.693069306930693,1.2021857163661895
4.712871287128713,1.219578317445667
4.732673267326733,1.2358014409443236
4.752475247524752,1.250838502382061
4.772277227722772,1.2646741595835562
4.792079207920793,1.2772943190682415
4.811881188118812,1.288686142556067
4.8316831683168315,1.2988380533865396
4.851485148514852,1.3077397426857276
4.871287128712871,1.3153821751461796
4.891089108910891,1.3217575943099764
4.910891089108912,1.3268595272659305
4.930693069306931,1.3306827886899009
4.9504950495049505,1.3332234841723114
4.97029702970297,1.3344790127907489
4.99009900990099,1.334448068897297
5.00990099009901,1.3331306431016423
5.02970297029703,1.3305280224414742
5.0495049504950495,1.3266427897418305
5.069306930693069,1.3214788221757456
5.089108910891089,1.3150412890489147
5.108910891089109,1.307336648842656
5.128712871287129,1.2983726455621132
5.148514851485149,1.2881583044504799
5.1683168316831685,1.2767039271462772
5.188118811881188,1.2640210863793477
5.207920792079208,1.2501226203236198
5.227722772277227,1.2350226267511786
5.247524752475248,1.218736457164703
5.267326732673268,1.2012807111247865
5.2871287128712865,1.1826732310380492
5.306930693069307,1.1629330977330303
5.326732673267327,1.1420806272282567
5.346534653465346,1.1201373691948024
5.366336633663367,1.097126107740937
5.3861386138613865,1.0730708653084955
5.405940594059405,1.0479969106805065
5.425742574257426,1.0219307723755706
5.445544554455446,0.9949002590691088
5.465346534653465,0.9669344891683451
5.485148514851486,0.9380639323240058
5.504950495049505,0.9083204665547998
5.524752475247524,0.877737455889514
5.544554455445545,0.8463498551419193
5.564356435643565,0.814194350842609
5.584158415841584,0.7813095507894692
5.603960396039604,0.7477362396521304
5.623762376237624,0.7135177253684135
5.643564356435643,0.6787003119660677
5.663366336633663,0.6433339509759577
5.683168316831684,0.6074731491553752
5.702970297029703,0.5711782505111039
5.7227722772277225,0.5345172754225346
5.742574257425743,0.4975686063016402
5.762376237623762,0.4604249887905421
5.782178217821782,0.4231996270772863
5.801980198019803,0.3860356979563747
5.821782178217822,0.34912159035294116
5.841584158415841,0.31271596238357474
5.861386138613861,0.27718991851614294
5.881188118811881,0.2430990048574075
5.900990099009901,0.21130467742648434
5.920792079207921,0.18316338939602722
5.9405940594059405,0.1607436653052563
5.96039603960396,0.14679738487858682
5.98019801980198,0.14387162846653737
6.0,0.15261463308101078
6.01980198019802,0.17122084896157214
6.03960396039604,0.19685600924902671
6.0594059405940595,0.22707321588480017
6.079207920792079,0.2601868327980805
6.099009900990099,0.2951184357497712
6.118811881188119,0.33118032563940664
6.138613861386139,0.3679216779942277
6.158415841584159,0.40503491300878314
6.178217821782178,0.4423007936134453
6.198019801980198,0.47955609333023813
6.217821782178218,0.5166741709008446
6.237623762376237,0.5535529998476715
6.257425742574258,0.5901075958997598
6.2772277227722775,0.6262651043743923
6.297029702970296,0.6619615380153803
6.316831683168317,0.6971395645357841
6.336633663366337,0.7317469774907773
6.356435643564356,0.7657356216824466
6.376237623762377,0.799060626969661
6.396039603960396,0.83167985517455
6.415841584158415,0.8635534966945327
6.435643564356436,0.8946437738856784
6.455445544554456,0.9249147216439215
6.475247524752475,0.9543320244931818
6.495049504950495,0.9828628954918089
6.514851485148515,1.0104759863880883
6.534653465346534,1.0371413213226326
6.554455445544554,1.0628302483987124
6.574257425742575,1.087515404886011
6.594059405940594,1.1111706928683298
6.6138613861386135,1.1337712629082541
6.633663366336634,1.1552935038658754
6.653465346534653,1.1757150374285
6.673267326732673,1.195014716224815
6.693069306930694,1.213172624637009
6.712871287128713,1.2301700816084629
6.732673267326732,1.245989644886542
6.752475247524753,1.260615116250941
6.772277227722772,1.2740315473645785
6.792079207920792,1.2862252459530086
6.811881188118813,1.2971837820730168
6.8316831683168315,1.3068959942752125
6.851485148514851,1.3153519955013795
6.871287128712871,1.3225431785866344
6.891089108910891,1.328462221260866
6.910891089108911,1.3331030905646633
6.930693069306931,1.336461046612083
6.9504950495049505,1.3385326456482558
6.97029702970297,1.3393157423629216
6.99009900990099,1.3388094914335145
7.00990099009901,1.337014348282654
7.02970297029703,1.3339320690458991
7.0495049504950495,1.3295657097563645
7.069306930693069,1.3239196247638447
7.089108910891089,1.3169994644176568
7.108910891089109,1.308812172054711
7.128712871287128,1.2993659803484916
7.148514851485149,1.2886704070897876
7.1683168316831685,1.2767362504885698
7.188118811881187,1.2635755841071687
7.207920792079208,1.249201751560463
7.227722772277228,1.2336293611493223
7.247524752475247,1.2168742806301676
7.267326732673268,1.198953632369882
7.287128712871287,1.179885789191612
7.306930693069306,1.1596903712883422
7.326732673267327,1.1383882446706812
7.346534653465347,1.11600152172988
7.366336633663366,1.0925535646433897
7.3861386138613865,1.068068992539778
7.405940594059406,1.042573693587249
7.425742574257425,1.0160948434941468
7.445544554455446,0.9886609323412038
7.465346534653466,0.9603018022411698
7.485148514851485,0.9310486991011923
7.504950495049505,0.9009343428262268
7.524752475247524,0.8699930217704714
7.544554455445544,0.8382607192928256
7.564356435643565,0.8057752831687002
7.584158415841584,0.7725766527577719
7.603960396039604,0.7387071648479309
7.623762376237624,0.7042119679692785
7.643564356435643,0.6691395882591455
7.663366336633663,0.6335427101995095
7.683168316831684,0.5974792669461104
7.702970297029703,0.5610139846341318
7.7227722772277225,0.5242206052361467
7.742574257425743,0.4871851448387398
7.762376237623762,0.4500107673005939
7.782178217821782,0.41282523766563267
7.801980198019803,0.3757925949136084
7.821782178217822,0.3391318849625047
7.841584158415841,0.3031479275627592
7.861386138613862,0.26828273151743404
7.881188118811881,0.23520153864632623
7.900990099009901,0.20493127804050362
7.92079207920792,0.1790519306396882
7.9405940594059405,0.15983634929442156
7.96039603960396,0.14995762894777756
7.980198019801979,0.15129878258690602
8.0,0.16358207859773158
8.01980198019802,0.18459813834852556
8.03960396039604,0.211697601644929
8.05940594059406,0.24276819857242152
8.07920792079208,0.27637649945322423
8.099009900990099,0.3115951733562068
8.118811881188119,0.34782094153643034
8.138613861386139,0.38464971445353385
8.158415841584159,0.421800152925291
8.178217821782178,0.45906808157140844
8.198019801980198,0.4962991237590912
8.217821782178218,0.5333719548123261
8.237623762376238,0.570187807605556
8.257425742574258,0.6066637337816234
8.277227722772277,0.6427281739611894
8.297029702970297,0.6783179817862733
8.316831683168317,0.7133763847693839
8.336633663366337,0.7478515621180759
8.356435643564357,0.7816956372401965
8.376237623762377,0.8148639542436897
8.396039603960396,0.8473145523106569
8.415841584158416,0.8790077801316536
8.435643564356436,0.909906010911669
8.455445544554456,0.9399734305390046
8.475247524752476,0.9691758796063725
8.495049504950495,0.9974807354874973
8.514851485148515,1.0248568244833813
8.534653465346535,1.0512743567218907
8.554455445544555,1.0767048783891509
8.574257425742575,1.101121237231768
8.594059405940595,1.1244975582577728
8.613861386138613,1.1468092272896575
8.633663366336634,1.1680328805614184
8.653465346534654,1.1881463989545609
8.673267326732672,1.2071289057726289
8.693069306930694,1.2249607671857732
8.712871287128714,1.2416235946557828
8.732673267326732,1.2571002487896963
8.752475247524753,1.2713748441788364
8.772277227722773,1.2844327548643741
8.792079207920791,1.296260620138961
8.811881188118813,1.3068463504472698
8.831683168316832,1.3161791331923385
8.85148514851485,1.3242494382900891
8.871287128712872,1.3310490233437993
8.891089108910892,1.3365709383345523
8.91089108910891,1.3408095297445772
8.930693069306932,1.343760444047952
8.950495049504951,1.3454206305187975
8.97029702970297,1.3457883433208697
8.990099009900991,1.3448631428550493
9.00990099009901,1.3426458963536358
9.029702970297029,1.3391387777213006
9.04950495049505,1.3343452666347364
9.06930693069307,1.328270146924654
9.089108910891088,1.320919504276661
9.10891089108911,1.3123007233014312
9.12871287128713,1.3024224840398198
9.148514851485148,1.2912947579868794
9.16831683168317,1.278928803738545
9.188118811881187,1.2653371623898662
9.207920792079207,1.250533652842195
9.227722772277229,1.234533367212336
9.247524752475247,1.2173526665798122
9.267326732673267,1.1990091773613794
9.287128712871288,1.1795217886686904
9.306930693069306,1.158910651088064
9.326732673267326,1.137197177426691
9.346534653465348,1.114404046104287
9.366336633663366,1.090555208041763
9.386138613861386,1.0656758981224204
9.405940594059407,1.039792652593656
9.425742574257425,1.0129333341617623
9.445544554455445,0.9851271670445324
9.465346534653467,0.9564047849318904
9.485148514851485,0.9267982957338077
9.504950495049505,0.8963413682649374
9.524752475247526,0.8650693477725346
9.544554455445544,0.833019409671011
9.564356435643564,0.8002307643262507
9.584158415841586,0.7667449307240188
9.603960396039604,0.732606104117543
9.623762376237623,0.6978616534685809
9.643564356435645,0.6625628005738652
9.663366336633663,0.6267655572918869
9.683168316831683,0.5905320353646799
9.702970297029704,0.5539323035805579
9.722772277227723,0.5170470642457724
9.742574257425742,0.47997158098006776
9.762376237623764,0.4428215585549012
9.782178217821782,0.4057421347233578
9.801980198019802,0.3689219390620646
9.821782178217823,0.3326155527535102
9.841584158415841,0.29718003756926287
9.861386138613861,0.263134808146988
9.881188118811881,0.23125807798116796
9.900990099009901,0.20273021540932926
9.92079207920792,0.17929577442514869
9.94059405940594,0.1632746213371474
9.96039603960396,0.1570253382684489
9.98019801980198,0.16171276808014148
10.0,0.17645446251544278
10.01980198019802,0.1989830198459529
10.03960396039604,0.2269218306533605
10.05940594059406,0.25843552135279313
10.07920792079208,0.2922706772212352
10.099009900990099,0.3276002441340576
10.118811881188119,0.36387392066566393
10.138613861386139,0.40071521927595916
10.158415841584159,0.43785714623314886
10.178217821782178,0.47510293913976287
10.198019801980198,0.5123019737184394
10.217821782178218,0.5493347267084134
10.237623762376238,0.5861031894188515
10.257425742574258,0.6225246192206665
10.277227722772277,0.6585273782265638
10.297029702970297,0.6940481057197625
10.316831683168317,0.7290297612181259
10.336633663366337,0.7634202475116861
10.356435643564357,0.7971714274632274
10.376237623762377,0.8302384129060562
10.396039603960396,0.8625790446511572
10.415841584158416,0.894153508741323
10.435643564356436,0.9249240511753939
10.455445544554454,0.9548547646888036
10.475247524752476,0.9839114288567005
10.495049504950495,1.0120613900542401
10.514851485148514,1.0392734714738605
10.534653465346535,1.0655179059832383
10.554455445544555,1.0907662864512933
10.574257425742573,1.1149915295012045
10.594059405940595,1.1381678496210061
10.613861386138614,1.160270741279033
10.633663366336632,1.1812769672254115
