Frequency (Hz),Amplitude
0.0,1.4405198071779277
0.019823788546255508,1.4431625965820412
0.039647577092511016,1.4510515809564832
0.059471365638766524,1.4640707672736206
0.07929515418502203,1.4820337461380793
0.09911894273127755,1.504693136354075
0.11894273127753305,1.531752171697642
0.13876651982378857,1.5628772164286526
0.15859030837004406,1.5977100992798292
0.17841409691629956,1.6358794019519567
0.1982378854625551,1.6770101459300557
0.2180616740088106,1.7207316192151891
0.2378854625550661,1.766683326202971
0.25770925110132165,1.8145192107455936
0.27753303964757714,1.8639103967212933
0.29735682819383263,1.9145467263156861
0.31718061674008813,1.9661373716163384
0.3370044052863437,2.0184107666320794
0.3568281938325991,2.0711140673624686
0.37665198237885467,2.12401230579491
0.3964757709251102,2.176887364849675
0.41629955947136565,2.2295368678328864
0.4361233480176212,2.281773048667803
0.4559471365638767,2.3334216478214524
0.4757709251101322,2.3843208626977392
0.49559471365638774,2.4343203694261466
0.5154185022026433,2.4832804245421984
0.5352422907488987,2.5310710492376
0.5550660792951543,2.5775712949908645
0.5748898678414097,2.6226685869445334
0.5947136563876653,2.666258139964143
0.6145374449339208,2.70824244158856
0.6343612334801763,2.748530795834393
0.6541850220264318,2.7870389218835654
0.6740088105726874,2.8236886019464547
0.6938325991189428,2.8584073729708757
0.7136563876651982,2.8911282573036408
0.7334801762114539,2.921789527869575
0.7533039647577093,2.9503345038876234
0.7731277533039648,2.976711373581257
0.7929515418502204,3.0008730407513804
0.8127753303964759,3.0227769924608032
0.8325991189427313,3.042385185428709
0.8524229074889869,3.0596639490521143
0.8722466960352424,3.074583903261026
0.8920704845814978,3.087119889676818
0.9118942731277534,3.097250914783459
0.931718061674009,3.104960104039916
0.9515418502202644,3.1102346660639535
0.9713656387665199,3.113065866204937
0.9911894273127755,3.1134490089989337
1.0110132158590308,3.1113834291669726
1.0308370044052866,3.1068724909787946
1.0506607929515421,3.0999235959629963
1.0704845814977975,3.0905481991027397
1.090308370044053,3.078761833816783
1.1101321585903086,3.0645841461913914
1.1299559471365639,3.04803893910212
1.1497797356828194,3.0291542270489447
1.1696035242290752,3.0079623027262206
1.1894273127753305,2.984499816563303
1.209251101321586,2.9588078707067003
1.2290748898678416,2.9309321291712296
1.248898678414097,2.9009229461712382
1.2687224669603525,2.868835514954096
1.288546255506608,2.834730039800185
1.3083700440528636,2.7986719342272437
1.3281938325991192,2.760732048840915
1.3480176211453747,2.7209869327056064
1.36784140969163,2.6795191325619254
1.3876651982378856,2.6364175346766876
1.4074889867841411,2.5917777545571186
1.4273127753303965,2.545702580158819
1.4471365638766522,2.4983024745161257
1.4669603524229078,2.4496961438498794
1.4867841409691631,2.4000111770536585
1.5066079295154187,2.3493847618733517
1.5264317180616742,2.2979644818678553
1.5462555066079295,2.245909196083475
1.5660792951541853,2.1933899999107087
1.5859030837004409,2.1405912603218673
1.6057268722466962,2.087711710983672
1.6255506607929517,2.034965581836155
1.6453744493392073,1.9825837227542114
1.6651982378854626,1.9308146609456902
1.6850220264317182,1.8799255059930424
1.7048458149779737,1.8302025845142234
1.7246696035242293,1.7819516487603546
1.7444933920704848,1.7354974620666344
1.7643171806167404,1.6911825233156426
1.7841409691629957,1.6493646602004757
1.8039647577092512,1.6104132089032295
1.8237885462555068,1.574703521611908
1.8436123348017623,1.5426096210295757
1.863436123348018,1.51449496842049
1.8832599118942732,1.4907015349955917
1.9030837004405288,1.471537653077192
1.9229074889867843,1.457265434673946
1.9427312775330399,1.4480888150105764
1.9625550660792954,1.444143426014281
1.982378854625551,1.4454894582082969
2.002202643171806,1.4521083981267635
2.0220264317180616,1.4639040648432253
2.041850220264317,1.480707808622304
2.061674008810573,1.5022872059735395
2.0814977973568287,1.5283572061633874
2.1013215859030843,1.55859252140777
2.1211453744493394,1.5926401069134375
2.140969162995595,1.6301307934813547
2.1607929515418505,1.670689434589267
2.180616740088106,1.7139432356508078
2.2004405286343616,1.7595281921414603
2.220264317180617,1.8070937500403863
2.2400881057268722,1.8563059142450313
2.2599118942731278,1.9068490801385443
2.2797356828193833,1.958426867843017
2.299559471365639,2.0107622151232434
2.319383259911895,2.0635969473646862
2.3392070484581504,2.1166910013222306
2.3590308370044055,2.169821439427689
2.378854625550661,2.2227813564615864
2.3986784140969166,2.2753787514906945
2.418502202643172,2.3274354151220633
2.4383259911894277,2.3787858646939917
2.4581497797356833,2.429276347135913
2.4779735682819384,2.4787639199753304
2.497797356828194,2.5271156145279194
2.5176211453744495,2.574207680975415
2.537444933920705,2.6199249122560455
2.5572687224669606,2.6641600420217073
2.577092511013216,2.706813211026001
2.5969162995594717,2.747791495948113
2.6167400881057272,2.7870084946515434
2.6365638766519828,2.824383962094681
2.6563876651982383,2.859843491462251
2.676211453744494,2.8933182355103746
2.6960352422907494,2.9247446635718006
2.715859030837005,2.9540643501249035
2.73568281938326,2.9812237912717046
2.7555066079295156,3.006174245889035
2.775330396475771,3.0288715986051202
2.7951541850220267,3.0492762421116226
2.8149779735682823,3.0673529766475984
2.834801762114538,3.0830709247887977
2.854625550660793,3.0964034599457886
2.874449339207049,3.107328147219918
2.8942731277533045,3.115826695490823
2.91409691629956,3.1218849198151806
2.9339207048458156,3.125492713407828
2.953744493392071,3.1266440286551287
2.9735682819383262,3.125336866780529
2.993392070484582,3.121573275945312
3.0132158590308373,3.1153593577273218
3.033039647577093,3.10670528207925
3.0528634361233484,3.095625311028276
3.072687224669604,3.0821378315438683
3.092511013215859,3.0662653981727774
3.1123348017621146,3.0480347862221033
3.1321585903083706,3.027477056466837
3.151982378854626,3.0046276325692642
3.1718061674008817,2.979526392627708
3.1916299559471373,2.952217776524642
3.2114537444933924,2.9227509110215455
3.231277533039648,2.8911797548530087
3.2511013215859035,2.8575632664083845
3.270925110132159,2.8219655969553328
3.2907488986784146,2.784456312758251
3.31057268722467,2.7451106498702416
3.3303964757709252,2.704009805826789
3.350220264317181,2.6612412729286303
3.3700440528634363,2.616899218252916
3.389867841409692,2.571084915944127
3.4096916299559474,2.5239072376635767
3.4295154185022034,2.475483207250123
3.4493392070484585,2.4259386255664834
3.469162995594714,2.3754087710347003
3.4889867841409696,2.3240391803074654
3.508810572687225,2.27198651161156
3.5286343612334807,2.2194194901799094
3.5484581497797363,2.1665199303914653
3.5682819383259914,2.1134838221682193
3.588105726872247,2.0605224591051265
3.6079295154185025,2.007863571880332
3.627753303964758,1.9557524117978926
3.6475770925110136,1.9044527050094215
3.667400881057269,1.8542473675190478
3.6872246696035247,1.8054388346975963
3.7070484581497802,1.7583488182609115
3.726872246696036,1.7133172622147552
3.7466960352422913,1.6707002339693264
3.7665198237885464,1.6308664684437228
3.7863436123348024,1.594192296373016
3.8061674008810575,1.56105475085441
3.8259911894273135,1.5318227752158624
3.8458149779735686,1.506846659896535
3.8656387665198246,1.4864461091885586
3.8854625550660797,1.4708976486382674
3.905286343612335,1.4604223711752877
3.925110132158591,1.4551752056690084
3.9449339207048464,1.4552368989970224
3.964757709251102,1.4606096881932205
3.9845814977973575,1.4712172183104657
4.004405286343612,1.4869087149522067
4.024229074889869,1.5074668718357078
4.044052863436123,1.5326184877292734
4.06387665198238,1.5620466659437457
4.083700440528634,1.5954033906223333
4.103524229074891,1.6323214751144148
4.123348017621146,1.6724251627093645
4.143171806167401,1.715338969780694
4.162995594713657,1.7606946358232463
4.182819383259912,1.8081362514362154
4.2026431718061685,1.8573237663988211
4.222466960352423,1.9079351445665318
4.242290748898679,1.959667447023849
4.262114537444934,2.012237107418279
4.28193832599119,2.065379628599322
4.301762114537445,2.118848888465119
4.321585903083701,2.1724162021991464
4.3414096916299565,2.2258692516505922
4.361233480176212,2.2790109620671206
4.381057268722468,2.3316583819637167
4.400881057268723,2.3836416030974563
4.420704845814979,2.4348027434842483
4.440528634361234,2.484995006229278
4.46035242290749,2.5340818197990447
4.4801762114537445,2.5819360605060515
4.500000000000001,2.628439354811177
4.5198237885462555,2.6734814571022705
4.539647577092512,2.7169596975230683
4.559471365638767,2.7587784939350204
4.579295154185023,2.798848922000869
4.599118942731278,2.837088337540777
4.618942731277533,2.8734200456307475
4.63876651982379,2.9077730113188607
4.658590308370044,2.9400816072821705
4.678414096916301,2.9702853942029255
4.6982378854625555,2.998328930089844
4.718061674008811,3.0241616051943816
4.737885462555067,3.047737499569487
4.757709251101322,3.069015260683583
4.777533039647578,3.087957998838082
4.797356828193833,3.1045331984416853
4.817180616740089,3.1187126434723353
4.837004405286344,3.130472355710212
4.856828193832599,3.139792544555855
4.876651982378855,3.1466575674591244
4.896475770925111,3.1510559001803933
4.9162995594713665,3.152980116288534
4.936123348017622,3.152426875472975
4.955947136563877,3.1493969204131553
4.975770925110133,3.143895082110141
4.995594713656388,3.135930293745057
5.015418502202644,3.125515613290317
5.035242290748899,3.1126682552638436
5.055066079295155,3.0974096321889832
5.07488986784141,3.079765406502468
5.094713656387666,3.0597655538472073
5.114537444933921,3.037444438894323
5.134361233480177,3.0128409050663736
5.154185022026432,2.985998379781734
5.174008810572688,2.9569649971130687
5.193832599118943,2.9257937400529914
5.213656387665199,2.892542604909349
5.2334801762114544,2.8572747907135345
5.25330396475771,2.820058916916831
5.2731277533039655,2.7809692730708235
5.292951541850221,2.740086104632623
5.312775330396477,2.697495939493707
5.332599118942731,2.6532919602851788
5.352422907488988,2.607574427934403
5.372246696035242,2.5604511622951995
5.392070484581499,2.5120380858834523
5.4118942731277535,2.462459836730262
5.43171806167401,2.4118504559854808
5.451541850220265,2.3603541549842624
5.47136563876652,2.308126164779026
5.491189427312777,2.255333668303935
5.511013215859031,2.2021568109382543
5.530837004405288,2.14878977870291
5.550660792951542,2.095441923964261
5.570484581497798,2.042338905504747
5.5903083700440535,1.9897237922523023
5.610132158590309,1.937858056969535
5.6299559471365646,1.8870223571736295
5.64977973568282,1.8375169654887211
5.669603524229076,1.789661671705159
5.689427312775331,1.7437949371738757
5.709251101321586,1.7002720448227666
5.729074889867842,1.6594619648231659
5.748898678414098,1.6217426606499548
5.768722466960353,1.5874946100939284
5.788546255506609,1.5570924280428478
5.808370044052864,1.5308946642394734
5.82819383259912,1.5092321073829182
5.848017621145375,1.492395231618314
5.867841409691631,1.480621719844353
5.887665198237886,1.4740852150803292
5.907488986784142,1.47288650715084
5.927312775330397,1.4770482031175636
5.9471365638766525,1.4865135557697806
5.966960352422908,1.5011496002581088
5.986784140969164,1.5207541903840807
6.00660792951542,1.545066060905778
6.026431718061675,1.5737767658358446
6.04625550660793,1.606543289193893
6.066079295154186,1.6430002653077485
6.085903083700441,1.6827710107022953
6.105726872246697,1.7254768785123054
6.125550660792952,1.7707447332508495
6.145374449339208,1.8182125690862545
6.1651982378854635,1.8675334451076284
6.185022026431718,1.9183779918023818
6.204845814977975,1.9704357693530195
6.224669603524229,2.023415748103181
6.244493392070486,2.0770461504085165
6.264317180616741,2.131073852993803
6.284140969162996,2.1852635077737386
6.303964757709252,2.2393965013916817
6.323788546255507,2.293269841591376
6.3436123348017635,2.3466950325062674
6.363436123348018,2.399496980686312
6.3832599118942746,2.4515129584198267
6.403083700440529,2.502591639751428
6.422907488986785,2.552592216677641
6.44273127753304,2.6013835975562394
6.462555066079296,2.6488436861617974
6.482378854625551,2.694858737556391
6.502202643171807,2.7393227856342492
6.5220264317180625,2.7821371365511958
6.541850220264318,2.8232099220499944
6.561674008810574,2.8624557067861316
6.581497797356829,2.899795144034541
6.601321585903085,2.935154674539749
6.62114537444934,2.968466263707243
6.640969162995596,2.999667172786962
6.6607929515418505,3.028699760148832
6.680616740088107,3.055511309180872
6.700440528634362,3.0800538797446313
6.720264317180618,3.102284180497542
6.740088105726873,3.122163459735501
6.759911894273129,3.1396574127228387
6.779735682819384,3.1547361037624735
6.799559471365639,3.167373901519303
6.819383259911895,3.1775494263473147
6.83920704845815,3.1852455085886042
6.859030837004407,3.1904491570136746
6.8788546255506615,3.193151536760218
6.898678414096917,3.193347956304005
6.918502202643173,3.191037863165276
6.938325991189428,3.186224848217753
6.958149779735684,3.1789166586295887
6.977973568281939,3.169125219627711
6.997797356828195,3.156866665443417
7.01762114537445,3.142161379967814
7.037444933920705,3.1250340478270813
7.0572687224669615,3.105513716779218
7.077092511013216,3.083633872541256
7.096916299559473,3.0594325273802103
7.116740088105728,3.0329523240469927
7.136563876651983,3.0042406569011493
7.156387665198239,2.9733498123705946
7.176211453744494,2.9403371312150046
7.19603524229075,2.905265195416962
7.215859030837005,2.868202042910873
7.235682819383261,2.8292214137755574
7.255506607929516,2.788403031955328
7.275330396475772,2.7458329270299267
7.295154185022027,2.7016038010059233
7.314977973568283,2.655815445529353
7.334801762114538,2.608575215277311
7.354625550660794,2.5599985635196316
7.374449339207049,2.5102096458623993
7.394273127753305,2.4593419978715683
7.4140969162995605,2.4075392914564233
7.433920704845816,2.3549561733353324
7.453744493392072,2.301759186292114
7.473568281938327,2.2481277698451
7.493392070484583,2.194255330854658
7.513215859030838,2.1403503658207548
7.533039647577093,2.086637604376401
7.552863436123348,2.0333591268826945
7.572687224669605,1.9807753872026135
7.59251101321586,1.929166043999674
7.612334801762115,1.878830470129304
7.6321585903083715,1.8300877707666376
7.651982378854627,1.783276099516591
7.671806167400882,1.7387510232129961
7.691629955947137,1.6968826593197843
7.711453744493394,1.6580513077305088
7.731277533039649,1.622641337746727
7.751101321585904,1.5910331885438653
7.7709251101321595,1.5635935107972185
7.790748898678416,1.5406637196468682
7.81057268722467,1.5225475252921647
7.830396475770926,1.5094983109231246
7.850220264317182,1.5017074678694182
7.870044052863436,1.499294895239481
7.889867841409693,1.5023027643457825
7.909691629955948,1.5106933225833241
7.929515418502204,1.5243510168610697
7.9493392070484585,1.5430886585299233
7.969162995594715,1.5666568573629434
7.9889867841409705,1.594755626694075
8.008810572687224,1.62704695478574
8.02863436123348,1.6631672344434374
8.048458149779737,1.7027386822651627
8.068281938325994,1.7453791813430266
8.088105726872246,1.7907102763984903
8.107929515418503,1.8383632921140212
8.12775330396476,1.8879837143747817
8.147577092511014,1.9392340715523615
8.167400881057269,1.9917955920780883
8.187224669603525,2.0453689127167345
8.207048458149782,2.0996740855034886
8.226872246696036,2.154450093117467
8.246696035242293,2.209454041380005
8.266519823788547,2.264460158899878
8.286343612334802,2.3192587003084575
8.306167400881058,2.373654821941245
8.325991189427315,2.4274674770920845
8.345814977973568,2.480528361429002
8.365638766519824,2.5326809269498916
8.38546255506608,2.583779474098618
8.405286343612337,2.6336883255692194
8.42511013215859,2.6822810812344753
8.444933920704846,2.7294399510115097
8.464757709251103,2.7750551609074834
8.484581497797357,2.8190244266567177
8.504405286343614,2.8612524890338946
8.524229074889869,2.9016507049370754
8.544052863436125,2.9401366885549964
8.56387665198238,2.976633997282784
8.583700440528636,3.0110718574667605
8.60352422907489,3.0433849255053587
8.623348017621145,3.07351308028052
8.643171806167402,3.1014012433289095
8.662995594713658,3.126999223572571
8.682819383259913,3.1502615838114227
8.702643171806168,3.1711475265319886
8.722466960352424,3.1896207969096304
8.74229074889868,3.2056496011753506
8.762114537444935,3.2192065387863904
8.78193832599119,3.2302685470846657
8.801762114537446,3.2388168573515754
8.821585903083701,3.2448369613747556
8.841409691629957,3.2483185878355076
8.861233480176212,3.249255688007056
8.881057268722468,3.2476464304268506
8.900881057268723,3.243493204374291
8.92070484581498,3.2368026321491885
8.940528634361234,3.227585590311931
8.960352422907489,3.2158572402128613
8.980176211453745,3.2016370683119177
9.000000000000002,3.184948936970391
9.019823788546258,3.165821146588878
9.039647577092511,3.144286510172099
9.059471365638768,3.120382441624731
9.079295154185024,3.0941510593257893
9.099118942731279,3.0656393067961645
9.118942731277533,3.0348990925662913
9.13876651982379,3.0019874516718588
9.158590308370046,2.9669667315560577
9.1784140969163,2.929904805537791
9.198237885462555,2.8908753174149053
9.218061674008812,2.8499579612050026
9.237885462555067,2.807238800475606
9.257709251101323,2.762810632163899
9.27753303964758,2.7167734002100685
9.297356828193834,2.669234664689421
9.317180616740089,2.620310132370029
9.337004405286345,2.5701242546638734
9.356828193832602,2.51881089866338
9.376651982378855,2.4665140961999197
9.396475770925111,2.413388874402174
9.416299559471367,2.359602168770971
9.436123348017622,2.3053338159234795
9.455947136563877,2.2507776173833474
9.475770925110133,2.196142457463856
9.49559471365639,2.1416534466454626
9.515418502202644,2.087553046030213
9.5352422907489,2.0341021076009427
9.555066079295155,1.9815807384227677
9.57488986784141,1.9302888643667904
9.594713656387666,1.8805463311142057
9.614537444933923,1.8326923394357924
9.634361233480178,1.7870839728150731
9.654185022026432,1.7440935465187588
9.674008810572689,1.7041045002489656
9.693832599118945,1.6675055871610804
9.713656387665198,1.6346831974618967
9.733480176211454,1.6060118091748854
9.75330396475771,1.581842785908788
9.773127753303967,1.5624920266816493
9.792951541850222,1.5482272756632043
9.812775330396477,1.5392561548129295
9.832599118942733,1.5357161119447433
9.852422907488988,1.5376674146900928
9.872246696035244,1.5450900419737599
9.892070484581499,1.5578848644939176
9.911894273127754,1.5758789579366708
9.93171806167401,1.5988343807750254
9.951541850220266,1.626459383545059
9.971365638766521,1.658420860674581
9.991189427312776,1.6943569087026298
10.011013215859032,1.7338885642563466
10.030837004405289,1.776630085333477
10.050660792951543,1.822197437549251
10.070484581497798,1.8702149014878178
10.090308370044054,1.9203199029171016
10.11013215859031,1.9721662812467091
10.129955947136565,2.025426263929818
10.14977973568282,2.0797914220129794
10.169603524229077,2.134972861281317
10.189427312775331,2.190700868048054
10.209251101321588,2.2467241883160347
10.229074889867842,2.3028090798883496
10.248898678414099,2.358738242286327
10.268722466960353,2.414309700356556
10.28854625550661,2.469335694327562
10.308370044052865,2.523641611277126
10.32819383259912,2.5770649796879037
10.348017621145376,2.629454539135635
10.367841409691632,2.680669390371087
10.387665198237887,2.7305782264343605
10.407488986784141,2.7790586424183847
10.427312775330398,2.8259965196342165
10.447136563876654,2.8712854788871813
10.466960352422909,2.9148263970965855
10.486784140969164,2.95652698139641
10.50660792951542,2.9963013950070594
10.526431718061675,3.034069929472338
10.546255506607931,3.06975871824662
10.566079295154186,3.103299487048725
10.585903083700442,3.1346293368411757
10.605726872246697,3.163690555728181
10.625550660792953,3.1904304564802017
10.645374449339208,3.214801236781409
10.665198237885463,3.2367598596562783
10.685022026431719,3.256267951861858
10.704845814977975,3.2732917183343084
