Frequency (Hz),Amplitude
0.0,1.7882397911954433
0.019823788546255508,1.7895067519941859
0.039647577092511016,1.7932972139666163
0.059471365638766524,1.7995801550806498
0.07929515418502203,1.808304655897647
0.09911894273127755,1.8194010295796097
0.11894273127753305,1.832782316850997
0.13876651982378857,1.8483460692596732
0.15859030837004406,1.865976335230614
0.17841409691629956,1.885545761623729
0.1982378854625551,1.9069177280581282
0.2180616740088106,1.9299484408026917
0.2378854625550661,1.9544889258837697
0.25770925110132165,1.980386875526371
0.27753303964757714,2.007488316614481
0.29735682819383263,2.035639083357997
0.31718061674008813,2.06468608800531
0.3370044052863437,2.094478392833951
0.3568281938325991,2.124868093693085
0.37665198237885467,2.155711030195119
0.3964757709251102,2.186867340540599
0.41629955947136565,2.2182018802622943
0.4361233480176212,2.249584524257099
0.4559471365638767,2.280890370682342
0.4757709251101322,2.31199986392141
0.49559471365638774,2.342798852117478
0.5154185022026433,2.373178592917007
0.5352422907488987,2.4030357191956657
0.5550660792951543,2.4322721747482703
0.5748898678414097,2.4607951282713176
0.5947136563876653,2.488516872482477
0.6145374449339208,2.515354713919004
0.6343612334801763,2.5412308578341407
0.6541850220264318,2.5660722916604413
0.6740088105726874,2.5898106697136525
0.6938325991189428,2.6123822011569793
0.7136563876651982,2.633727542712402
0.7334801762114539,2.6537916971791553
0.7533039647577093,2.672523918480153
0.7731277533039648,2.689877623694533
0.7929515418502204,2.705810312332082
0.8127753303964759,2.7202834929550814
0.8325991189427313,2.73326261714367
0.8524229074889869,2.7447170207255733
0.8722466960352424,2.754619872142308
0.8920704845814978,2.7629481277973595
0.9118942731277534,2.769682494221758
0.931718061674009,2.774807396896082
0.9515418502202644,2.7783109555818872
0.9713656387665199,2.780184966037335
0.9911894273127755,2.7804248880196076
1.0110132158590308,2.779029839508742
1.0308370044052866,2.7760025971221745
1.0506607929515421,2.771349602726014
1.0704845814977975,2.7650809762853865
1.090308370044053,2.7572105350324727
1.1101321585903086,2.7477558190645466
1.1299559471365639,2.736738123514937
1.1497797356828194,2.724182537465318
1.1696035242290752,2.7101179897861463
1.1894273127753305,2.6945773021015897
1.209251101321586,2.6775972490724103
1.2290748898678416,2.6592186261718607
1.248898678414097,2.6394863250913807
1.2687224669603525,2.6184494168495505
1.288546255506608,2.5961612425823732
1.3083700440528636,2.572679511858958
1.3281938325991192,2.5480664081834004
1.3480176211453747,2.5223887011012986
1.36784140969163,2.4957178640148228
1.3876651982378856,2.468130196408391
1.4074889867841411,2.4397069486824314
1.4273127753303965,2.410534447166376
1.4471365638766522,2.3807042161159044
1.4669603524229078,2.3503130925735696
1.4867841409691631,2.3194633288701847
1.5066079295154187,2.288262676251728
1.5264317180616742,2.2568244416283276
1.5462555066079295,2.225267507762558
1.5660792951541853,2.1937163053675897
1.5859030837004409,2.1623007236194143
1.6057268722466962,2.1311559435840564
1.6255506607929517,2.10042217714333
1.6453744493392073,2.0702442923494604
1.6651982378854626,2.04077130498391
1.6850220264317182,2.012155715736194
1.7048458149779737,1.984552673206903
1.7246696035242293,1.9581189452652716
1.7444933920704848,1.9330116855497361
1.7643171806167404,1.909386988432713
1.7841409691629957,1.8873982347969667
1.8039647577092512,1.8671942424947567
1.8237885462555068,1.8489172490782437
1.8436123348017623,1.8327007696080766
1.863436123348018,1.8186673879481714
1.8832599118942732,1.8069265544217015
1.9030837004405288,1.7975724742458483
1.9229074889867843,1.790682177930847
1.9427312775330399,1.7863138652175519
1.9625550660792954,1.784505607099311
1.982378854625551,1.7852744758499657
2.002202643171806,1.7886161516002212
2.0220264317180616,1.7945050277090004
2.041850220264317,1.8028948085749865
2.061674008810573,1.8137195656085514
2.0814977973568287,1.8268951927077595
2.1013215859030843,1.8423211840565348
2.1211453744493394,1.8598826457911577
2.140969162995595,1.879452449437224
2.1607929515418505,1.90089343840545
2.180616740088106,1.9240606079247
2.2004405286343616,1.9488031918289008
2.220264317180617,1.9749666047504955
2.2400881057268722,2.0023942038220666
2.2599118942731278,2.0309288486050994
2.2797356828193833,2.0604142507275736
2.299559471365639,2.090696115110814
2.319383259911895,2.121623082546337
2.3392070484581504,2.153047488856198
2.3590308370044055,2.1848259592192956
2.378854625550661,2.216819857842819
2.3986784140969166,2.2488956133981937
2.418502202643172,2.2809249398999687
2.4383259911894277,2.3127849713105895
2.4581497797356833,2.344358326372758
2.4779735682819384,2.375533118211728
2.497797356828194,2.4062029212638234
2.5176211453744495,2.436266706178511
2.537444933920705,2.4656287515757063
2.5572687224669606,2.4941985399526656
2.577092511013216,2.521890643641266
2.5969162995594717,2.5486246055163964
2.6167400881057272,2.574324818138908
2.6365638766519828,2.5989204041684375
2.6563876651982383,2.6223451001823777
2.676211453744494,2.6445371454699558
2.6960352422907494,2.665439176915253
2.715859030837005,2.684998130723352
2.73568281938326,2.7031651514642743
2.7555066079295156,2.719895508695506
2.775330396475771,2.7351485212650095
2.7951541850220267,2.7488874892813557
2.8149779735682823,2.76107963365879
2.834801762114538,2.7716960430943116
2.854625550660793,2.780711628306495
2.874449339207049,2.788105083356497
2.8942731277533045,2.793858853876289
2.91409691629956,2.7979591120455845
2.9339207048458156,2.800395738183099
2.953744493392071,2.8011623088494053
2.9735682819383262,2.80025609139419
2.993392070484582,2.797678044920291
3.0132158590308373,2.7934328276786897
3.033039647577093,2.7875288109509286
3.0528634361233484,2.779978099518577
3.072687224669604,2.7707965588608205
3.092511013215859,2.7600038492606402
3.1123348017621146,2.747623467035979
3.1321585903083706,2.733682793141827
3.151982378854626,2.718213149412928
3.1718061674008817,2.701249862728113
3.1916299559471373,2.6828323373771514
3.2114537444933924,2.6630041358921157
3.231277533039648,2.6418130685640873
3.2511013215859035,2.6193112917959995
3.270925110132159,2.5955554153356877
3.2907488986784146,2.5706066182803915
3.31057268722467,2.5445307735340212
3.3303964757709252,2.517398580117643
3.350220264317181,2.489285702366475
3.3700440528634363,2.460272914574568
3.389867841409692,2.4304462490512964
3.4096916299559474,2.399897144807966
3.4295154185022034,2.368722593176175
3.4493392070484585,2.3370252755455754
3.469162995594714,2.3049136870772475
3.4889867841409696,2.272502238681665
3.508810572687225,2.2399113277404497
3.5286343612334807,2.2072673660061954
3.5484581497797363,2.174702750866558
3.5682819383259914,2.1423557637724735
3.588105726872247,2.1103703772158133
3.6079295154185025,2.0788959493655614
3.627753303964758,2.048086783571106
3.6475770925110136,2.0181015287292805
3.667400881057269,1.9891023963818415
3.6872246696035247,1.9612541718213035
3.7070484581497802,1.9347229999369795
3.726872246696036,1.9096749325125328
3.7466960352422913,1.8862742325849609
3.7665198237885464,1.8646814434826473
3.7863436123348024,1.845051245145723
3.8061674008810575,1.827530137720086
3.8259911894273135,1.8122540111011722
3.8458149779735686,1.7993456774335714
3.8656387665198246,1.7889124594424284
3.8854625550660797,1.7810439385494945
3.905286343612335,1.775809970795927
3.925110132158591,1.7732590739875584
3.9449339207048464,1.773417275487027
3.964757709251102,1.7762874872463212
3.9845814977973575,1.7818494448757354
4.004405286343612,1.7900602137772237
4.024229074889869,1.8008552312964548
4.044052863436123,1.8141498231812696
4.06387665198238,1.8298411085107884
4.083700440528634,1.8478101917461363
4.103524229074891,1.8679245344054896
4.123348017621146,1.8900404015588916
4.143171806167401,1.9140052883340055
4.162995594713657,1.9396602467737454
4.182819383259912,1.966842051359262
4.2026431718061685,1.9953851601570716
4.222466960352423,2.0251234461419174
4.242290748898679,2.0558916885978546
4.262114537444934,2.0875268269568528
4.28193832599119,2.1198689888002407
4.301762114537445,2.152762310170131
4.321585903083701,2.186055570177893
4.3414096916299565,2.219602663627427
4.361233480176212,2.2532629354886757
4.381057268722468,2.2869014000275714
4.400881057268723,2.3203888656232228
4.420704845814979,2.353601984106615
4.440528634361234,2.3864232410833095
4.46035242290749,2.4187409013332806
4.4801762114537445,2.4504489211308895
4.500000000000001,2.4814468372696883
4.5198237885462555,2.5116396407453316
4.539647577092512,2.5409376414582088
4.559471365638767,2.569256328940106
4.579295154185023,2.5965162329700076
4.599118942731278,2.6226427870037456
4.618942731277533,2.647566196575029
4.63876651982379,2.6712213142095695
4.658590308370044,2.6935475219052956
4.678414096916301,2.714488621850763
4.6982378854625555,2.7339927357615377
4.718061674008811,2.75201221299463
4.737885462555067,2.7685035474412225
4.757709251101322,2.7834273030853187
4.777533039647578,2.796748048041683
4.797356828193833,2.8084342968429064
4.817180616740089,2.818458460725368
4.837004405286344,2.8267968056633257
4.856828193832599,2.833429417913629
4.876651982378855,2.8383401768593903
4.896475770925111,2.8415167349744435
4.9162995594713665,2.8429505047715242
4.936123348017622,2.8426366526429074
4.955947136563877,2.8405740995518665
4.975770925110133,2.8367655285859885
4.995594713656388,2.831217399437359
5.015418502202644,2.8239399699301675
5.035242290748899,2.814947324771205
5.055066079295155,2.8042574117536745
5.07488986784141,2.7918920856968055
5.094713656387666,2.7778771604532486
5.114537444933921,2.7622424693602174
5.134361233480177,2.7450219345473177
5.154185022026432,2.726253645540325
5.174008810572688,2.705979947613594
5.193832599118943,2.684247540337326
5.213656387665199,2.6611075867364433
5.2334801762114544,2.636615833414612
5.25330396475771,2.6108327418942987
5.2731277533039655,2.5838236312658323
5.292951541850221,2.555658832015222
5.312775330396477,2.526413850591108
5.332599118942731,2.496169543857557
5.352422907488988,2.4650123020357317
5.372246696035242,2.433034238035923
5.392070484581499,2.400333380190945
5.4118942731277535,2.367013864287276
5.43171806167401,2.333186119415565
5.451541850220265,2.29896704049362
5.47136563876652,2.2644801383215984
5.491189427312777,2.229855655693625
5.511013215859031,2.195230635414223
5.530837004405288,2.160748923083536
5.550660792951542,2.1265610843021427
5.570484581497798,2.0928242126471814
5.5903083700440535,2.059701601611776
5.610132158590309,2.027362251008075
5.6299559471365646,1.995980176556624
5.64977973568282,1.965733491088007
5.669603524229076,1.936803227637947
5.689427312775331,1.9093718794592867
5.709251101321586,1.8836216403119
5.729074889867842,1.8597323408844715
5.748898678414098,1.8378790940839214
5.768722466960353,1.8182296829154405
5.788546255506609,1.800941748778645
5.808370044052864,1.7861598634083082
5.82819383259912,1.7740125917653298
5.848017621145375,1.7646096727021496
5.867841409691631,1.7580394557681576
5.887665198237886,1.7543667330935522
5.907488986784142,1.7536310930087464
5.927312775330397,1.7558458967380275
5.9471365638766525,1.760997942976996
5.966960352422908,1.769047841150916
5.986784140969164,1.7799310677216786
6.00660792951542,1.7935596365715716
6.026431718061675,1.8098242791766757
6.04625550660793,1.8285970064881465
6.066079295154186,1.8497339137265991
6.085903083700441,1.8730780912353595
6.105726872246697,1.8984625170788154
6.125550660792952,1.925712827142066
6.145374449339208,1.9546498826824894
6.1651982378854635,1.9850920804477432
6.185022026431718,2.016857374094202
6.204845814977975,2.049764996017805
6.224669603524229,2.0836368849590565
6.244493392070486,2.1182988366543416
6.264317180616741,2.1535814026584505
6.284140969162996,2.1893205668347586
6.303964757709252,2.2253582306101554
6.323788546255507,2.261542537641587
6.3436123348017635,2.297728066693541
6.363436123348018,2.3337759188262797
6.3832599118942746,2.3695537218703664
6.403083700440529,2.404935571925187
6.422907488986785,2.4398019284819474
6.44273127753304,2.474039476866805
6.462555066079296,2.5075409691024135
6.482378854625551,2.5402050520221247
6.502202643171807,2.5719360895426586
6.5220264317180625,2.60264398438717
6.541850220264318,2.6322440032231316
6.561674008810574,2.6606566081031797
6.581497797356829,2.6878072962378314
6.601321585903085,2.713626449452594
6.62114537444934,2.738049194158265
6.640969162995596,2.76101527226467
6.6607929515418505,2.7824689231716144
6.680616740088107,2.802358776756137
6.700440528634362,2.8206377571257546
6.720264317180618,2.8372629968100043
6.740088105726873,2.852195761005359
6.759911894273129,2.8654013814630375
6.779735682819384,2.8768491996081815
6.799559471365639,2.8865125184963434
6.819383259911895,2.894368563245231
6.83920704845815,2.900398449622155
6.859030837004407,2.904587160519349
6.8788546255506615,2.906923530105578
6.898678414096917,2.9074002355060387
6.918502202643173,2.906013795927208
6.938325991189428,2.9027645792130308
6.958149779735684,2.8976568158896194
6.977973568281939,2.890698620828865
6.997797356828195,2.8819020227354972
7.01762114537445,2.8712830017378
7.037444933920705,2.8588615354371525
7.0572687224669615,2.844661653847498
7.077092511013216,2.8287115037280945
7.096916299559473,2.81104342288447
7.116740088105728,2.791694025076138
7.136563876651983,2.7707042962278576
7.156387665198239,2.748119702684692
7.176211453744494,2.7239903122799314
7.19603524229075,2.6983709289880036
7.215859030837005,2.671321241906041
7.235682819383261,2.6429059892349196
7.255506607929516,2.613195137799467
7.275330396475772,2.582264078440559
7.295154185022027,2.5501938373051147
7.314977973568283,2.5170713026275497
7.334801762114538,2.4829894660024867
7.354625550660794,2.4480476763546766
7.374449339207049,2.4123519037699395
7.394273127753305,2.3760150090066747
7.4140969162995605,2.3391570128034744
7.433920704845816,2.3019053569700083
7.453744493392072,2.264395146639008
7.473568281938327,2.226769359915195
7.493392070484583,2.1891790074565782
7.513215859030838,2.151783220276466
7.533039647577093,2.1147492393375744
7.552863436123348,2.0782522754898065
7.572687224669605,2.0424752032796922
7.59251101321586,2.007608047594653
7.612334801762115,1.9738472186621248
7.6321585903083715,1.9413944494851685
7.651982378854627,1.9104553914509599
7.671806167400882,1.8812378298258383
7.691629955947137,1.8539494923914075
7.711453744493394,1.8287954425974422
7.731277533039649,1.8059750737995828
7.751101321585904,1.7856787530018137
7.7709251101321595,1.7680841993663952
7.790748898678416,1.7533527214390463
7.81057268722467,1.741625472972739
7.830396475770926,1.733019914820638
7.850220264317182,1.7276266838685985
7.870044052863436,1.7255070647123654
7.889867841409693,1.7266912334192457
7.909691629955948,1.731177396231343
7.929515418502204,1.738931884064204
7.9493392070484585,1.7498901937458702
7.969162995594715,1.7639588983358883
7.9889867841409705,1.7810182904972043
8.008810572687224,1.800925581622995
8.02863436123348,1.8235184588304731
8.048458149779737,1.848618802003851
8.068281938325994,1.8760363806993996
8.088105726872246,1.9055723808391898
8.107929515418503,1.9370226479465018
8.12775330396476,1.9701805718717775
8.147577092511014,2.0048395733447752
8.167400881057269,2.0407951825623685
8.187224669603525,2.0778467231033915
8.207048458149782,2.1157986306236114
8.226872246696036,2.1544614456849525
8.246696035242293,2.193652524800962
8.266519823788547,2.2331965145717048
8.286343612334802,2.272925631819399
8.306167400881058,2.312679788940649
8.325991189427315,2.352306599074552
8.345814977973568,2.3916612907443118
8.365638766519824,2.430606556775648
8.38546255506608,2.4690123577831957
8.405286343612337,2.5067556964864717
8.42511013215859,2.543720375628298
8.444933920704846,2.579796749319274
8.464757709251103,2.6148814751927913
8.484581497797357,2.6488772727722134
8.504405286343614,2.681692691867681
8.524229074889869,2.713241893574682
8.544052863436125,2.7434444454830285
8.56387665198238,2.7722251319723257
8.583700440528636,2.7995137799254315
8.60352422907489,2.8252450997946172
8.623348017621145,2.849358541677271
8.643171806167402,2.871798165871294
8.662995594713658,2.8925125272650107
8.682819383259913,2.911454572855281
8.702643171806168,2.928581551667803
8.722466960352424,2.9438549363639948
8.74229074889868,2.9572403558530693
8.762114537444935,2.968707538277637
8.78193832599119,2.978230263804398
8.801762114537446,2.9857863267221054
8.821585903083701,2.99135750642687
8.841409691629957,2.9949295469568136
8.861233480176212,2.996492144824034
8.881057268722468,2.996038944979401
8.900881057268723,2.993567544837532
8.92070484581498,2.9890795063809756
8.940528634361234,2.982580376459341
8.960352422907489,2.974079715495464
8.980176211453745,2.9635911349121677
9.000000000000002,2.9511323436956536
9.019823788546258,2.9367252046176686
9.039647577092511,2.920395800747002
9.059471365638768,2.9021745129917376
9.079295154185024,2.8820961095252975
9.099118942731279,2.8601998480612347
9.118942731277533,2.836529592050705
9.13876651982379,2.8111339419794983
9.158590308370046,2.7840663830340118
9.1784140969163,2.7553854504793844
9.198237885462555,2.7251549141410085
9.218061674008812,2.6934439833876134
9.237885462555067,2.6603275339658197
9.257709251101323,2.6258863579086986
9.27753303964758,2.5902074375068422
9.297356828193834,2.5533842439529733
9.317180616740089,2.51551706070354
9.337004405286345,2.476713330785556
9.356828193832602,2.437088026142793
9.376651982378855,2.3967640355769544
9.396475770925111,2.3558725657956883
9.416299559471367,2.3145535474176815
9.436123348017622,2.2729560343820445
9.455947136563877,2.231238580942334
9.475770925110133,2.1895695751881927
9.49559471365639,2.1481275017635686
9.515418502202644,2.107101099151612
9.5352422907489,2.066689368716218
9.555066079295155,2.0271013839698417
9.57488986784141,1.9885558398990035
9.594713656387666,1.9512802746118285
9.614537444933923,1.9155098905040993
9.634361233480178,1.8814859014663214
9.654185022026432,1.8494533386738168
9.674008810572689,1.8196582627058242
9.693832599118945,1.7923443564080588
9.713656387665198,1.7677489124784997
9.733480176211454,1.746098282001953
9.75330396475771,1.7276029123749796
9.773127753303967,1.7124521694534176
9.792951541850222,1.7008092004316522
9.812775330396477,1.6928061398752832
9.832599118942733,1.688539980232624
9.852422907488988,1.688069411379397
9.872246696035244,1.691412878051843
9.892070484581499,1.6985480134738136
9.911894273127754,1.7094124935730213
9.93171806167401,1.7239062357124242
9.951541850220266,1.741894757152276
9.971365638766521,1.7632134270493693
9.991189427312776,1.7876723010845446
10.011013215859032,1.815061221588703
10.030837004405289,1.8451548932306547
10.050660792951543,1.877717695269533
10.070484581497798,1.9125080547022306
10.090308370044054,1.949282269871174
10.11013215859031,1.9877977332792387
10.129955947136565,2.02781555066898
10.14977973568282,2.069102588966684
10.169603524229077,2.111433008799342
10.189427312775331,2.1545893496841892
10.209251101321588,2.198363240016223
10.229074889867842,2.2425558020657568
10.248898678414099,2.286977816504214
10.268722466960353,2.3314497032383845
10.28854625550661,2.375801366828664
10.308370044052865,2.4198719463602925
10.32819383259912,2.4635095018582374
10.348017621145376,2.5065706624617774
10.367841409691632,2.5489202557079755
10.387665198237887,2.590430932401442
10.407488986784141,2.6309827975969635
10.427312775330398,2.6704630550810426
10.447136563876654,2.708765670289226
10.466960352422909,2.7457910547214213
10.486784140969164,2.781445773508943
10.50660792951542,2.8156422767521367
10.526431718061675,2.848298654505804
10.546255506607931,2.8793384147759453
10.566079295154186,2.9086902835516044
10.585903083700442,2.936288025688323
10.605726872246697,2.962070285349709
10.625550660792953,2.985980444676444
10.645374449339208,3.007966499366398
10.665198237885463,3.0279809499007864
10.685022026431719,3.045980707227944
10.704845814977975,3.0619270118098183
