Frequency (Hz),Amplitude
0.0,4.634308271966037
0.01978021978021978,4.637334040928039
0.03956043956043956,4.646387711173728
0.05934065934065934,4.661398877344341
0.07912087912087912,4.682251852541978
0.0989010989010989,4.708788061145096
0.11868131868131868,4.74080921704978
0.13846153846153844,4.7780811347843315
0.15824175824175823,4.820338001616075
0.17802197802197803,4.867286932899171
0.1978021978021978,4.918612639401748
0.21758241758241756,4.973982051925668
0.23736263736263735,5.033048772233341
0.2571428571428572,5.095457246983118
0.2769230769230769,5.160846590146497
0.2967032967032967,5.228854006864034
0.31648351648351647,5.2991177961884715
0.3362637362637363,5.371279930644189
0.35604395604395606,5.444988226587019
0.3758241758241758,5.519898131040599
0.3956043956043956,5.59567415840494
0.4153846153846154,5.671991014764497
0.4351648351648351,5.748534449128928
0.45494505494505494,5.825001870478462
0.4747252747252747,5.9011027675583385
0.4945054945054945,5.976558965485044
0.5142857142857143,6.051104749805687
0.5340659340659341,6.1244868850086025
0.5538461538461538,6.1964645508491945
0.5736263736263736,6.266809216388074
0.5934065934065934,6.335304468438195
0.6131868131868132,6.401745808237873
0.6329670329670329,6.465940427628419
0.6527472527472528,6.5277069738175735
0.6725274725274726,6.586875309934834
0.6923076923076923,6.643286277007981
0.7120879120879121,6.696791461679602
0.7318681318681318,6.747252972907445
0.7516483516483516,6.794543230021056
0.7714285714285715,6.838544763810079
0.7912087912087912,6.87915003176989
0.810989010989011,6.9162612482041705
0.8307692307692308,6.949790229560175
0.8505494505494506,6.979658255133444
0.8703296703296702,7.005795943108228
0.8901098901098901,7.028143141785949
0.9098901098901099,7.046648835784773
0.9296703296703297,7.06127106696017
0.9494505494505494,7.071976869791774
0.9692307692307692,7.078742220998974
0.989010989010989,7.081552003182116
1.0087912087912088,7.080399982332595
1.0285714285714287,7.0752887991102735
1.0483516483516484,7.0662299738470935
1.0681318681318681,7.0532439252980526
1.087912087912088,7.036360003222125
1.1076923076923075,7.015616534933244
1.1274725274725275,6.9910608860115335
1.1472527472527472,6.962749535404275
1.1670329670329669,6.93074816517025
1.1868131868131868,6.895131765125036
1.2065934065934065,6.855984752623057
1.2263736263736265,6.813401107657212
1.2461538461538462,6.767484523360168
1.2659340659340659,6.718348571843231
1.2857142857142858,6.666116885096109
1.3054945054945055,6.610923350379857
1.3252747252747252,6.552912319158556
1.3450549450549452,6.492238828112735
1.3648351648351649,6.42906883013694
1.3846153846153846,6.3635794324181685
1.4043956043956045,6.2959591376938615
1.4241758241758242,6.2264080835657865
1.443956043956044,6.155138273268066
1.4637362637362636,6.082373789522425
1.4835164835164834,6.008350981033028
1.5032967032967033,5.933318608756779
1.523076923076923,5.857537936324045
1.542857142857143,5.7812827458911915
1.5626373626373626,5.704839257321289
1.5824175824175823,5.628505924993352
1.6021978021978023,5.552593082869062
1.621978021978022,5.4774224049018825
1.6417582417582417,5.403326144741301
1.6615384615384616,5.330646116344232
1.6813186813186813,5.259732376033236
1.7010989010989013,5.190941567309393
1.720879120879121,5.124634892979079
1.7406593406593405,5.061175685559936
1.7604395604395604,5.000926557116871
1.7802197802197801,4.944246124122822
1.7999999999999998,4.891485321841435
1.8197802197802198,4.842983345867395
1.8395604395604395,4.79906328505005
1.8593406593406594,4.760027538616742
1.879120879120879,4.726153138764711
1.8989010989010988,4.697687125567767
1.9186813186813187,4.6748421406458265
1.9384615384615385,4.657792416585251
1.9582417582417584,4.646670337985713
1.978021978021978,4.6415637356581625
1.9978021978021978,4.6425140477563716
2.0175824175824175,4.649515442001841
2.0373626373626372,4.662514944787516
2.0571428571428574,4.681413570208465
2.076923076923077,4.706068390003876
2.096703296703297,4.736295438940554
2.1164835164835165,4.771873313429264
2.1362637362637362,4.8125472968652625
2.1560439560439564,4.8580338343872524
2.175824175824176,4.908025181891194
2.195604395604396,4.962194067320612
2.215384615384615,5.020198223712586
2.2351648351648348,5.081684680077326
2.254945054945055,5.146293724895558
2.2747252747252746,5.213662485237526
2.2945054945054943,5.283428090280602
2.314285714285714,5.355230410061489
2.3340659340659338,5.428714378019325
2.353846153846154,5.50353191917039
2.3736263736263736,5.579343514891275
2.3934065934065933,5.655819440801717
2.413186813186813,5.732640716777444
2.4329670329670328,5.809499808354779
2.452747252747253,5.886101117339585
2.4725274725274726,5.962161296850873
2.4923076923076923,6.037409422765328
2.512087912087912,6.111587049935411
2.5318681318681318,6.18444817789332
2.5516483516483515,6.255759147208636
2.5714285714285716,6.325298484358636
2.5912087912087913,6.392856709966663
2.610989010989011,6.4582361225973255
2.6307692307692307,6.521250567973577
2.6505494505494505,6.581725201488217
2.6703296703296706,6.639496250197148
2.6901098901098903,6.694410779075832
2.70989010989011,6.74632646516092
2.7296703296703297,6.795111382255204
2.7494505494505495,6.840643798115242
2.769230769230769,6.882811985439125
2.7890109890109893,6.921514047502081
2.808791208791209,6.956657758928151
2.8285714285714287,6.988160421817028
2.8483516483516484,7.0159487372510565
2.8681318681318677,7.039958692073727
2.887912087912088,7.060135460745856
2.9076923076923076,7.076433322040766
2.9274725274725273,7.088815590324612
2.947252747252747,7.097254561178478
2.9670329670329667,7.101731471147032
2.986813186813187,7.102236471441323
3.0065934065934066,7.0987686154758505
3.0263736263736263,7.091335860178716
3.046153846153846,7.079955081076015
3.0659340659340657,7.0646521012139
3.085714285714286,7.045461734040959
3.1054945054945056,7.0224278404271185
3.1252747252747253,6.995603400039053
3.145054945054945,6.965050597322182
3.1648351648351647,6.930840922351626
3.184615384615385,6.893055286802449
3.2043956043956046,6.851784155247539
3.2241758241758243,6.807127691910789
3.243956043956044,6.759195922874391
3.2637362637362637,6.708108913550919
3.2835164835164834,6.653996960969063
3.3032967032967036,6.5970008000707825
3.3230769230769233,6.537271822757784
3.342857142857143,6.474972307835211
3.3626373626373627,6.410275659255005
3.3824175824175824,6.343366649132549
3.4021978021978025,6.274441660868535
3.4219780219780223,6.203708926320267
3.441758241758242,6.131388749302184
3.4615384615384617,6.057713705723464
3.481318681318681,5.982928808367504
3.501098901098901,5.907291621670145
3.520879120879121,5.831072308864104
3.5406593406593405,5.754553590555431
3.5604395604395602,5.678030590248778
3.58021978021978,5.601810538656719
3.5999999999999996,5.52621230499068
3.61978021978022,5.451565720092314
3.6395604395604395,5.378210653569504
3.659340659340659,5.306495805493389
3.679120879120879,5.236777173234035
3.6989010989010986,5.1694161562856475
3.718681318681319,5.104777267128392
3.7384615384615385,5.043225424948436
3.758241758241758,4.985122821938638
3.7780219780219784,4.930825369249772
3.7978021978021976,4.880678751405172
3.8175824175824173,4.835014143562991
3.8373626373626375,4.794143674205662
3.8571428571428568,4.758355744756398
3.876923076923077,4.727910344718909
3.896703296703296,4.703034523193006
3.916483516483517,4.683918191878501
3.936263736263736,4.6707104380999676
3.956043956043956,4.663516516947775
3.9758241758241755,4.662395668616254
3.9956043956043956,4.667359871324288
4.015384615384615,4.678373594398892
4.035164835164835,4.695354564191612
4.054945054945055,4.718175502381803
4.0747252747252745,4.746666746982069
4.094505494505494,4.780619625501452
4.114285714285715,4.819790420531873
4.134065934065934,4.863904752193071
4.153846153846154,4.912662199411153
4.173626373626373,4.965740991455957
4.193406593406594,5.0228026200036835
4.213186813186813,5.0834962471568295
4.232967032967033,5.147462813215317
4.252747252747253,5.214338776755396
4.2725274725274724,5.283759446523713
4.292307692307692,5.355361888265297
4.312087912087913,5.428787409024826
4.331868131868132,5.503683636413337
4.351648351648352,5.579706220982184
4.371428571428571,5.656520196647707
4.391208791208792,5.73380103768132
4.410989010989011,5.811235451790571
4.43076923076923,5.888521947918061
4.450549450549451,5.965371215157389
4.4703296703296695,6.041506346118495
4.49010989010989,6.116662934557504
4.50989010989011,6.190589073415294
4.52967032967033,6.263045275793404
4.549450549450549,6.333804337980259
4.569230769230769,6.402651160509069
4.589010989010989,6.469382540427272
4.608791208791209,6.533806945500362
4.628571428571428,6.595744278953252
4.648351648351649,6.655025641551457
4.6681318681318675,6.71149309631358
4.687912087912088,6.764999439895998
4.707692307692308,6.815407983667316
4.7274725274725276,6.8625923466633205
4.747252747252747,6.906436261954342
4.767032967032967,6.94683339743916
4.786813186813187,6.983687191680165
4.806593406593407,7.016910705093098
4.826373626373626,7.046426486583651
4.846153846153847,7.072166455568088
4.8659340659340655,7.0940717992129505
4.885714285714286,7.112092884669659
4.905494505494506,7.126189186054811
4.9252747252747255,7.136329225928361
4.945054945054945,7.142490531044357
4.964835164835165,7.144659602187058
4.984615384615385,7.142831897954585
5.004395604395604,7.13701183240964
5.024175824175824,7.1272127865782124
5.043956043956045,7.113457133840195
5.0637362637362635,7.095776279316777
5.083516483516483,7.07421071341575
5.103296703296703,7.048810079743645
5.123076923076923,7.019633257629528
5.142857142857143,6.98674845952429
5.162637362637362,6.950233343536847
5.182417582417583,6.9101751413378105
5.2021978021978015,6.866670801594905
5.221978021978022,6.819827148993405
5.241758241758242,6.769761058727866
5.2615384615384615,6.716599646116558
5.281318681318681,6.660480470670105
5.301098901098901,6.601551753524915
5.320879120879121,6.539972606606909
5.340659340659341,6.475913271199866
5.36043956043956,6.409555362726546
5.380219780219781,6.3410921174814625
5.3999999999999995,6.270728635749009
5.41978021978022,6.1986821141677115
5.43956043956044,6.1251820583295125
5.4593406593406595,6.050470464405036
5.479120879120879,5.974801956043915
5.498901098901099,5.89844385990975
5.518681318681319,5.82167619999076
5.538461538461538,5.744791587331543
5.558241758241758,5.6680949781535235
5.578021978021979,5.591903269626177
5.5978021978021975,5.516544699044308
5.617582417582418,5.442358009172176
5.637362637362637,5.3696913404433335
5.6571428571428575,5.298900810066238
5.676923076923077,5.2303487394809265
5.696703296703297,5.164401495705397
5.716483516483517,5.1014269195755535
5.736263736263735,5.041791325323823
5.756043956043956,4.985856071778109
5.775824175824176,4.933973725795933
5.795604395604395,4.886483863009547
5.815384615384615,4.843708578576678
5.835164835164835,4.805947809748959
5.854945054945055,4.773474600343482
5.874725274725275,4.746530461735229
5.894505494505494,4.72532100260755
5.914285714285715,4.7100120073708815
5.934065934065933,4.7007261384982275
5.953846153846154,4.697540419786319
5.973626373626374,4.700484626027724
5.993406593406593,4.709540661761782
6.013186813186813,4.724642961218138
6.032967032967033,4.7456798879559114
6.052747252747253,4.772496061170644
6.072527472527473,4.8048954910132835
6.092307692307692,4.842645371351324
6.112087912087913,4.885480357509716
6.131868131868131,4.93310714927053
6.151648351648352,4.985209204812679
6.171428571428572,5.041451427132753
6.191208791208791,5.101484687859711
6.210989010989011,5.164950081085378
6.230769230769231,5.231482828908868
6.2505494505494505,5.300715788379603
6.270329670329671,5.372282534629388
6.29010989010989,5.445820016114145
6.309890109890111,5.520970794565849
6.329670329670329,5.597384894506138
6.349450549450549,5.67472129536292
6.36923076923077,5.752649103934391
6.3890109890109885,5.830848446827346
6.408791208791209,5.909011122225125
6.428571428571428,5.986841048529648
6.4483516483516485,6.064054544598076
6.468131868131868,6.140380472886431
6.487912087912088,6.215560273150232
6.507692307692308,6.289347910677581
6.527472527472527,6.361509759509942
6.547252747252747,6.431824437845579
6.567032967032967,6.500082609879185
6.5868131868131865,6.566086765733543
6.606593406593407,6.629650988884855
6.626373626373626,6.6906007185576035
6.6461538461538465,6.748772512942001
6.665934065934065,6.80401381773675
6.685714285714286,6.856182743410564
6.705494505494506,6.905147853674834
6.725274725274725,6.950787966938454
6.745054945054945,6.992991971945247
6.764835164835165,7.031658658351842
6.7846153846153845,7.0666965626659195
6.804395604395605,7.098023829714872
6.824175824175824,7.125568089635754
6.8439560439560445,7.149266350256304
6.863736263736263,7.169064904662624
6.883516483516484,7.184919253711882
6.903296703296704,7.196794043240827
6.923076923076923,7.204663015736594
6.942857142857143,7.208508976268999
6.962637362637362,7.208323772529736
6.9824175824175825,7.204108288879011
7.002197802197802,7.195872454360748
7.021978021978022,7.183635264710543
7.041758241758242,7.167424818443048
7.061538461538461,7.147278367163975
7.081318681318681,7.123242380303355
7.101098901098901,7.095372624507394
7.1208791208791204,7.063734257951773
7.140659340659341,7.028401939844867
7.16043956043956,6.989459955368717
7.1802197802197805,6.947002356252006
7.199999999999999,6.901133117073811
7.21978021978022,6.851966307249257
7.23956043956044,6.799626278436263
7.259340659340659,6.74424786681133
7.279120879120879,6.685976609274668
7.298901098901099,6.624968972140983
7.318681318681318,6.561392590228023
7.338461538461539,6.495426513445525
7.358241758241758,6.427261456981986
7.3780219780219785,6.357100049955603
7.397802197802197,6.285157075905317
7.417582417582418,6.211659696716534
7.437362637362638,6.136847649474219
7.457142857142857,6.060973403292388
7.476923076923077,5.984302260373545
7.496703296703297,5.907112382414552
7.516483516483516,5.829694720036192
7.536263736263736,5.752352819251482
7.556043956043957,5.675402475235841
7.575824175824176,5.5991712000221305
7.595604395604395,5.523997467499705
7.615384615384615,5.4502296966275585
7.635164835164835,5.3782249325579965
7.654945054945055,5.308347185984669
7.674725274725275,5.2409653941300105
7.694505494505494,5.176450973054941
7.7142857142857135,5.115174941053668
7.734065934065935,5.057504607290441
7.753846153846154,5.003799838774016
7.7736263736263735,4.9544089420599855
7.793406593406592,4.9096642229678595
7.813186813186814,4.869877316674942
7.832967032967034,4.835334409673778
7.852747252747252,4.806291501507245
7.872527472527472,4.782969874782696
7.892307692307693,4.765551953555095
7.912087912087912,4.754177730061403
7.931868131868132,4.748941926275317
7.951648351648351,4.749892029549974
7.971428571428572,4.757027302130304
7.991208791208791,4.770298815609508
8.010989010989011,4.789610507859381
8.03076923076923,4.81482120668099
8.05054945054945,4.8457475164598485
8.07032967032967,4.882167425736733
8.09010989010989,4.923824467721883
8.10989010989011,4.970432253610846
8.129670329670331,5.021679199661337
8.149450549450549,5.077233281529686
8.169230769230769,5.136746670583771
8.189010989010988,5.19986013363325
8.20879120879121,5.266207106641967
8.22857142857143,5.335417381825397
8.248351648351647,5.40712037403684
8.268131868131867,5.480947955159918
8.287912087912087,5.55653686366324
8.307692307692308,5.633530710394974
8.327472527472528,5.71158161136228
8.347252747252746,5.790351484172521
8.367032967032966,5.86951304765812
8.386813186813187,5.948750564644113
8.406593406593407,6.02776036649003
8.426373626373627,6.10625119550906
8.446153846153845,6.1839443981059246
8.465934065934066,6.260573997847267
8.485714285714286,6.335886673959806
8.505494505494505,6.40964166713467
8.525274725274725,6.481610631128721
8.545054945054945,6.551577445569858
8.564835164835165,6.619338002629949
8.584615384615384,6.684699977833158
8.604395604395604,6.747482593209782
8.624175824175826,6.8075163792627365
8.643956043956043,6.864642940756927
8.663736263736263,6.918714730139136
8.683516483516483,6.969594831415074
8.703296703296704,7.017156756520347
8.723076923076924,7.061284255594609
8.742857142857142,7.101871142077387
8.762637362637362,7.138821133167077
8.782417582417583,7.172047705902486
8.802197802197803,7.201473968920601
8.821978021978023,7.227032549802844
8.84175824175824,7.248665497830431
8.86153846153846,7.266324201919547
8.881318681318682,7.279969323489211
8.901098901098901,7.289570744022393
8.920879120879121,7.295107527108355
8.940659340659339,7.296567894796136
8.96043956043956,7.2939492181416705
8.98021978021978,7.287258021890525
9.0,7.276510003301066
9.01978021978022,7.261730065176066
9.03956043956044,7.242952363231606
9.05934065934066,7.2202203679862675
9.079120879120879,7.193586941398744
9.098901098901099,7.163114428512849
9.11868131868132,7.1288747643818455
9.138461538461538,7.09094959653191
9.158241758241758,7.04943042318221
9.178021978021977,7.004418747356907
9.197802197802199,6.956026246893505
9.217582417582419,6.904374960159975
9.237362637362637,6.849597487026181
9.257142857142856,6.791837204277123
9.276923076923078,6.731248494185786
9.296703296703297,6.667996984361567
9.316483516483517,6.6022597962283855
9.336263736263735,6.534225798538529
9.356043956043957,6.464095861161485
9.375824175824176,6.392083102969237
9.395604395604396,6.3184131259383545
9.415384615384616,6.243324225573114
9.435164835164835,6.167067565398896
9.454945054945055,6.089907300565838
9.474725274725275,6.012120632542987
9.494505494505495,5.9339977735009075
9.514285714285714,5.85584179534249
9.534065934065934,5.777968334561313
9.553846153846154,5.70070512036507
9.573626373626373,5.624391290054884
9.593406593406593,5.549376452850762
9.613186813186815,5.476019461649294
9.632967032967032,5.404686852142943
9.652747252747252,5.335750910956991
9.672527472527472,5.269587339656536
9.692307692307693,5.206572490314367
9.712087912087913,5.147080161379442
9.731868131868131,5.091477960183768
9.75164835164835,5.040123260539869
9.771428571428572,4.993358809954971
9.791208791208792,4.951508069819229
9.810989010989012,4.914870401601369
9.83076923076923,4.8837162400248735
9.850549450549451,4.8582824173320835
9.87032967032967,4.8387678178411635
9.89010989010989,4.825329546127755
9.90989010989011,4.818079783203709
9.92967032967033,4.817083482209743
9.94945054945055,4.822357019215432
9.96923076923077,4.833867868274365
9.989010989010989,4.851535316938858
10.008791208791209,4.875232183975182
10.028571428571428,4.904787450238008
10.048351648351648,4.939989671213627
10.068131868131868,4.980591009070107
10.08791208791209,5.026311704984865
10.107692307692307,5.076844809166036
10.127472527472527,5.131860994932506
10.147252747252747,5.1910133019495985
10.167032967032966,5.25394167912272
10.186813186813188,5.3202772265269305
10.206593406593406,5.389646065213417
10.226373626373626,5.461672791479997
10.246153846153845,5.535983496616183
10.265934065934067,5.612208353319186
10.285714285714286,5.689983785605749
10.305494505494504,5.768954250255644
10.325274725274724,5.84877366506368
10.345054945054946,5.929106523068246
10.364835164835165,6.009628733149407
10.384615384615385,6.090028226613239
10.404395604395603,6.170005367202153
10.424175824175824,6.249273198898752
10.443956043956044,6.327557562329694
10.463736263736264,6.404597106833865
10.483516483516484,6.480143221558758
10.503296703296703,6.553959905439809
10.523076923076923,6.625823592692827
10.542857142857143,6.695522947558022
10.562637362637362,6.762858639492787
10.582417582417584,6.827643107815008
10.602197802197802,6.889700322929308
10.621978021978022,6.948865549699023
10.641758241758241,7.004985117224684
10.661538461538463,7.057916198222886
10.681318681318682,7.107526600336514
10.7010989010989,7.153694571017361
10.72087912087912,7.196308617080299
10.740659340659342,7.235267339607929
10.760439560439561,7.270479284567353
10.780219780219781,7.301862809266921
10.799999999999999,7.3293459646155235
10.819780219780219,7.352866393037859
10.83956043956044,7.372371241833948
