Time (s),Filtered Signal
0.0,0.02577103042792179
0.03337000366703337,-0.17612211188831936
0.06674000733406674,-0.3790515546916878
0.1001100110011001,-0.5817804952974147
0.13348001466813347,-0.7776890711487812
0.16685001833516683,-0.9533986062209243
0.2002200220022002,-1.090108775322536
0.2335900256692336,-1.1682995980370459
0.26696002933626695,-1.1745191775677182
0.3003300330033003,-1.107157761749419
0.33370003667033366,-0.9778759286790388
0.36707004033736707,-0.8072623760645523
0.4004400440044004,-0.6164452009975103
0.4338100476714338,-0.41891328097775493
0.4671800513384672,-0.2170968337240203
0.5005500550055005,-0.005957005680051304
0.5339200586725339,0.21794227484133488
0.5672900623395672,0.4467327626109024
0.6006600660066006,0.6568408078459164
0.634030069673634,0.8137755611982556
0.6674000733406673,0.885418645054071
0.7007700770077008,0.8581056084695883
0.7341400806747341,0.7471242829423916
0.7675100843417675,0.5948995236412725
0.8008800880088008,0.455783022572559
0.8342500916758342,0.373309174663414
0.8676200953428675,0.360286535369477
0.9009900990099009,0.39154250924140777
0.9343601026769344,0.41354706000997976
0.9677301063439677,0.3672413742374307
1.001100110011001,0.2141675511532309
1.0344701136780343,-0.0455082107509725
1.0678401173450678,-0.37072845269170984
1.1012101210121013,-0.6937325601907203
1.1345801246791345,-0.9445691497474809
1.167950128346168,-1.075880955266624
1.2013201320132012,-1.078115533535715
1.2346901356802347,-0.979260643118955
1.268060139347268,-0.8293881622738517
1.3014301430143014,-0.6765558627284118
1.3348001466813346,-0.5445684976043786
1.368170150348368,-0.42282004060589645
1.4015401540154016,-0.273487088418985
1.4349101576824348,-0.05345973846966888
1.4682801613494683,0.2588704969642945
1.5016501650165015,0.6447789536652482
1.535020168683535,1.0439643396068496
1.5683901723505682,1.3725776235649643
1.6017601760176017,1.5533295680250137
1.6351301796846351,1.544902359735679
1.6685001833516684,1.3580591386706613
1.7018701870187019,1.051490458700719
1.735240190685735,0.7090288569072386
1.7686101943527686,0.40781312760710203
1.8019801980198018,0.19094433877461048
1.8353502016868353,0.05626443489160802
1.8687202053538687,-0.03435337882343773
1.902090209020902,-0.1303075086752414
1.9354602126879354,-0.26457453639515033
1.9688302163549687,-0.43684505451455075
2.002200220022002,-0.6158379283353468
2.0355702236890356,-0.7592094305437426
2.0689402273560686,-0.8399952587811333
2.102310231023102,-0.8645537446683632
2.1356802346901356,-0.8710389318056847
2.169050238357169,-0.9078627396212992
2.2024202420242025,-1.003039539727594
2.2357902456912355,-1.1413490529202033
2.269160249358269,-1.2631019352444914
2.3025302530253025,-1.287202966842596
2.335900256692336,-1.1481088966278028
2.369270260359369,-0.8284872669290947
2.4026402640264024,-0.37129678970335783
2.436010267693436,0.13450881298956138
2.4693802713604693,0.5873309522688556
2.502750275027503,0.9093660417501674
2.536120278694536,1.0701774148797893
2.5694902823615693,1.089183069104708
2.6028602860286028,1.0193529115285225
2.636230289695636,0.9219802597577225
2.6696002933626692,0.8439111755865121
2.7029702970297027,0.8048338639395125
2.736340300696736,0.7964696285234392
2.7697103043637696,0.7910664516957464
2.803080308030803,0.7548147138382345
2.836450311697836,0.6619351972975076
2.8698203153648696,0.5057885189417303
2.903190319031903,0.3038105652756791
2.9365603226989365,0.09398865608831386
2.96993032636597,-0.0771756056640401
3.003300330033003,-0.17185063043351947
3.0366703337000365,-0.17675887101480112
3.07004033736707,-0.11063588165952809
3.1034103410341034,-0.018980759489171224
3.1367803447011364,0.042681793694875174
3.17015034836817,0.0302458558178669
3.2035203520352034,-0.07224813825067242
3.236890355702237,-0.24809255995078577
3.2702603593692703,-0.4572829552042475
3.3036303630363033,-0.6546349504100432
3.3370003667033368,-0.8072423228132586
3.3703703703703702,-0.9025871371182307
3.4037403740374037,-0.9441007465586798
3.4371103777044367,-0.9383307726794102
3.47048038137147,-0.8829269238443812
3.5038503850385037,-0.7642849987883452
3.537220388705537,-0.5677323955013095
3.5705903923725706,-0.29482638809945416
3.6039603960396036,0.023348872515415998
3.637330399706637,0.3272297477244633
3.6707004033736705,0.5471152609788418
3.704070407040704,0.6316755916649026
3.7374404107077375,0.5726261531895293
3.7708104143747705,0.41220008678534426
3.804180418041804,0.2281835492985481
3.8375504217088374,0.10252620151775743
3.870920425375871,0.087789747426257
3.904290429042904,0.18667984125341616
3.9376604327099374,0.3534325341477502
3.971030436376971,0.5155225450449794
4.004400440044004,0.6052045916498409
4.037770443711038,0.5867835055148
4.071140447378071,0.46832650543330784
4.104510451045105,0.2939452301120421
4.137880454712137,0.12129517444189314
4.171250458379171,-0.004963257362358108
4.204620462046204,-0.07167482948358554
4.237990465713238,-0.0995427039334919
4.271360469380271,-0.12878827751424
4.304730473047305,-0.19549658990380997
4.338100476714338,-0.31049713890059294
4.3714704803813715,-0.45133072866601565
4.404840484048405,-0.5713242012262855
4.438210487715438,-0.6213194520917004
4.471580491382471,-0.5734528342898203
4.5049504950495045,-0.4355185882469267
4.538320498716538,-0.24908183038314488
4.571690502383571,-0.07219419787684606
4.605060506050605,0.045387170717679184
4.638430509717638,0.08332240685551222
4.671800513384672,0.05881024795418252
4.705170517051705,0.018247823862590353
4.738540520718738,0.0162335848846969
4.771910524385771,0.09117116396629071
4.805280528052805,0.24802164746806082
4.838650531719838,0.4553871492501514
4.872020535386872,0.657701522252687
4.905390539053905,0.7968190259724685
4.938760542720939,0.8336109630309874
4.972130546387972,0.7607528742038376
5.005500550055006,0.602180219263312
5.038870553722038,0.4006232805948649
5.072240557389072,0.199578089489983
5.105610561056105,0.027952574949686712
5.138980564723139,-0.10627708967950765
5.172350568390172,-0.21180661637875203
5.2057205720572055,-0.3028356618495874
5.239090575724239,-0.3878774318205366
5.272460579391272,-0.46483708376735455
5.305830583058306,-0.5245549328893206
5.3392005867253385,-0.5597124551723068
5.372570590392372,-0.5726485434637605
5.405940594059405,-0.5763636011113092
5.439310597726439,-0.5874572021855834
5.472680601393472,-0.6151531449257754
5.506050605060506,-0.6533625439700841
5.539420608727539,-0.6810004826187297
5.572790612394573,-0.6706239247573313
5.606160616061606,-0.6003714036443207
5.63953061972864,-0.4625738010695623
5.672900623395672,-0.26519782977952977
5.706270627062706,-0.0272677895121989
5.739640630729739,0.22712349965815481
5.773010634396773,0.4721038435896729
5.806380638063806,0.6802973386909246
5.83975064173084,0.8235749541359283
5.873120645397873,0.878213143196044
5.9064906490649065,0.8347507938433665
5.93986065273194,0.7077246568766948
5.9732306563989725,0.5379685937213323
6.006600660066006,0.3827495690097805
6.0399706637330395,0.2955902813786792
6.073340667400073,0.3041684299680899
6.106710671067106,0.39694513182850844
6.14008067473414,0.5255518667016786
6.173450678401173,0.6224836981168361
6.206820682068207,0.6265407698471499
6.24019068573524,0.5054329083131127
6.273560689402273,0.26705666333569994
6.306930693069306,-0.04364114923158136
6.34030069673634,-0.3596695811367808
6.373670700403373,-0.6128347587019873
6.407040704070407,-0.7536556955000119
6.44041070773744,-0.7648722516614923
6.473780711404474,-0.665253305068716
6.507150715071507,-0.5028915562819826
6.540520718738541,-0.3397985717221515
6.573890722405573,-0.23217520695279045
6.607260726072607,-0.2124844966654846
6.64063072973964,-0.27936307806318145
6.6740007334066735,-0.39898331924972297
6.707370737073707,-0.5174269791099525
6.7407407407407405,-0.5796324384303039
6.774110744407774,-0.5482146834770045
6.807480748074807,-0.4157059225891963
6.840850751741841,-0.2062078981605648
6.8742207554088735,0.03387322046298195
6.907590759075907,0.252540162846013
6.94096076274294,0.4101167221524446
6.974330766409974,0.49144384703278987
7.007700770077007,0.5075500688993156
7.041070773744041,0.4864304564074969
7.074440777411074,0.4575655434079242
7.107810781078108,0.43785869261018334
7.141180784745141,0.4259100204132111
7.174550788412174,0.4070541273130971
7.207920792079207,0.36565358479703747
7.241290795746241,0.2971185095225263
7.274660799413274,0.2124364354407138
7.308030803080308,0.13252605168070633
7.341400806747341,0.07577126258966164
7.3747708104143745,0.04603602956450768
7.408140814081408,0.028078973014127533
7.4415108177484415,-0.006922236734344265
7.474880821415475,-0.08836290674257144
7.5082508250825075,-0.23181944273144633
7.541620828749541,-0.42953801089138643
7.5749908324165744,-0.6495124323657289
7.608360836083608,-0.8432944052148593
7.641730839750641,-0.9596607836767862
7.675100843417675,-0.9595850042046372
7.708470847084708,-0.8278120225750781
7.741840850751742,-0.5776076286382262
7.775210854418775,-0.24754910035998454
7.808580858085808,0.10821267399032064
7.841950861752841,0.4328872246955627
7.875320865419875,0.6792630623974375
7.908690869086908,0.8181182733187555
7.942060872753942,0.8414607225297362
7.975430876420975,0.7610941960334284
8.008800880088009,0.6042270955807748
8.042170883755041,0.40796320476189785
8.075540887422076,0.21365222212040816
8.108910891089108,0.06096360518493434
8.142280894756142,-0.018859842934440964
8.175650898423175,-0.01031918690047047
8.20902090209021,0.08027279575516554
8.242390905757242,0.22300998724973697
8.275760909424275,0.3696622219640341
8.309130913091309,0.4665664213102153
8.342500916758341,0.4722097270697828
8.375870920425376,0.37332148510398616
8.409240924092408,0.19220935197354033
8.442610927759443,-0.019518240365765552
8.475980931426475,-0.2001329627365987
8.50935093509351,-0.30278058913321054
8.542720938760542,-0.3154548351495069
8.576090942427575,-0.26653895216637186
8.60946094609461,-0.21285302224048655
8.642830949761642,-0.21524845385304153
8.676200953428676,-0.31237729935858394
8.709570957095709,-0.5035940014819946
8.742940960762743,-0.7473447964952535
8.776310964429776,-0.9746893260748737
8.80968096809681,-1.1120887400831054
8.843050971763843,-1.1052115385553065
8.876420975430875,-0.936256997172772
8.90979097909791,-0.6300016849216876
8.943160982764942,-0.24719422029804894
8.976530986431976,0.1326791726134801
9.009900990099009,0.43428537189260086
9.043270993766043,0.6081050747958802
9.076640997433076,0.6439219422522375
9.11001100110011,0.5715167837759788
9.143381004767143,0.4482062715455998
9.176751008434175,0.337605108331102
9.21012101210121,0.2873016180495117
9.243491015768242,0.31358040308173857
9.276861019435277,0.3986072207070982
9.31023102310231,0.50061665832669
9.343601026769344,0.5725405769378101
9.376971030436376,0.581280910863196
9.41034103410341,0.5198504523009776
9.443711037770443,0.407888177220748
9.477081041437476,0.28114499918822067
9.51045104510451,0.17516191543700793
9.543821048771543,0.11052945330104513
9.577191052438577,0.08600148230710619
9.61056105610561,0.08194674752039983
9.643931059772644,0.07184377794229946
9.677301063439677,0.03584828482753136
9.710671067106711,-0.030391545084172626
9.744041070773743,-0.11593820826947154
9.777411074440776,-0.2031409903687778
9.81078107810781,-0.2791791087828982
9.844151081774843,-0.34332954915141145
9.877521085441877,-0.4051599940408879
9.91089108910891,-0.47442319790079407
9.944261092775944,-0.5489170750836343
9.977631096442977,-0.6085285843284419
10.011001100110011,-0.6206020247111215
10.044371103777044,-0.5552151711480215
10.077741107444076,-0.40273803373076383
10.11111111111111,-0.1839972480234443
10.144481114778143,0.05315874463494095
10.177851118445178,0.25009164794016514
10.21122112211221,0.3591232217777953
10.244591125779245,0.3611107655670405
10.277961129446277,0.27170546405473617
10.311331133113312,0.13470107072249876
10.344701136780344,0.006192123121204407
10.378071140447377,-0.0640771985309585
10.411441144114411,-0.048174231990272834
10.444811147781444,0.051621599140176604
10.478181151448478,0.20309984235467907
10.51155115511551,0.3530215949335416
10.544921158782545,0.4430237692867914
10.578291162449577,0.4288358819274319
10.611661166116612,0.2969117644313023
10.645031169783644,0.07181589806358632
10.678401173450677,-0.18999042728914292
10.711771177117711,-0.41897405061435256
10.745141180784744,-0.5569463041075093
10.778511184451778,-0.5768149465914619
10.81188118811881,-0.4892424245013196
10.845251191785845,-0.3340073739012752
10.878621195452878,-0.16115996672716243
10.911991199119912,-0.011481298876536346
10.945361202786945,0.0948971671358909
10.978731206453979,0.15793080873990128
11.012101210121012,0.1879436140331865
11.045471213788044,0.19409941356324417
11.078841217455079,0.17861821080704576
11.112211221122111,0.14012678057400024
11.145581224789145,0.08331429016877186
11.178951228456178,0.027378314837422677
11.212321232123212,0.005555541604390984
11.245691235790245,0.05289056245710828
11.27906123945728,0.18685448735113466
11.312431243124312,0.39116839554884747
11.345801246791344,0.6134462339956149
11.379171250458379,0.7811473867413553
11.412541254125411,0.8306159346653775
11.445911257792446,0.7359006007087722
11.479281261459478,0.5224407535857268
11.512651265126513,0.25719258026609754
11.546021268793545,0.018508269718201645
11.57939127246058,-0.14001018717235758
11.612761276127612,-0.21347132201533237
11.646131279794645,-0.2448195492282721
11.67950128346168,-0.2990704665899018
11.712871287128712,-0.42569980214268927
11.746241290795746,-0.6287586678966716
11.779611294462779,-0.8605319980884192
11.812981298129813,-1.042331022001344
11.846351301796846,-1.101802945666844
11.87972130546388,-1.007608539074362
11.913091309130913,-0.784029646548533
11.946461312797945,-0.49892003845059274
11.97983131646498,-0.23227997521018984
12.013201320132012,-0.04203880567545941
12.046571323799046,0.056319126600651644
12.079941327466079,0.08816827533853973
12.113311331133113,0.09987442832685352
12.146681334800146,0.13284174648374178
12.18005133846718,0.20484797069837798
12.213421342134213,0.3062833013753739
12.246791345801245,0.41027354602213056
12.28016134946828,0.4890852705369662
12.313531353135312,0.5276385576399064
12.346901356802347,0.5281762066531549
12.38027136046938,0.5055664099767414
12.413641364136414,0.47726523591958236
12.447011367803446,0.45371351860053116
12.48038137147048,0.4337435679796746
12.513751375137513,0.4066124533892763
12.547121378804546,0.3591468140782113
12.58049138247158,0.2843905694496137
12.613861386138613,0.187643485943879
12.647231389805647,0.08684850548543664
12.68060139347268,0.006515937848550586
12.713971397139714,-0.03293857747215818
12.747341400806746,-0.02630496157935004
12.78071140447378,0.009946289130412733
12.814081408140813,0.039922311752835525
12.847451411807846,0.02039305508070552
12.88082141547488,-0.08051446482158896
12.914191419141913,-0.2652547658910257
12.947561422808947,-0.4982733197138768
12.98093142647598,-0.7132048601476054
13.014301430143014,-0.8356402942484223
13.047671433810047,-0.8132793330280008
13.081041437477081,-0.6401317758408024
13.114411441144114,-0.36258665235271137
13.147781444811146,-0.06294214797538458
13.18115144847818,0.17320649156570542
13.214521452145213,0.2911419786518512
13.247891455812248,0.28708144953351084
13.28126145947928,0.20511026328733895
13.314631463146315,0.11306895492817633
13.348001466813347,0.06939272299186401
13.381371470480381,0.09680352641812495
13.414741474147414,0.1748418631999879
13.448111477814447,0.25363023167165566
13.481481481481481,0.2809480772122421
13.514851485148514,0.22886406475665536
13.548221488815548,0.10744033867418727
13.58159149248258,-0.03987601824061396
13.614961496149615,-0.15576123384642027
13.648331499816647,-0.19387536872851366
13.681701503483682,-0.13830090872829612
13.715071507150714,-0.010016272800849811
13.748441510817747,0.14151578792881117
13.781811514484781,0.25780722480158164
13.815181518151814,0.2938887541518992
13.848551521818848,0.2347681822477406
13.88192152548588,0.09903934705707272
13.915291529152915,-0.07158433541720825
13.948661532819948,-0.23153277875207445
13.982031536486982,-0.34993392879076457
14.015401540154015,-0.4195286138687325
14.048771543821047,-0.4523518201422958
14.082141547488082,-0.46581031275233203
14.115511551155114,-0.4678306111528446
14.148881554822148,-0.44983735131216274
14.182251558489181,-0.3915562924662948
14.215621562156215,-0.2748058159660555
14.248991565823248,-0.09831970177917503
14.282361569490282,0.11508348145828318
14.315731573157315,0.3237311536766964
14.349101576824348,0.482999370674964
14.382471580491382,0.5644838737602461
14.415841584158414,0.569025896193498
14.449211587825449,0.5268647273063776
14.482581591492481,0.48429890685055305
14.515951595159516,0.48279367311394905
14.549321598826548,0.5401962289954617
14.582691602493583,0.6426663585941321
14.616061606160615,0.7505802856383601
14.649431609827648,0.8148373610406634
14.682801613494682,0.7953909890220996
14.716171617161715,0.6738567650093679
14.749541620828749,0.4563188761115574
14.782911624495782,0.1679826682446575
14.816281628162816,-0.1554026845107454
14.849651631829849,-0.47501819769701537
14.883021635496883,-0.7541998538311347
14.916391639163916,-0.9630637896958277
14.94976164283095,-1.0842469706066362
14.983131646497982,-1.1188739133170291
15.016501650165015,-1.0889356092730704
15.04987165383205,-1.0318652893575373
15.083241657499082,-0.9863846582276635
15.116611661166116,-0.9741367821451213
15.149981664833149,-0.9858081746565498
15.183351668500183,-0.9802586757646071
15.216721672167216,-0.8998879340346676
15.25009167583425,-0.697367969927204
15.283461679501283,-0.36213935379090945
15.316831683168315,0.06647017474022206
15.35020168683535,0.5075975895188215
15.383571690502382,0.8670592390225818
15.416941694169417,1.0739934385368108
15.45031169783645,1.109541384560919
15.483681701503484,1.0139828949747198
15.517051705170516,0.8683658686027175
15.55042170883755,0.7585638437987002
15.583791712504583,0.7379928133530118
15.617161716171616,0.805812627476546
15.65053171983865,0.9101219851903584
15.683901723505683,0.9740953415905645
15.717271727172717,0.932730175566187
15.75064173083975,0.7635017894911386
15.784011734506784,0.49744344477265307
15.817381738173816,0.20620884348460097
15.85075174184085,-0.02869069943564021
15.884121745507883,-0.15076695887969632
15.917491749174916,-0.15257787409925538
15.95086175284195,-0.07910162099871476
15.984231756508983,-0.009647442194523943
16.017601760176017,-0.026165724733988385
16.05097176384305,-0.18068187249753095
16.084341767510082,-0.4741632899203106
16.117711771177117,-0.8542507841028295
16.15108177484415,-1.2321896264027294
16.184451778511182,-1.5125269629205695
16.217821782178216,-1.6247901609823954
16.25119178584525,-1.5457268022853055
16.284561789512285,-1.304078724510192
16.317931793179316,-0.966371807751514
16.35130179684635,-0.6096790704277606
16.384671800513384,-0.29283143183792393
16.41804180418042,-0.03845921383809594
16.45141180784745,0.1664780435278134
16.484781811514484,0.35279497448024655
16.51815181518152,0.5437528094494261
16.55152181884855,0.7363409964928109
16.584891822515583,0.8998083735303485
16.618261826182618,0.9924364304760721
16.651631829849652,0.9868444464906804
16.685001833516683,0.8887318116054976
16.718371837183717,0.7374861946961123
16.75174184085075,0.5877430862758082
16.785111844517782,0.4824059702839221
16.818481848184817,0.4327659876489796
16.85185185185185,0.41698274522491374
16.885221855518886,0.39705207970053885
16.918591859185916,0.34342820294818854
16.95196186285295,0.2523673692178702
16.985331866519985,0.1460946518514038
17.01870187018702,0.05669478018453456
17.05207187385405,0.00444599219348601
17.085441877521085,-0.015755002035837944
17.11881188118812,-0.03171348981121847
17.15218188485515,-0.07710266226381404
17.185551888522184,-0.17119769065799895
17.21892189218922,-0.30767602408302674
17.252291895856253,-0.459038888610115
17.285661899523284,-0.5933830774935136
17.319031903190318,-0.6926142407520658
17.352401906857352,-0.7603690711838826
