Time (s),Filtered Signal
0.0,0.0009912618653797223
0.033370165745856356,0.3800527449247045
0.06674033149171271,0.7251384138475525
0.10011049723756907,1.0131147035700305
0.13348066298342542,1.2360189651987898
0.16685082872928178,1.397313270173385
0.20022099447513814,1.5037375331232203
0.2335911602209945,1.5588663168547197
0.26696132596685085,1.5621865838425772
0.30033149171270723,1.512876455257356
0.33370165745856356,1.4141798710447326
0.3670718232044199,1.2745265196942237
0.4004419889502763,1.1046603488886444
0.43381215469613266,0.9133777483886373
0.467182320441989,0.705548534294269
0.5005524861878453,0.4842434169094629
0.5339226519337017,0.2554744246453266
0.5672928176795581,0.03171256992948648
0.6006629834254145,-0.16927884453598746
0.6340331491712707,-0.33079317331087316
0.6674033149171271,-0.44556376973584394
0.7007734806629835,-0.5211292422383592
0.7341436464088398,-0.5783058722735744
0.7675138121546962,-0.6425427512484121
0.8008839779005525,-0.7319106487467152
0.8342541436464089,-0.8474680197627469
0.8676243093922653,-0.9706899942780132
0.9009944751381216,-1.0692513697467236
0.934364640883978,-1.108638043844507
0.9677348066298344,-1.0647299362926916
1.0011049723756906,-0.9325202357468965
1.0344751381215471,-0.7280893411094308
1.0678453038674034,-0.4836690726672141
1.1012154696132597,-0.2379920250403073
1.1345856353591162,-0.025471421418001072
1.1679558011049724,0.13214921893225642
1.201325966850829,0.22919285718196064
1.2346961325966852,0.27404746795949697
1.2680662983425415,0.2833958619060644
1.301436464088398,0.275405180339654
1.3348066298342542,0.26426266019269723
1.3681767955801105,0.25716250992259715
1.401546961325967,0.2536933356692258
1.4349171270718233,0.2472446956551329
1.4682872928176796,0.2282860681726025
1.501657458563536,0.18929866653067365
1.5350276243093923,0.13024583013452745
1.5683977900552488,0.062270010320253644
1.601767955801105,0.007035634475973052
1.6351381215469614,-0.009365974759804744
1.6685082872928179,0.03374320273644195
1.7018784530386741,0.14212361064478599
1.7352486187845306,0.3018721100322789
1.768618784530387,0.48178567807945605
1.8019889502762432,0.641922724072279
1.8353591160220997,0.7448710288581705
1.868729281767956,0.7655541076139086
1.9020994475138122,0.696563288843244
1.9354696132596687,0.548041287270448
1.968839779005525,0.34307324478988416
2.0022099447513813,0.11079761779324411
2.0355801104972375,-0.12020331458761183
2.0689502762430942,-0.32632495061800104
2.1023204419889505,-0.49071583115347334
2.135690607734807,-0.6034688953900378
2.169060773480663,-0.6618624103860916
2.2024309392265193,-0.6713887454231892
2.235801104972376,-0.6465418663381309
2.2691712707182323,-0.6091340816174685
2.3025414364640886,-0.5824981983290789
2.335911602209945,-0.5823085000297464
2.369281767955801,-0.6075753690822436
2.402651933701658,-0.6367394909794697
2.436022099447514,-0.6324709301708049
2.4693922651933704,-0.5550261439939769
2.5027624309392267,-0.37958611780687473
2.536132596685083,-0.11025083606586109
2.5695027624309392,0.21603258831114464
2.602872928176796,0.5383802904746138
2.636243093922652,0.7909513997587454
2.6696132596685085,0.924733387148011
2.7029834254143648,0.9235784514760207
2.736353591160221,0.8084214307653206
2.7697237569060777,0.6285992089632721
2.803093922651934,0.4442903323285919
2.8364640883977903,0.30706029880259783
2.8698342541436466,0.24533648902977792
2.903204419889503,0.2589078009742489
2.936574585635359,0.3228301232192816
2.969944751381216,0.3980650071197155
3.003314917127072,0.44470378743372463
3.0366850828729284,0.43371864318898234
3.0700552486187846,0.3542672059325721
3.103425414364641,0.21509025610933555
3.1367955801104976,0.0401682350137984
3.170165745856354,-0.1396699376330848
3.20353591160221,-0.2963928276839453
3.2369060773480665,-0.4125976955432805
3.2702762430939227,-0.4851743628203013
3.3036464088397794,-0.5239132566789787
3.3370165745856357,-0.5458271573400869
3.370386740331492,-0.5672535244180242
3.4037569060773483,-0.5964283692534018
3.4371270718232045,-0.6291271374217956
3.4704972375690613,-0.6492177616593028
3.5038674033149175,-0.6346005047085777
3.537237569060774,-0.5671026469610176
3.57060773480663,-0.4428816750909323
3.6039779005524863,-0.2787077415246169
3.6373480662983426,-0.11022486629465969
3.6707182320441993,0.01871293852693615
3.7040883977900556,0.07231499496985275
3.737458563535912,0.03814229405605566
3.770828729281768,-0.06551983923757808
3.8041988950276244,-0.19405070571219857
3.837569060773481,-0.29140309727565683
3.8709392265193374,-0.3096656319484953
3.9043093922651937,-0.2254110444332904
3.93767955801105,-0.04645126523212653
3.9710497237569062,0.19311123812228154
4.0044198895027625,0.44654561306821194
4.037790055248619,0.6703308003272571
4.071160220994475,0.8353643867586901
4.104530386740332,0.9298422841592765
4.1379005524861885,0.9548366759771378
4.171270718232044,0.9172458504460775
4.204640883977901,0.8252974886479185
4.238011049723757,0.6890256298785797
4.271381215469614,0.5239891904870344
4.30475138121547,0.3536737120451432
4.338121546961326,0.20641189458650694
4.371491712707183,0.10618664416714257
4.404861878453039,0.061265262012480774
4.438232044198895,0.05733453513332388
4.471602209944752,0.06062474391421963
4.504972375690608,0.03161325395274696
4.538342541436465,-0.056192567157531854
4.5717127071823205,-0.20164714043867954
4.605082872928177,-0.3737185978936955
4.638453038674034,-0.5240146359354246
4.67182320441989,-0.6088539964648736
4.7051933701657465,-0.6102402643460689
4.738563535911602,-0.5450321625263749
4.771933701657459,-0.4572353464740144
4.805303867403316,-0.3968760276112004
4.8386740331491715,-0.3958546455651402
4.872044198895028,-0.4527664530671243
4.905414364640884,-0.5340253179522393
4.938784530386741,-0.5902280994865812
4.972154696132597,-0.5790520913663126
5.005524861878453,-0.4831372462398965
5.03889502762431,-0.3147601833002358
5.072265193370166,-0.10662641490256773
5.105635359116023,0.10453849288662123
5.1390055248618784,0.2918763224195189
5.172375690607735,0.44282550612765037
5.205745856353592,0.5537537942465695
5.239116022099448,0.6206260013820134
5.272486187845304,0.6335204367780412
5.30585635359116,0.5796319093790429
5.339226519337017,0.45331716637752173
5.372596685082874,0.266636674139247
5.4059668508287295,0.052824822818029686
5.439337016574586,-0.14124265498121122
5.472707182320442,-0.2713320984602928
5.506077348066299,-0.3134117773188224
5.5394475138121555,-0.27370206609228953
5.572817679558011,-0.1858294117071189
5.606187845303868,-0.0960268310547853
5.639558011049724,-0.04319961156535496
5.672928176795581,-0.0430160988740217
5.706298342541437,-0.08293276088489411
5.739668508287293,-0.1296617127744657
5.77303867403315,-0.14495909058375334
5.806408839779006,-0.10241927883592244
5.839779005524862,0.001692579559213645
5.873149171270718,0.14733098476542011
5.906519337016575,0.2987573780556752
5.939889502762432,0.417813297526695
5.9732596685082875,0.476916715483524
6.006629834254144,0.46716019794733665
6.04,0.399371476155931
6.073370165745857,0.2988888810362141
6.1067403314917135,0.19683789396458515
6.140110497237569,0.12116334376337397
6.173480662983426,0.08976060096815315
6.206850828729282,0.10663713367523264
6.240220994475139,0.16106032622525615
6.273591160220995,0.22948292451159447
6.306961325966851,0.28030916676416245
6.340331491712708,0.28149867786073945
6.373701657458564,0.21007487907573094
6.40707182320442,0.06105468896449863
6.440441988950277,-0.14782105324906322
6.473812154696133,-0.37869671785921577
6.50718232044199,-0.584151241509989
6.5405524861878455,-0.7226019813894197
6.573922651933702,-0.7725874844199323
6.607292817679559,-0.7396822203603476
6.640662983425415,-0.6526502046327969
6.674033149171271,-0.5502208052768881
6.707403314917127,-0.4642718809846841
6.740773480662984,-0.4070218326143341
6.774143646408841,-0.3680486471656888
6.8075138121546965,-0.32230399283761346
6.840883977900553,-0.2449842068202841
6.874254143646409,-0.1258000860808183
6.907624309392266,0.024427716904066785
6.9409944751381225,0.17798278177540927
6.974364640883978,0.30292134562818174
7.007734806629835,0.3776302605409047
7.041104972375691,0.3999551657767018
7.074475138121548,0.3866270667921156
7.107845303867403,0.36387521370807485
7.14121546961326,0.35456267228609445
7.174585635359117,0.3685297007119875
7.207955801104973,0.4004925214857407
7.241325966850829,0.43536825077836194
7.274696132596685,0.45699621559020537
7.308066298342542,0.4550984940788299
7.341436464088399,0.42732240426500673
7.3748066298342545,0.3767442074471105
7.408176795580111,0.3078962054277738
7.441546961325967,0.2246030993277501
7.474917127071824,0.1308254642614052
7.5082872928176805,0.03297714614668997
7.541657458563536,-0.05920016026915132
7.575027624309393,-0.1351781458366724
7.608397790055249,-0.18894155886857064
7.641767955801106,-0.22387472294745733
7.675138121546962,-0.25344377763779585
7.708508287292818,-0.2957751667990483
7.741878453038675,-0.36370121598488053
7.775248618784531,-0.4549576463975376
7.808618784530387,-0.5481229207253577
7.841988950276244,-0.6078076968710439
7.8753591160221,-0.5982704163498899
7.908729281767957,-0.5000455499978396
7.9420994475138125,-0.3217267229718863
7.975469613259669,-0.1003920391379061
8.008839779005525,0.1108482961813072
8.042209944751383,0.2632764348420841
8.075580110497238,0.3315961495000218
8.108950276243094,0.32241695497435513
8.14232044198895,0.26817781470944946
8.175690607734808,0.20988704122482554
8.209060773480664,0.17760824188269247
8.24243093922652,0.17828817251456502
8.275801104972377,0.1961357833224873
8.309171270718233,0.20402273332182197
8.342541436464089,0.17908243492743686
8.375911602209946,0.11445561655595107
8.409281767955802,0.022064876235250327
8.442651933701658,-0.07371846029628724
8.476022099447514,-0.14743065353706808
8.509392265193371,-0.18321360579089702
8.542762430939227,-0.18037465631712676
8.576132596685083,-0.1521634092567392
8.60950276243094,-0.11903243717736452
8.642872928176796,-0.09951520417292613
8.676243093922652,-0.10230253835844942
8.709613259668508,-0.12233976282179569
8.742983425414366,-0.14225644553432634
8.776353591160222,-0.13864513110564283
8.809723756906077,-0.09106305343055145
8.843093922651935,0.009393936928403103
8.87646408839779,0.155074031228911
8.909834254143647,0.3222256370819275
8.943204419889504,0.4768334075559303
8.97657458563536,0.5837887272596247
9.009944751381216,0.6163198525193921
9.043314917127072,0.5628408372143986
9.07668508287293,0.429541974075397
9.110055248618785,0.23846683062037066
9.143425414364641,0.02198136583197248
9.176795580110499,-0.18473176803399835
9.210165745856354,-0.3512149014148494
9.24353591160221,-0.4575144732764265
9.276906077348068,-0.4970146035752662
9.310276243093924,-0.47607678154049465
9.34364640883978,-0.41111642362164685
9.377016574585635,-0.32421111799810653
9.410386740331493,-0.23830450309857482
9.443756906077349,-0.17276175358659224
9.477127071823205,-0.13974420319504277
9.510497237569062,-0.1417583441556807
9.543867403314918,-0.17076598634368478
9.577237569060774,-0.20928055777683885
9.610607734806631,-0.23376735224707068
9.643977900552487,-0.22028574306457965
9.677348066298343,-0.15159828851523635
9.710718232044199,-0.02404019112839002
9.744088397790057,0.14830214192421456
9.777458563535912,0.3344930224194668
9.810828729281768,0.49379571867528516
9.844198895027626,0.5875380030555589
9.877569060773482,0.5919955857954712
9.910939226519337,0.5073089284072573
9.944309392265193,0.3584479154547679
9.97767955801105,0.18722231793861158
10.011049723756907,0.0380299979688329
10.044419889502763,-0.057252496034597505
10.07779005524862,-0.08936143544362823
10.111160220994476,-0.07286259438754648
10.144530386740332,-0.03828613684639463
10.17790055248619,-0.018673225612281092
10.211270718232045,-0.03617099276276723
10.244640883977901,-0.09399457374001895
10.278011049723757,-0.17652581110694193
10.311381215469615,-0.25678256421686735
10.34475138121547,-0.3075925179513466
10.378121546961326,-0.31173196921587754
10.411491712707184,-0.26727958843142935
10.44486187845304,-0.18678832251401695
10.478232044198895,-0.09142855787268711
10.511602209944753,-0.0029593289357723014
10.544972375690609,0.06326897934457813
10.578342541436465,0.10196858347984698
10.61171270718232,0.11747356808771746
10.645082872928178,0.11999236242860281
10.678453038674034,0.12035315198004917
10.71182320441989,0.12532575350785644
10.745193370165747,0.13519277282947928
10.778563535911603,0.14430197229117053
10.811933701657459,0.14414977262727324
10.845303867403315,0.127550422255716
10.878674033149172,0.09207641447883444
10.912044198895028,0.0414064919628955
10.945414364640884,-0.01574751468169778
10.978784530386742,-0.06841441662234218
11.012154696132598,-0.10659802982748108
11.045524861878453,-0.12389212167244411
11.078895027624311,-0.11892162059197038
11.112265193370167,-0.09548772265526131
11.145635359116023,-0.06144678190006555
11.179005524861878,-0.0264334939470591
11.212375690607736,0.0011461802353990975
11.245745856353592,0.01688570684499913
11.279116022099448,0.021608342585851984
11.312486187845305,0.020137547848145507
11.345856353591161,0.017883855226613357
11.379226519337017,0.016944987952518534
11.412596685082875,0.0140856876194394
11.44596685082873,0.0022074589434964466
11.479337016574586,-0.025049527796047265
11.512707182320442,-0.06800307471412069
11.5460773480663,-0.11819178410873377
11.579447513812156,-0.16038363639349146
11.612817679558011,-0.17895821521898422
11.646187845303869,-0.16566630182919964
11.679558011049725,-0.12460581878683646
11.71292817679558,-0.07133812757620557
11.746298342541436,-0.025967206646119356
11.779668508287294,-0.0032364217803789426
11.81303867403315,-0.00451879627413964
11.846408839779006,-0.015941455742103244
11.879779005524863,-0.014039317389500636
11.91314917127072,0.023318911744986955
11.946519337016575,0.10564148341152078
11.979889502762433,0.22342696901673348
12.013259668508288,0.349821310452881
12.046629834254144,0.4498337321647162
12.08,0.4931906838569795
12.113370165745858,0.46528533142325157
12.146740331491714,0.3716479802733767
12.18011049723757,0.23443179310384787
12.213480662983427,0.08304260061455135
12.246850828729283,-0.05654804000820852
12.280220994475139,-0.1691718377431834
12.313591160220996,-0.2519411402385996
12.346961325966852,-0.3102522774832829
12.380331491712708,-0.35111982042348033
12.413701657458564,-0.37741265598477186
12.447071823204421,-0.3856148360669771
12.480441988950277,-0.3677692151618636
12.513812154696133,-0.31629300696711143
12.54718232044199,-0.22920984567094496
12.580552486187846,-0.11336609838045583
12.613922651933702,0.015779114444732702
12.64729281767956,0.13769853021592274
12.680662983425416,0.23224579162820574
12.714033149171271,0.2849490847239441
12.747403314917127,0.2903914435436588
12.780773480662985,0.25291400667125197
12.81414364640884,0.1849644173966769
12.847513812154697,0.10399936201229243
12.880883977900554,0.02876690663234885
12.91425414364641,-0.02460557559641446
12.947624309392266,-0.04645390195380671
12.980994475138122,-0.03674573468286099
13.01436464088398,-0.006399147493292455
13.047734806629835,0.024608276426368196
13.081104972375691,0.03296903606565189
13.114475138121549,0.0005888773870395668
13.147845303867404,-0.07698529924899125
13.18121546961326,-0.1861847121902197
13.214585635359118,-0.2981123592012568
13.247955801104974,-0.3784325039009945
13.28132596685083,-0.40087405129205256
13.314696132596685,-0.35830940188022076
13.348066298342543,-0.26586244247678453
13.381436464088399,-0.15410552709027278
13.414806629834255,-0.0554043887198292
13.448176795580112,0.009893714249884352
13.481546961325968,0.04062988974637014
13.514917127071824,0.05218852526765279
13.548287292817681,0.06620718550782081
13.581657458563537,0.09879379349743553
13.615027624309393,0.15373028824779625
13.648397790055249,0.22370403802195665
13.681767955801106,0.2975518874021812
13.715138121546962,0.3679286044745492
13.748508287292818,0.4339097883031769
13.781878453038676,0.4967525814327312
13.815248618784532,0.5520435094271006
13.848618784530387,0.5845117916112886
13.881988950276245,0.5706954698843684
13.9153591160221,0.4897891547956827
13.948729281767957,0.33728081633079265
13.982099447513813,0.13313963584669591
14.01546961325967,-0.08149806104135228
14.048839779005526,-0.2589723098548533
14.082209944751382,-0.3643094741722238
14.11558011049724,-0.38932888352576706
14.148950276243095,-0.3545452348732175
14.182320441988951,-0.2982375194035174
14.215690607734807,-0.2586158400476924
14.249060773480664,-0.25804754718447587
14.28243093922652,-0.29644515990853515
14.315801104972376,-0.3556090659080843
14.349171270718234,-0.4107197088613351
14.38254143646409,-0.442265571621303
14.415911602209945,-0.4426505298658161
14.449281767955803,-0.4154767148897687
14.482651933701659,-0.369619259936459
14.516022099447515,-0.31245861453835516
14.54939226519337,-0.2461627300199828
14.582762430939228,-0.16846666782808017
14.616132596685084,-0.07663817892956928
14.64950276243094,0.0282371810079424
14.682872928176797,0.1392573884029815
14.716243093922653,0.24497008671732157
14.749613259668509,0.3329803822867809
14.782983425414367,0.39387024354438527
14.816353591160222,0.42356770588445997
14.849723756906078,0.42344605348508796
14.883093922651934,0.3987241806336111
14.916464088397792,0.3563918392203452
14.949834254143648,0.30364478796921746
14.983204419889503,0.24705733866802448
15.016574585635361,0.19208971156307755
15.049944751381217,0.14245837597688948
15.083314917127073,0.09934638084871428
15.116685082872928,0.060972694439607455
15.150055248618786,0.02319681404749744
15.183425414364642,-0.018593708567377316
15.216795580110498,-0.06686483322031522
15.250165745856355,-0.1197993514655605
15.283535911602211,-0.17088539674051903
15.316906077348067,-0.2107362238216207
15.350276243093925,-0.23049529869377083
15.38364640883978,-0.2252800211123942
15.417016574585636,-0.19603125606378663
15.450386740331492,-0.1489420262771785
15.48375690607735,-0.09285924135257084
15.517127071823205,-0.035971688035169265
15.550497237569061,0.01675140190715635
15.583867403314919,0.06446267673418879
15.617237569060775,0.10957971442824063
15.65060773480663,0.1556765495708987
15.683977900552488,0.20487828412943956
15.717348066298344,0.2555166308647788
15.7507182320442,0.3007445541186287
15.784088397790056,0.32873966833323987
15.817458563535913,0.32493611484987567
15.85082872928177,0.27624081798776284
15.884198895027625,0.17636974888471052
15.917569060773483,0.03053057106505638
15.950939226519338,-0.14279528153528898
15.984309392265194,-0.31471161773823053
16.01767955801105,-0.4535022525030437
16.051049723756908,-0.5347849871428345
16.084419889502765,-0.5502538663406572
16.11779005524862,-0.5108808123320264
16.151160220994477,-0.4424104951234603
16.18453038674033,-0.37440629787452867
16.21790055248619,-0.3273684144289441
16.251270718232046,-0.30378047800969904
16.2846408839779,-0.2874429227842359
16.318011049723758,-0.251671864124721
16.351381215469615,-0.1727000861762708
16.38475138121547,-0.04207098928226486
16.418121546961327,0.12770720881281925
16.451491712707185,0.3067358033723264
16.48486187845304,0.4586989006376279
16.518232044198896,0.5541908468828104
16.551602209944754,0.5807131087018798
16.584972375690608,0.545632696451157
16.618342541436466,0.4717270383689658
16.651712707182323,0.38790428993769616
16.685082872928177,0.3190627480262449
16.718453038674035,0.27862753865179335
16.751823204419892,0.26571849574762824
16.785193370165747,0.26708791853317493
16.818563535911604,0.26259861815989144
16.851933701657458,0.23231361781527446
16.885303867403316,0.16314242066415813
16.918674033149173,0.05327889441327436
16.952044198895027,-0.08670738184135424
16.985414364640885,-0.2363640600965435
17.018784530386743,-0.37066537974589747
17.052154696132597,-0.4665497635141648
17.085524861878454,-0.5087546848299357
17.118895027624312,-0.4932955675738428
17.152265193370166,-0.4277538544539722
17.185635359116024,-0.3286121251114459
17.21900552486188,-0.21678889143979077
17.252375690607735,-0.11289917646774282
17.285745856353593,-0.03346271268112561
