Frequency (Hz),Amplitude
0.0,3.0406830199372212
0.01993355481727575,3.0399999754870937
0.0398671096345515,3.037952610776931
0.059800664451827246,3.0345462330820094
0.079734219269103,3.029789692362652
0.09966777408637874,3.0236953879676123
0.11960132890365449,3.016279277918169
0.13953488372093023,3.007560890665606
0.159468438538206,2.997563339174745
0.17940199335548174,2.9863133371384762
0.19933554817275748,2.9738412170714708
0.21926910299003324,2.9601809499630014
0.23920265780730898,2.945370166087304
0.25913621262458475,2.929450176472149
0.27906976744186046,2.9124659944107534
0.29900332225913623,2.8944663562653044
0.318936877076412,2.8755037406502795
0.3388704318936877,2.855634384897397
0.3588039867109635,2.8349182974893226
0.37873754152823924,2.813419264903784
0.39867109634551495,2.791204851032343
0.4186046511627907,2.768346387027998
0.4385382059800665,2.744918949093703
0.4584717607973422,2.7210013213525177
0.47840531561461797,2.6966759405442535
0.49833887043189373,2.6720288188811905
0.5182724252491695,2.6471494409785055
0.5382059800664452,2.6221306303702834
0.5581395348837209,2.597068380750892
0.5780730897009968,2.5720616467726582
0.5980066445182725,2.5472120890186063
0.6179401993355482,2.5226237676949874
0.637873754152824,2.4984027796998425
0.6578073089700996,2.4746568340730057
0.6777408637873754,2.451494761474256
0.6976744186046512,2.429025954322398
0.717607973421927,2.407359735605152
0.7375415282392027,2.386604656170505
0.7574750830564785,2.366867722546287
0.7774086378737541,2.348253559988438
0.7973421926910299,2.330863518474608
0.8172757475083057,2.3147947326389975
0.8372093023255814,2.3001391500406685
0.8571428571428572,2.2869825454783834
0.877076411960133,2.275403542080116
0.8970099667774087,2.265472662350188
0.9169435215946844,2.2572514339951337
0.9368770764119602,2.250791575938228
0.9568106312292359,2.246134289293939
0.9767441860465116,2.2433096761105125
0.9966777408637875,2.242336305408248
1.0166112956810631,2.2432209415650197
1.036544850498339,2.2459584446637657
1.0564784053156147,2.250531846349437
1.0764119601328903,2.25691259844039
1.0963455149501662,2.265060985420795
1.1162790697674418,2.2749266864072726
1.1362126245847177,2.286449467573883
1.1561461794019936,2.299559982582933
1.176079734219269,2.3141806564405734
1.196013289036545,2.330226627396506
1.2159468438538206,2.34760672195113
1.2358803986710964,2.366224439551468
1.255813953488372,2.385978925921667
1.275747508305648,2.406765916930264
1.2956810631229239,2.4284786381886145
1.3156146179401993,2.4510086489690956
1.3355481727574752,2.474246622330453
1.3554817275747508,2.4980830563892145
1.3754152823920267,2.52240891437527
1.3953488372093024,2.5471161933968385
1.4152823920265782,2.572098423692761
1.435215946843854,2.5972511015769064
1.4551495016611296,2.6224720603112464
1.4750830564784054,2.6476617838251837
1.495016611295681,2.672723668581578
1.514950166112957,2.6975642390286434
1.5348837209302328,2.722093322024194
1.5548172757475083,2.746224185422328
1.5747508305647842,2.7698736457150672
1.5946843853820598,2.792962149257746
1.6146179401993357,2.8154138312061594
1.6345514950166113,2.837156555878428
1.6544850498338872,2.8581219418419836
1.6744186046511629,2.8782453746288232
1.6943521594684385,2.897466009608362
1.7142857142857144,2.9157267672022784
1.73421926910299,2.9329743223123947
1.754152823920266,2.949159089551934
1.7740863787375416,2.964235205621798
1.7940199335548175,2.978160509955666
1.8139534883720931,2.9908965245686185
1.8338870431893688,3.0024084338812194
1.8538205980066447,3.012665065151944
1.8737541528239203,3.02163887003325
1.893687707641196,3.029305907667381
1.9136212624584719,3.035645829654827
1.9335548172757475,3.0406418671594158
1.9534883720930232,3.0442808203561484
1.9734219269102993,3.0465530503799605
1.993355481727575,3.0474524738930833
2.0132890365448506,3.0469765603541514
2.0332225913621262,3.0451263320417077
2.0531561461794023,3.041906366857057
2.073089700996678,3.037324803904406
2.0930232558139537,3.0313933518187794
2.1129568106312293,3.024127299782767
2.132890365448505,3.01554553113963
2.1528239202657806,3.005670539471558
2.1727574750830567,2.9945284469658087
2.1926910299003324,2.9821490248362728
2.212624584717608,2.9685657155012866
2.2325581395348837,2.953815656138914
2.25249169435216,2.9379397031445773
2.2724252491694354,2.920982456901956
2.292358803986711,2.902992286142253
2.312292358803987,2.884021351007636
2.332225913621263,2.864125623748306
2.352159468438538,2.8433649057670403
2.3720930232558137,2.821802839477629
2.39202657807309,2.7995069131624555
2.4119601328903655,2.776548456698858
2.431893687707641,2.7530026256735933
2.4518272425249172,2.7289483710223266
2.471760797342193,2.704468390920357
2.4916943521594686,2.679649061219445
2.511627906976744,2.6545803402850345
2.5315614617940203,2.629355643654102
2.551495016611296,2.6040716835280144
2.5714285714285716,2.5788282677654966
2.5913621262458477,2.5537280527827315
2.611295681063123,2.528876244642798
2.6312292358803986,2.5043802426751656
2.6511627906976742,2.48034922026056
2.6710963455149503,2.45689363800707
2.691029900332226,2.434124685485154
2.7109634551495017,2.4121536490357567
2.7308970099667778,2.3910912049544253
2.7508305647840534,2.3710466396051206
2.770764119601329,2.352127000718296
2.7906976744186047,2.3344361872299397
2.810631229235881,2.318073988425993
2.8305647840531565,2.303135086724271
2.850498338870432,2.289708041958107
2.870431893687708,2.2778742782830106
2.8903654485049834,2.267707097542068
2.910299003322259,2.259270744821983
2.9302325581395348,2.2526195527549855
2.950166112956811,2.2477971906705796
2.9700996677740865,2.2448360428557343
2.990033222591362,2.2437567369327653
3.0099667774086383,2.2445678388213333
3.029900332225914,2.2472657251507044
3.0498338870431896,2.2518346376686025
3.0697674418604657,2.2582469175702733
3.089700996677741,2.2664634111908355
3.1096345514950166,2.2764340325977415
3.129568106312292,2.2880984636592103
3.1495016611295683,2.3013869684232797
3.169435215946844,2.3162212962778144
3.1893687707641196,2.3325156474067037
3.2093023255813957,2.35017767442918
3.2292358803986714,2.3691094956328977
3.249169435215947,2.389208697648288
3.2691029900332227,2.4103693084908007
3.289036544850499,2.4324827253462624
3.3089700996677744,2.455438585041953
3.32890365448505,2.479125568619575
3.3488372093023258,2.5034321346431447
3.3687707641196014,2.5282471787212737
3.388704318936877,2.553460619134458
3.4086378737541527,2.5789639104101574
3.428571428571429,2.6046504881894816
3.4485049833887045,2.6304161498128313
3.46843853820598,2.6561593757643567
3.4883720930232562,2.6817815975131185
3.508305647840532,2.707187417429561
3.5282392026578075,2.732284786395562
3.548172757475083,2.75698514451563
3.5681063122923593,2.7812035300202886
3.588039867109635,2.8048586610681525
3.60797342192691,2.8278729947305576
3.6279069767441863,2.850172767006135
3.647840531561462,2.871688017279917
3.6677740863787376,2.8923526002256335
3.6877076411960132,2.912104187759412
3.7076411960132893,2.930884263293345
3.727574750830565,2.94863811021147
3.7475083056478407,2.9653147961991144
3.7674418604651168,2.98086715479896
3.787375415282392,2.9952517653420236
3.807308970099668,3.0084289322065665
3.8272425249169437,3.020362664190623
3.8471760797342194,3.031020654641417
3.867109634551495,3.040374262864386
3.887043189368771,3.048398497233869
3.9069767441860463,3.055072000343222
3.9269102990033224,3.0603770364626013
3.9468438538205985,3.0642994815149778
3.9667774086378738,3.066828815733511
3.98671096345515,3.0679581191236656
4.0066445182724255,3.067684069820373
4.026578073089701,3.0660069454014085
4.046511627906977,3.0629306271923125
4.0664451827242525,3.058462607573184
4.086378737541528,3.052614000272575
4.106312292358805,3.0453995536065026
4.1262458471760795,3.036837666589805
4.146179401993356,3.026950407810901
4.166112956810632,3.0157635369177105
4.186046511627907,3.0033065285098464
4.205980066445183,2.9896125981683435
4.225913621262459,2.974718730276428
4.245847176079734,2.958665707190958
4.26578073089701,2.9414981392110677
4.2857142857142865,2.9232644946555215
4.305647840531561,2.904017129200177
4.325581395348838,2.8838123134384124
4.345514950166113,2.8627102574075485
4.365448504983389,2.840775130570019
4.385382059800665,2.818075075446972
4.40531561461794,2.7946822127722135
4.425249169435216,2.7706726356654867
4.445182724252492,2.7461263899171686
4.465116279069767,2.721127437034606
4.485049833887043,2.6957635962305604
4.50498338870432,2.670126461046702
4.524916943521594,2.644311285815281
4.544850498338871,2.6184168366917913
4.5647840531561465,2.5925452015686825
4.584717607973422,2.5668015528415435
4.604651162790698,2.541293856789049
4.624584717607974,2.5161325232991003
4.644518272425249,2.491429989885722
4.664451827242526,2.4673002344593575
4.6843853820598005,2.443858212203323
4.704318936877076,2.4212192132332335
4.724252491694353,2.3994981395250936
4.7441860465116275,2.378808701921678
4.764119601328904,2.3592625408653993
4.78405315614618,2.340968277817938
4.803986710963455,2.3240305080203365
4.823920265780731,2.3085487491731884
4.8438538205980075,2.2946163645674957
4.863787375415282,2.2823194829123254
4.883720930232559,2.271735940287175
4.9036544850498345,2.2629342719805043
4.92358803986711,2.255972783163967
4.943521594684386,2.2508987271485577
4.963455149501661,2.2477476182185354
4.983388704318937,2.246542702704349
5.003322259136213,2.2472946071409337
5.023255813953488,2.2500011763068484
5.043189368770764,2.2546475070248935
5.063122923588041,2.2612061762877955
5.083056478405315,2.2696376550602837
5.102990033222592,2.2798908924948242
5.122923588039868,2.2919040497129255
5.142857142857143,2.3056053580687457
5.162790697674419,2.3209140741136576
5.182724252491695,2.3377415023637877
5.20265780730897,2.3559920573482334
5.222591362126246,2.3755643380872407
5.242524916943522,2.39635219084634
5.262458471760797,2.4182457394268817
5.282392026578074,2.4411323660758506
5.3023255813953485,2.464897630044156
5.322259136212625,2.4894261146541514
5.342192691029901,2.514602197271218
5.362126245847176,2.540310739686178
5.382059800664452,2.5664376990351254
5.4019933554817285,2.5928706614877943
5.421926910299003,2.6194993025378848
5.44186046511628,2.6462157788683585
5.4617940199335555,2.672915057497403
5.48172757475083,2.6994951883002134
5.501661129568107,2.72585752611391
5.5215946843853825,2.75190690853017
5.541528239202658,2.7775517952189475
5.561461794019934,2.802704374256743
5.5813953488372094,2.827280640494137
5.601328903654485,2.851200450523379
5.621262458471762,2.8743875583225087
5.641196013289036,2.896769635176853
5.661129568106313,2.9182782770250535
5.681063122923589,2.9388490019536997
5.700996677740864,2.958421240177491
5.72093023255814,2.9769383184929348
5.740863787375416,2.994347440883374
5.760797342192691,3.010599666680523
5.780730897009967,3.025649887450782
5.800664451827243,3.039456803570498
5.820598006644518,3.0519829012803954
5.840531561461795,3.0631944308621586
5.8604651162790695,3.07306138645689
5.880398671096346,3.0815574879425
5.900332225913622,3.0886601652026022
5.920265780730897,3.0943505450499593
5.940199335548173,3.0986134410113872
5.960132890365449,3.1014373461350058
5.980066445182724,3.1028144289435073
6.0,3.102740532626606
6.0199335548172765,3.1012151775399146
6.039867109634551,3.098241567054948
6.059800664451828,3.093826596783755
6.0797342192691035,3.087980867180482
6.099667774086379,3.0807186994989353
6.119601328903655,3.0720581550589166
6.139534883720931,3.0620210577420526
6.159468438538206,3.0506330195989184
6.179401993355482,3.0379234694009383
6.1993355481727574,3.0239256839105413
6.219269102990033,3.008676821568921
6.23920265780731,2.9922179582097916
6.259136212624584,2.9745941242962943
6.279069767441861,2.955854343044038
6.299003322259137,2.9360516686315474
6.318936877076412,2.915243223507656
6.338870431893688,2.8934902335786945
6.3588039867109645,2.870858059793282
6.378737541528239,2.8474162243359724
6.398671096345516,2.8232384292895225
6.418604651162791,2.7984025652274513
6.438538205980066,2.7729907067537285
6.458471760797343,2.747089091516674
6.4784053156146175,2.720788078694493
6.498338870431894,2.6941820823898595
6.51827242524917,2.6673694747949965
6.538205980066445,2.6404524534178786
6.558139534883721,2.6135368661239906
6.578073089700998,2.586731987284275
6.598006644518272,2.5601502379769383
6.617940199335549,2.5339068430271006
6.6378737541528245,2.508119417752062
6.6578073089701,2.482907477687386
6.677740863787376,2.458391865380242
6.6976744186046515,2.4346940896307316
6.717607973421927,2.4119355744084054
6.737541528239203,2.390236817119453
6.7574750830564785,2.3697164589678326
6.777408637873754,2.3504902738121305
6.797342192691031,2.3326700860833007
6.8172757475083055,2.3163626328416
6.837209302325582,2.301668389686722
6.857142857142858,2.2886803846970682
6.877076411960133,2.277483028511441
6.897009966777409,2.2681509916997507
6.9169435215946855,2.260748162327661
6.93687707641196,2.255326716785441
6.956810631229236,2.251926335305278
6.9767441860465125,2.2505735900567867
6.996677740863787,2.2512815283793883
7.016611295681064,2.2540494668514524
7.036544850498339,2.2588630039390827
7.056478405315615,2.2656942504619857
7.076411960132891,2.274502268670961
7.096345514950166,2.285233702955004
7.116279069767442,2.2978235786140457
7.136212624584719,2.3121962401440017
7.156146179401993,2.3282663973160087
7.17607973421927,2.345940246046723
7.196013289036546,2.3651166315422314
7.21594684385382,2.3856882232130965
7.235880398671097,2.40754267407066
7.2558139534883725,2.43056374135106
7.275747508305648,2.454632349599275
7.295681063122924,2.479627582041538
7.3156146179402,2.5054275904996617
7.335548172757475,2.5319104181439864
7.355481727574752,2.558954732903264
7.3754152823920265,2.5864404722769083
7.395348837209303,2.6142494026092256
7.415282392026579,2.6422655976113063
7.435215946843854,2.670375842107721
7.45514950166113,2.69846996771345
7.475083056478406,2.7264411274901197
7.495016611295681,2.7541860166689
7.514950166112956,2.7816050463338184
7.5348837209302335,2.808602476599972
7.554817275747508,2.835086515351357
7.574750830564784,2.860969388069003
7.5946843853820605,2.8861673837176554
7.614617940199336,2.910600881095312
7.634551495016611,2.9341943595045428
7.6544850498338874,2.9568763970909226
7.674418604651163,2.978579659720314
7.694352159468439,2.999240882837996
7.714285714285715,3.0188008483697937
7.73421926910299,3.0372043583883865
7.754152823920266,3.0544002069743925
7.774086378737542,3.070341151449096
7.794019933554818,3.0849838839400627
7.813953488372093,3.098289004058703
7.83388704318937,3.110220993316757
7.853820598006645,3.120748191782177
7.8737541528239205,3.129842777371636
7.893687707641197,3.137480748092602
7.913621262458472,3.143641907480627
7.9335548172757475,3.1483098534235934
7.953488372093024,3.1514719705225516
7.9734219269103,3.153119426105631
7.9933554817275745,3.15324716998551
8.013289036544851,3.1518539380304156
8.033222591362128,3.148942259601303
8.053156146179402,3.1445184688927257
8.073089700996679,3.138592720199496
8.093023255813954,3.1311790071146546
8.11295681063123,3.1222951856441314
8.132890365448505,3.1119630011983435
8.152823920265782,3.100208119388385
8.172757475083056,3.087060160512898
8.192691029900331,3.072552737567752
8.21262458471761,3.0567234975424697
8.232558139534884,3.0396141656811038
8.252491694352159,3.0212705922779555
8.272425249169435,3.0017428014461
8.292358803986712,2.981085041135006
8.312292358803987,2.959355833477827
8.332225913621263,2.936618024314822
8.352159468438538,2.9129388304612127
8.372093023255815,2.8883898829611465
8.392026578073091,2.8630472641896607
8.411960132890366,2.8369915362276057
8.43189368770764,2.8103077574381765
8.451827242524917,2.7830854836179753
8.471760797342194,2.755418749482538
8.491694352159469,2.7274060255839276
8.511627906976745,2.699150145058931
8.53156146179402,2.670758193890398
8.551495016611296,2.6423413576617945
8.571428571428573,2.6140147171353
8.591362126245848,2.585896984440696
8.611295681063122,2.558110171291196
8.6312292358804,2.5307791805245032
8.651162790697676,2.504031312494348
8.67109634551495,2.477995678511941
8.691029900332227,2.4528025147626873
8.710963455149502,2.4285823920005782
8.730897009966778,2.405465318931516
8.750830564784053,2.3835797405847985
8.77076411960133,2.3630514371345948
8.790697674418604,2.344002333496372
8.81063122923588,2.326549235427446
8.830564784053157,2.3108025135506027
8.850498338870432,2.296864762344815
8.870431893687707,2.284829466274514
8.890365448504983,2.274779709374677
8.91029900332226,2.2667869672813317
8.930232558139535,2.260910021457996
8.950166112956811,2.2571940338944025
8.970099667774086,2.2556698166979414
8.990033222591363,2.2563533248319914
9.00996677740864,2.259245392086785
9.029900332225914,2.2643317207251235
9.049833887043189,2.271583124823996
9.069767441860467,2.2809560169221674
9.089700996677742,2.292393117969793
9.109634551495017,2.3058243624501276
9.129568106312293,2.321167964425309
9.14950166112957,2.338331606447348
9.169435215946844,2.357213711835254
9.189368770764121,2.377704761597472
9.209302325581396,2.399688619948452
9.22923588039867,2.423043836491831
9.249169435215949,2.4476448982306214
9.269102990033224,2.4733634101379853
9.289036544850498,2.5000691886528617
9.308970099667773,2.527631257808001
9.328903654485051,2.555918742503441
9.348837209302326,2.5848016575501314
9.368770764119601,2.614151594454686
9.388704318936878,2.643842310493901
9.408637873754152,2.6737502264838264
9.428571428571429,2.70375484086324
9.448504983388705,2.7337390683829565
9.46843853820598,2.7635895119238505
9.488372093023255,2.793196675858172
9.508305647840533,2.8224551290113196
9.528239202657808,2.8512636247534884
9.548172757475083,2.879525185118266
9.56810631229236,2.907147155159284
9.588039867109636,2.934041233057358
9.60797342192691,2.9601234808067463
9.627906976744187,2.9853143196615997
9.647840531561462,3.0095385139238227
9.667774086378738,3.032725146109672
9.687707641196015,3.0548075860463992
9.70764119601329,3.075723456022735
9.727574750830565,3.0954145937451054
9.747508305647841,3.1138270145320486
9.767441860465118,3.1309108739074576
9.787375415282392,3.146620431524883
9.807308970099669,3.160914017164632
9.827242524916944,3.1737539993886212
9.84717607973422,3.1851067573103475
9.867109634551497,3.194942655834654
9.887043189368772,3.203236024640625
9.906976744186046,3.209965141117656
9.926910299003321,3.2151122174161313
9.9468438538206,3.21866339173823
9.966777408637874,3.2206087239678602
9.986710963455149,3.2209421957203097
10.006644518272426,3.219661714879256
10.026578073089702,3.216769124679981
10.046511627906977,3.2122702173908064
10.066445182724253,3.2061747526385163
10.086378737541528,3.198496480416125
10.106312292358805,3.1892531688006733
10.126245847176081,3.1784666363933223
10.146179401993356,3.166162789471524
10.16611295681063,3.1523716638109205
10.186046511627907,3.137127471090887
10.205980066445184,3.120468649738264
10.225913621262459,3.1024379199864645
10.245847176079735,3.083082342826758
10.26578073089701,3.0624533824017512
10.285714285714286,3.0406069712316537
10.305647840531563,3.0176035774674337
10.325581395348838,2.993508273124123
10.345514950166113,2.9683908019566867
10.36544850498339,2.9423256452921462
10.385382059800666,2.915392083718978
10.40531561461794,2.8876742520508287
10.425249169435217,2.859261184421459
10.445182724252492,2.83024684572687
10.465116279069768,2.800730144909043
10.485049833887045,2.7708149247759053
10.50498338870432,2.7406099221845315
10.524916943521594,2.710228691496349
10.544850498338871,2.679789483273063
10.564784053156147,2.649415069261699
10.584717607973422,2.6192325038743567
10.604651162790697,2.589372811679052
10.624584717607974,2.55997058997802
10.64451827242525,2.531163515474545
10.664451827242525,2.5030917444513774
10.684385382059801,2.475897196947503
10.704318936877076,2.4497227172706544
10.724252491694353,2.424711105953404
10.74418604651163,2.401004022049082
10.764119601328904,2.3787407595107375
10.784053156146179,2.3580569072571635
10.803986710963457,2.3390829092479466
