Time (s),Filtered Signal
0.0,0.0057490212644266845
0.03337028824833703,-0.14111029010298012
0.06674057649667406,-0.24435593778486442
0.10011086474501109,-0.27647179973413627
0.13348115299334812,-0.23474832973276272
0.16685144124168516,-0.13849171061331245
0.20022172949002218,-0.017449536927203423
0.2335920177383592,0.10181372528915117
0.26696230598669624,0.20460166021186335
0.3003325942350333,0.28839263781860963
0.3337028824833703,0.3563626444536049
0.3670731707317073,0.4092693732323117
0.40044345898004435,0.44106375115631974
0.4338137472283814,0.440714362547034
0.4671840354767184,0.3987233197194788
0.5005543237250555,0.3140847925602895
0.5339246119733925,0.19739594860963666
0.5672949002217295,0.06820747677235377
0.6006651884700666,-0.052058967545173335
0.6340354767184035,-0.14799689980469113
0.6674057649667406,-0.2149798776864844
0.7007760532150776,-0.2585399554317667
0.7341463414634146,-0.28877567848188834
0.7675166297117517,-0.31264703321846427
0.8008869179600887,-0.3281530120110981
0.8342572062084257,-0.3236929986826145
0.8676274944567628,-0.28355981360333815
0.9009977827050998,-0.1974059841652863
0.9343680709534368,-0.06909477133415558
0.9677383592017739,0.08001819231820924
1.001108647450111,0.2160708556818383
1.0344789356984478,0.30459419099635804
1.067849223946785,0.3241415464537964
1.101219512195122,0.27505754715571246
1.134589800443459,0.17887019259242035
1.167960088691796,0.06846270428171741
1.2013303769401331,-0.026041400670656484
1.23470066518847,-0.08859109389275509
1.268070953436807,-0.12039122493184659
1.3014412416851442,-0.1342939587186941
1.3348115299334813,-0.14453339425476405
1.3681818181818182,-0.15805609662522555
1.4015521064301553,-0.17204627672978545
1.4349223946784924,-0.17807770292905534
1.4682926829268292,-0.16934572383575355
1.5016629711751663,-0.1460039503479407
1.5350332594235034,-0.11534636252257587
1.5684035476718403,-0.08708473562104724
1.6017738359201774,-0.06701478186440435
1.6351441241685145,-0.0532135204914497
1.6685144124168514,-0.03726250560941994
1.7018847006651885,-0.00993425053117068
1.7352549889135256,0.03193510813842469
1.7686252771618625,0.08153864154057809
1.8019955654101996,0.12382712457017922
1.8353658536585367,0.14244903055679986
1.8687361419068735,0.12845446279120062
1.9021064301552106,0.08610672358703814
1.9354767184035477,0.03252167286389225
1.9688470066518848,-0.008919532311234808
2.002217294900222,-0.018207377870372424
2.035587583148559,0.013208162761381276
2.0689578713968957,0.07941544482291246
2.102328159645233,0.16291754512440246
2.13569844789357,0.24141394179499612
2.1690687361419068,0.2951610576930852
2.202439024390244,0.31206750026153385
2.235809312638581,0.2893486126349318
2.269179600886918,0.2322785915731588
2.302549889135255,0.15145542259534509
2.335920177383592,0.059861800847949474
2.369290465631929,-0.02966860083692866
2.4026607538802662,-0.1065286839834236
2.436031042128603,-0.16398423200280107
2.46940133037694,-0.20012744096000487
2.5027716186252773,-0.21766720886198346
2.536141906873614,-0.22232534078616928
2.569512195121951,-0.22026977426011063
2.6028824833702884,-0.21565686690469912
2.6362527716186253,-0.20944415067183975
2.6696230598669626,-0.19999358381084592
2.7029933481152995,-0.1849713593705132
2.7363636363636363,-0.16332154271986762
2.7697339246119737,-0.13612832177998352
2.8031042128603105,-0.10595139093204638
2.8364745011086474,-0.07521086354364236
2.8698447893569847,-0.0447784468277417
2.9032150776053216,-0.013747203451085417
2.9365853658536585,0.019461257647475225
2.969955654101996,0.05540385705232169
3.0033259423503327,0.09250186363704822
3.0366962305986696,0.1273072962219248
3.070066518847007,0.15604136254147688
3.1034368070953438,0.17643310387809238
3.1368070953436806,0.1886455296969496
3.170177383592018,0.19463237421965462
3.203547671840355,0.196275784590321
3.2369179600886917,0.19347262078388325
3.270288248337029,0.18344291580756497
3.303658536585366,0.1618554139722714
3.337028824833703,0.12530978188986072
3.37039911308204,0.07390439453323888
3.403769401330377,0.012511717630143292
3.437139689578714,-0.0499757328453501
3.470509977827051,-0.10315183058993889
3.503880266075388,-0.13825600977642075
3.537250554323725,-0.15067824114426506
3.5706208425720622,-0.14095541728381783
3.603991130820399,-0.11418500744685656
3.637361419068736,-0.07841906650731155
3.6707317073170733,-0.042784581223096224
3.70410199556541,-0.015815259785511872
3.737472283813747,-0.004063085947078639
3.7708425720620844,-0.010852062369957035
3.8042128603104213,-0.03523284073167012
3.8375831485587586,-0.07163126295802373
3.8709534368070955,-0.1108929668442132
3.9043237250554323,-0.14299455079978796
3.9376940133037697,-0.1606727889766732
3.9710643015521065,-0.16225133269147027
4.004434589800444,-0.15184845059391805
4.037804878048781,-0.13631117841018012
4.071175166297118,-0.12016740073137419
4.1045454545454545,-0.10145933476729643
4.137915742793791,-0.07136506465627342
4.171286031042128,-0.018677766592441285
4.204656319290466,0.06266464542499064
4.238026607538803,0.16704426647308548
4.27139689578714,0.27573527967870165
4.304767184035477,0.3622635398783447
4.3381374722838135,0.4025415385100809
4.371507760532151,0.3849623922409439
4.404878048780488,0.3154320840422989
4.438248337028825,0.21487946743772485
4.471618625277162,0.11062335309942095
4.504988913525499,0.025917230174139345
4.538359201773836,-0.02749944522831643
4.571729490022173,-0.05098953372512295
4.60509977827051,-0.055040538269651655
4.638470066518847,-0.052559996655879716
4.671840354767184,-0.05301346316323174
4.705210643015521,-0.05981552839194386
4.738580931263858,-0.07126690240982009
4.771951219512196,-0.08354191518441723
4.8053215077605325,-0.09364555421736437
4.838691796008869,-0.10089877025430109
4.872062084257206,-0.10669088012305475
4.905432372505543,-0.11315807820971117
4.93880266075388,-0.1217272309640267
4.972172949002218,-0.1322256276627513
5.005543237250555,-0.1428211964538426
5.0389135254988915,-0.15065386664054822
5.072283813747228,-0.1527486325182351
5.105654101995565,-0.1467383001401607
5.139024390243902,-0.13112330025273544
5.17239467849224,-0.10517646861312176
5.205764966740577,-0.06890056008231858
5.239135254988914,-0.023395382461599352
5.2725055432372505,0.0284256259270954
5.305875831485587,0.08130519360229223
5.339246119733925,0.12796766884767005
5.372616407982262,0.16059253914258717
5.405986696230599,0.17304731558216588
5.439356984478936,0.16294774586951374
5.472727272727273,0.13258354835564154
5.5060975609756095,0.088280726238336
5.539467849223947,0.03854558742595521
5.572838137472284,-0.00812696779009077
5.606208425720621,-0.044905145547911474
5.639578713968958,-0.067345497916783
5.672949002217295,-0.07341228947415666
5.706319290465632,-0.06333069060121999
5.7396895787139695,-0.03966057321284554
5.773059866962306,-0.007492731622788033
5.806430155210643,0.025780210238845
5.83980044345898,0.05171364811822757
5.873170731707317,0.06319268843659791
5.906541019955654,0.05725897708314036
5.939911308203992,0.03706442225451334
5.9732815964523285,0.011644882989957419
6.006651884700665,-0.006971361971998007
6.040022172949002,-0.00847704958662523
6.073392461197339,0.01118445334324168
6.106762749445676,0.04776449000916967
6.140133037694014,0.09047523790841872
6.173503325942351,0.1270233609717687
6.2068736141906875,0.14941799580997725
6.240243902439024,0.15726454530830009
6.273614190687361,0.15637124173868547
6.306984478935698,0.15319796918975168
6.340354767184036,0.1484729708029163
6.373725055432373,0.13433485934988387
6.40709534368071,0.09766777100388026
6.4404656319290465,0.028631862097746374
6.473835920177383,-0.07012579127894289
6.507206208425721,-0.17924591045233262
6.540576496674058,-0.2669597871084192
6.573946784922395,-0.30107369750968094
6.607317073170732,-0.2635061764457553
6.640687361419069,-0.1604488308248194
6.674057649667406,-0.02293911500724151
6.707427937915743,0.10299460951366626
6.74079822616408,0.1726802673053279
6.774168514412417,0.15889204858733783
6.807538802660754,0.06128897321599288
6.840909090909091,-0.09412513708677674
6.874279379157428,-0.26471520823559896
6.9076496674057655,-0.40592487851299575
6.941019955654102,-0.4853656039144233
6.974390243902439,-0.4914069942160679
7.007760532150776,-0.43380199154181104
7.041130820399113,-0.3369924277283934
7.07450110864745,-0.22939638580758895
7.107871396895788,-0.13317887974814013
7.1412416851441245,-0.05831415551636194
7.174611973392461,-0.0025409209612129928
7.207982261640798,0.04384881666332496
7.241352549889135,0.0913361136658539
7.274722838137472,0.14590145159602994
7.30809312638581,0.20723351562519307
7.341463414634147,0.2705056287568706
7.3748337028824835,0.3300606637111309
7.40820399113082,0.38266529459958015
7.441574279379157,0.42857725022226995
7.474944567627494,0.47006448217325353
7.508314855875832,0.5084260771953545
7.541685144124169,0.5412970951225333
7.575055432372506,0.561808194478077
7.6084257206208425,0.5602177214457966
7.641796008869179,0.5274150697140252
7.675166297117517,0.4587335930320225
7.708536585365854,0.3562340241556304
7.741906873614191,0.228233497908928
7.775277161862528,0.08620558623091908
7.808647450110865,-0.05933847160774842
7.842017738359202,-0.20163198934505241
7.875388026607539,-0.33738990880264447
7.908758314855876,-0.46369373741254616
7.942128603104213,-0.5742828585460567
7.97549889135255,-0.6582642855183138
8.008869179600888,-0.7029083903124341
8.042239467849225,-0.6994443701629836
8.075609756097561,-0.6484842928621674
8.108980044345898,-0.5616091998666969
8.142350332594235,-0.4579134097274018
8.175720620842572,-0.357328620683312
8.209090909090909,-0.2742189446017117
8.242461197339246,-0.21405740943333565
8.275831485587583,-0.17375553246757525
8.30920177383592,-0.14421253183853383
8.342572062084257,-0.11321322050051416
8.375942350332595,-0.0678708034760698
8.409312638580932,0.0028591273306636127
8.442682926829269,0.10480412647582533
8.476053215077606,0.23468205772252196
8.509423503325943,0.377609656190601
8.54279379157428,0.5084724444196962
8.576164079822616,0.5982823967511707
8.609534368070953,0.623977434063417
8.64290465631929,0.5777264259633472
8.676274944567627,0.4713117242063875
8.709645232815964,0.33307398253150633
8.743015521064303,0.19826974233810252
8.77638580931264,0.09672441121577635
8.809756097560976,0.042838119157712844
8.843126385809313,0.03186859801827507
8.87649667405765,0.04367496011759803
8.909866962305987,0.052079105986263884
8.943237250554324,0.0359262159278882
8.97660753880266,-0.012513022512754665
9.009977827050998,-0.08494520665767491
9.043348115299334,-0.1610780826458556
9.076718403547671,-0.2174860634041534
9.110088691796008,-0.23761692524498118
9.143458980044347,-0.21873733917070548
9.176829268292684,-0.1728093451638993
9.21019955654102,-0.12082591742408985
9.243569844789358,-0.08305517351501679
9.276940133037694,-0.06966606990439352
9.310310421286031,-0.07625057683168776
9.343680709534368,-0.08656337955144101
9.377050997782705,-0.08128150054370085
9.410421286031042,-0.04849798357044828
9.443791574279379,0.00932478889096283
9.477161862527716,0.07550529591159903
9.510532150776053,0.1264041934820418
9.543902439024391,0.14225241831373853
9.577272727272728,0.11627887735204474
9.610643015521065,0.05781292864845232
9.644013303769402,-0.011914783228499884
9.677383592017739,-0.06901457012716557
9.710753880266076,-0.09673607063271078
9.744124168514412,-0.09142515312321227
9.77749445676275,-0.062397115976496255
9.810864745011086,-0.026449732441680675
9.844235033259423,-2.8908971648472254e-05
9.87760532150776,0.00728690506257236
9.910975609756099,-0.00461588385521877
9.944345898004435,-0.02820220620449608
9.977716186252772,-0.05293749844702006
10.01108647450111,-0.0701119024878893
10.044456762749446,-0.07554909193992371
10.077827050997783,-0.06942246859482319
10.11119733924612,-0.05415357340863085
10.144567627494457,-0.032334175965620125
10.177937915742794,-0.006247887820949995
10.21130820399113,0.020859062281774247
10.244678492239467,0.043148912706996716
10.278048780487804,0.052195539327784285
10.311419068736143,0.03976447882943055
10.34478935698448,0.0026366025661569963
10.378159645232817,-0.053026797875684865
10.411529933481154,-0.11073916176266228
10.44490022172949,-0.14778279317958204
10.478270509977827,-0.1434020335368159
10.511640798226164,-0.08775860867482026
10.545011086474501,0.012538784232110585
10.578381374722838,0.13523724567733328
10.611751662971175,0.2496312460397215
10.645121951219512,0.3272080537528026
10.67849223946785,0.3512141669366283
10.711862527716187,0.3212247338199734
10.745232815964524,0.25127770376220965
10.778603104212861,0.16314467159135343
10.811973392461198,0.078271500351868
10.845343680709535,0.011901809054991507
10.878713968957872,-0.02887930678323024
10.912084257206208,-0.04378330926235139
10.945454545454545,-0.03675085559019211
10.978824833702882,-0.014225752969192137
11.012195121951219,0.015044812682747492
11.045565410199556,0.039618537611308374
11.078935698447895,0.04608960088430956
11.112305986696231,0.022098423621273074
11.145676274944568,-0.03878069188269953
11.179046563192905,-0.13228311071415963
11.212416851441242,-0.24151865125241034
11.245787139689579,-0.3398097155192956
11.279157427937916,-0.3983268533837081
11.312527716186253,-0.39624212716058754
11.34589800443459,-0.3294844534898518
11.379268292682926,-0.21408299489650004
11.412638580931263,-0.08185543082438992
11.4460088691796,0.030644760033339442
11.479379157427939,0.09576303584127183
11.512749445676276,0.10512255754179936
11.546119733924613,0.07194327133067134
11.57949002217295,0.024078727379118262
11.612860310421286,-0.008971749349627363
11.646230598669623,-0.008811855262442657
11.67960088691796,0.025391024688099634
11.712971175166297,0.07935491078846922
11.746341463414634,0.1329062718244064
11.77971175166297,0.17045436768600022
11.813082039911308,0.18707053117710665
11.846452328159646,0.18758372227867282
11.879822616407983,0.18035889411687364
11.91319290465632,0.1702809351914442
11.946563192904657,0.1553650663789818
11.979933481152994,0.12872682248067127
12.01330376940133,0.08425129097134354
12.046674057649668,0.022252030767648756
12.080044345898004,-0.04831950487468311
12.113414634146341,-0.11242422420332723
12.146784922394678,-0.15492694270782775
12.180155210643015,-0.16696883961801395
12.213525498891352,-0.14957016947697718
12.24689578713969,-0.11278769601895525
12.280266075388028,-0.07098620840647012
12.313636363636364,-0.03664800948045857
12.347006651884701,-0.01571736234885866
12.380376940133038,-0.006510237980518777
12.413747228381375,-0.002282033253360838
12.447117516629712,0.004283107366956483
12.480487804878049,0.01714864763961104
12.513858093126386,0.03542814014045681
12.547228381374723,0.054667457858045075
12.58059866962306,0.06979347215614093
12.613968957871396,0.07794494123430097
12.647339246119735,0.0797299965011152
12.680709534368072,0.07844325564171355
12.714079822616409,0.07784209965677757
12.747450110864746,0.0797354990710289
12.780820399113082,0.08266057418387306
12.81419068736142,0.08236626735753097
12.847560975609756,0.07393761936015532
12.880931263858093,0.05454027448315311
12.91430155210643,0.025337408979994275
12.947671840354767,-0.008587132781675806
12.981042128603104,-0.0404961865469692
13.014412416851442,-0.06542077015167419
13.04778270509978,-0.08288647286327289
13.081152993348116,-0.09726742678496625
13.114523281596453,-0.11529718588438852
13.14789356984479,-0.14191018494160665
13.181263858093127,-0.17670527587164736
13.214634146341464,-0.21315572814314868
13.2480044345898,-0.24120809237931667
13.281374722838137,-0.251923658454393
13.314745011086474,-0.2415364862854884
13.348115299334811,-0.21260093530807136
13.381485587583148,-0.17168509029978368
13.414855875831487,-0.12523638970350923
13.448226164079824,-0.07636467931932488
13.48159645232816,-0.024568908084204002
13.514966740576497,0.031658570098635645
13.548337028824834,0.09145228713847517
13.581707317073171,0.1500990087720794
13.615077605321508,0.20085550562020804
13.648447893569845,0.23911447411185674
13.681818181818182,0.26612204953349256
13.715188470066519,0.28932082528353487
13.748558758314855,0.3181967795603822
13.781929046563192,0.3572875278106007
13.815299334811531,0.4001591509424738
13.848669623059868,0.4283222426006009
13.882039911308205,0.4169090178979897
13.915410199556542,0.34543901341335315
13.948780487804878,0.20898079143846282
13.982150776053215,0.024185964821848295
14.015521064301552,-0.1733397277489618
14.048891352549889,-0.33993984746817707
14.082261640798226,-0.43881028357825413
14.115631929046563,-0.45275062935498883
14.1490022172949,-0.38961831772306416
14.182372505543238,-0.2785819645381823
14.215742793791575,-0.15907905674326656
14.249113082039912,-0.06705452801479904
14.282483370288249,-0.02365977501497263
14.315853658536586,-0.030192386887250806
14.349223946784923,-0.07044298265030344
14.38259423503326,-0.11885315114877837
14.415964523281596,-0.15095141101989398
14.449334811529933,-0.15204201866392292
14.48270509977827,-0.12116054762598528
14.516075388026607,-0.06939001108778522
14.549445676274944,-0.013864306076258711
14.582815964523283,0.0297320663533673
14.61618625277162,0.053140524180063896
14.649556541019956,0.05791573201840467
14.682926829268293,0.053741507643322195
14.71629711751663,0.053709157639409706
14.749667405764967,0.06854609920493439
14.783037694013304,0.10198116855399268
14.81640798226164,0.14891403722136842
14.849778270509978,0.19700845951151041
14.883148558758315,0.23107611486711285
14.916518847006651,0.23858415738716912
14.949889135254988,0.21419840882018415
14.983259423503327,0.1616466081708132
15.016629711751664,0.09222070330196781
15.05,0.020538089879719307
15.083370288248338,-0.040749552538503084
15.116740576496674,-0.08518824682472263
15.150110864745011,-0.11399038417247896
15.183481152993348,-0.1341592438196376
15.216851441241685,-0.15412454121028496
15.250221729490022,-0.17890101867114544
15.283592017738359,-0.2070888986506219
15.316962305986696,-0.2312340750706259
15.350332594235034,-0.2414417743017904
15.383702882483371,-0.23047429582745038
15.417073170731708,-0.19775805404680735
15.450443458980045,-0.15025239408432736
15.483813747228382,-0.09972117083688692
15.517184035476719,-0.057713087450573096
15.550554323725056,-0.030538595557902563
15.583924611973393,-0.016300402338647817
15.61729490022173,-0.00493686036680175
15.650665188470066,0.018928691370238122
15.684035476718403,0.07117431265807643
15.71740576496674,0.16238211826714313
15.750776053215079,0.29218483759107183
15.784146341463416,0.4453813486599253
15.817516629711752,0.5919580687416961
15.85088691796009,0.6927924481598049
15.884257206208426,0.7109242612047774
15.917627494456763,0.6252786805804382
15.9509977827051,0.4412448838549567
15.984368070953437,0.1924968049020143
16.017738359201775,-0.06831255463165671
16.05110864745011,-0.2871055028976949
16.08447893569845,-0.42689569179161
16.117849223946784,-0.4790884955533006
16.151219512195123,-0.46274051241076253
16.184589800443458,-0.4127754658153627
16.217960088691797,-0.363286292953416
16.251330376940132,-0.3338587660333254
16.28470066518847,-0.32464759812201205
16.31807095343681,-0.3211740581522218
16.351441241685144,-0.30511024369396217
16.384811529933483,-0.26499277451348324
16.418181818181818,-0.20174361452511055
16.451552106430157,-0.127187295412449
16.48492239467849,-0.05744462164912709
16.51829268292683,-0.005230458283992492
16.551662971175165,0.02512760120743194
16.585033259423504,0.03813733032494848
16.61840354767184,0.04367007925452509
16.651773835920178,0.05178218519924654
16.685144124168513,0.06832592999179236
16.71851441241685,0.09307736069963243
16.75188470066519,0.12086513074934929
16.785254988913525,0.14495101754398174
16.818625277161864,0.16100011359733474
16.8519955654102,0.16966245487079476
16.885365853658538,0.17631925217664335
16.918736141906873,0.18789959048983274
16.95210643015521,0.2082975699078419
16.985476718403547,0.2348974206633686
17.018847006651885,0.25834250157252897
17.05221729490022,0.266037097357953
17.08558758314856,0.247837301042161
17.118957871396898,0.2011291147430166
