Frequency (Hz),Amplitude
0.0,1.5052773204434913
0.019867549668874173,1.5045519216946452
0.039735099337748346,1.5023764735731817
0.059602649006622516,1.498753220126754
0.07947019867549669,1.493685900351833
0.09933774834437085,1.4871797466002052
0.11920529801324503,1.479241482411028
0.13907284768211922,1.4698793198340212
0.15894039735099338,1.4591029563312934
0.17880794701986755,1.4469235713710868
0.1986754966887417,1.4333538228556888
0.2185430463576159,1.4184078435601977
0.23841059602649006,1.4021012378000994
0.2582781456953642,1.3844510785948074
0.27814569536423844,1.3654759056551644
0.2980132450331126,1.3451957245971853
0.31788079470198677,1.3236320078769899
0.33774834437086093,1.300807698057938
0.3576158940397351,1.2767472141672824
0.3774834437086093,1.2514764620861702
0.3973509933774834,1.225022850155452
0.4172185430463576,1.1974153114883517
0.4370860927152318,1.1686843348825886
0.45695364238410596,1.1388620067515485
0.4768211920529801,1.1079820671916965
0.49668874172185434,1.0760799842345046
0.5165562913907285,1.0431930515862484
0.5364238410596026,1.0093605168661437
0.5562913907284769,0.9746237497000748
0.5761589403973509,0.9390264622877745
0.5960264900662252,0.9026149996431777
0.6158940397350993,0.8654387232247132
0.6357615894039735,0.8275505210593534
0.6556291390728477,0.789007491167837
0.6754966887417219,0.7498718653859847
0.695364238410596,0.7102122711545963
0.7152317880794702,0.6701054753334869
0.7350993377483444,0.6296388260859493
0.7549668874172186,0.588913722071046
0.7748344370860927,0.5480506186676967
0.7947019867549668,0.5071963720573981
0.8145695364238411,0.46653519433853996
0.8344370860927152,0.42630525538582764
0.8543046357615894,0.3868241632957279
0.8741721854304636,0.3485282771450978
0.8940397350993378,0.31203268900842845
0.9139072847682119,0.2782184844034673
0.9337748344370861,0.24834323860440954
0.9536423841059603,0.22412804895876146
0.9735099337748344,0.2076733950707499
0.9933774834437087,0.2009666795689492
1.0132450331125828,0.20499525492784262
1.033112582781457,0.21915520780723302
1.0529801324503312,0.24162522656525437
1.0728476821192052,0.27026753285067445
1.0927152317880795,0.3032453358785273
1.1125827814569538,0.3391887755019935
1.1324503311258278,0.3771322348505367
1.1523178807947019,0.4164025680598528
1.1721854304635762,0.4565247034084623
1.1920529801324504,0.4971552502086858
1.2119205298013245,0.5380386584888284
1.2317880794701985,0.5789787814983192
1.2516556291390728,0.6198203889521576
1.271523178807947,0.6604370122453616
1.2913907284768211,0.7007228298961573
1.3112582781456954,0.7405871595728492
1.3311258278145695,0.7799506569111089
1.3509933774834437,0.8187426503206326
1.370860927152318,0.8568992445160388
1.390728476821192,0.8943619527440938
1.410596026490066,0.9310766983054153
1.4304635761589404,0.9669930778265923
1.4503311258278146,1.0020638126089245
1.4701986754966887,1.0362443368404148
1.4900662251655628,1.0694924865735926
1.5099337748344372,1.1017682636906139
1.5298013245033113,1.1330336562166659
1.5496688741721854,1.1632525013469492
1.5695364238410596,1.1923903811028145
1.5894039735099337,1.2204145430809197
1.609271523178808,1.2472938406078018
1.6291390728476822,1.2729986879681245
1.6490066225165563,1.2975010273780248
1.6688741721854303,1.3207743051251504
1.6887417218543048,1.3427934548622298
1.7086092715231789,1.3635348864709884
1.728476821192053,1.3829764792427588
1.7483443708609272,1.4010975783769615
1.7682119205298013,1.4178789939966827
1.7880794701986755,1.433303002036445
1.8079470198675496,1.447353346480109
1.8278145695364238,1.460015242524956
1.847682119205298,1.4712753803267835
1.8675496688741722,1.4811219290445243
1.8874172185430464,1.4895445409551573
1.9072847682119205,1.4965343554528518
1.9271523178807946,1.5020840027822806
1.9470198675496688,1.5061876073866196
1.9668874172185429,1.5088407907773003
1.9867549668874174,1.5100406738556589
2.0066225165562916,1.5097858786375675
2.0264900662251657,1.5080765293515257
2.0463576158940397,1.5049142528988095
2.066225165562914,1.5003021786826414
2.086092715231788,1.494244937831096
2.1059602649006623,1.486748661857919
2.1258278145695364,1.477820980825601
2.1456953642384105,1.4674710210977666
2.165562913907285,1.4557094027934727
2.185430463576159,1.4425482370854188
2.205298013245033,1.4280011235187045
2.2251655629139075,1.4120831475678162
2.2450331125827816,1.3948108786992162
2.2649006622516556,1.3762023692670549
2.2847682119205297,1.356277154643975
2.3046357615894038,1.3350562550808465
2.324503311258278,1.3125621799043987
2.3443708609271523,1.288818934806689
2.364238410596027,1.2638520331641758
2.384105960264901,1.2376885125598582
2.403973509933775,1.2103569579846067
2.423841059602649,1.1818875335879948
2.443708609271523,1.1523120253638846
2.463576158940397,1.1216638978362319
2.4834437086092715,1.0899783687154234
2.5033112582781456,1.057292506711172
2.52317880794702,1.02364535933576
2.543046357615894,0.9890781197880469
2.562913907284768,0.9536343451307562
2.5827814569536423,0.9173602423418051
2.6026490066225163,0.8803050450030696
2.622516556291391,0.842521512249049
2.642384105960265,0.8040665944562767
2.662251655629139,0.7650023290713317
2.6821192052980134,0.725397058198161
2.7019867549668874,0.6853271022847575
2.7218543046357615,0.6448790898579364
2.741721854304636,0.6041532454642748
2.76158940397351,0.5632680992981269
2.781456953642384,0.5223673392984508
2.801324503311258,0.48162993895938094
2.821192052980132,0.4412853515013423
2.8410596026490067,0.4016365794839507
2.8609271523178808,0.3630953822875545
2.8807947019867552,0.3262354932479953
2.9006622516556293,0.29186976937324566
2.9205298013245033,0.26114948511592867
2.9403973509933774,0.23565214401859141
2.9602649006622515,0.21734476482142778
2.9801324503311255,0.20821747121971032
3.0,0.20951608422987358
3.0198675496688745,0.2210578554425049
3.0397350993377485,0.2413427565832989
3.0596026490066226,0.2683318879511788
3.0794701986754967,0.3001369668845279
3.0993377483443707,0.3352887450252611
3.119205298013245,0.3727277170843852
3.1390728476821192,0.41170737404233143
3.1589403973509933,0.4516991508995031
3.1788079470198674,0.4923214879501558
3.198675496688742,0.5332915985406963
3.218543046357616,0.5743936940929951
3.23841059602649,0.615458155870295
3.2582781456953644,0.6563477825223454
3.2781456953642385,0.6969485915284436
3.2980132450331126,0.7371635721978964
3.3178807947019866,0.7769083756487095
3.3377483443708607,0.8161082949580227
3.3576158940397347,0.8546961182389414
3.3774834437086096,0.8926105816507685
3.3973509933774837,0.9297952410226237
3.4172185430463577,0.966197639817312
3.437086092715232,1.001768689745307
3.456953642384106,1.0364622059195183
3.47682119205298,1.0702345556468895
3.4966887417218544,1.1030443916867696
3.5165562913907285,1.1348524489163279
3.5364238410596025,1.165621389020358
3.556291390728477,1.1953156818457038
3.576158940397351,1.2239015149433539
3.596026490066225,1.2513467249107193
3.615894039735099,1.277620745675748
3.6357615894039736,1.3026945699955013
3.6556291390728477,1.326540721285529
3.6754966887417218,1.3491332335319277
3.695364238410596,1.3704476375201067
3.7152317880794703,1.3904609519840654
3.7350993377483444,1.4091516785646259
3.754966887417219,1.4264997996870228
3.774834437086093,1.442486778641713
3.794701986754967,1.457095561289561
3.814569536423841,1.4703105789214908
3.834437086092715,1.482117751890482
3.854304635761589,1.4925044937041254
3.8741721854304636,1.5014597153242957
3.8940397350993377,1.508973829467644
3.9139072847682117,1.5150387547408026
3.9337748344370858,1.5196479194776134
3.9536423841059607,1.5227962651748217
3.9735099337748347,1.5244802494479919
3.993377483443709,1.5246978484522364
4.013245033112583,1.5234485587332276
4.033112582781457,1.520733398494036
4.052980132450331,1.5165549082823446
4.072847682119205,1.5109171511226365
4.0927152317880795,1.5038257121378535
4.112582781456953,1.495287697727061
4.132450331125828,1.4853117343896736
4.152317880794702,1.4739079673137003
4.172185430463576,1.461088058876809
4.19205298013245,1.4468651872451301
4.211920529801325,1.4312540452984153
4.231788079470199,1.414270840161645
4.251655629139073,1.3959332936868878
4.271523178807947,1.3762606443063454
4.291390728476821,1.3552736507736793
4.311258278145695,1.3329945984302585
4.33112582781457,1.3094473087834446
4.3509933774834435,1.2846571533742153
4.370860927152318,1.2586510731543672
4.390728476821192,1.2314576049054413
4.410596026490066,1.2031069166351491
4.43046357615894,1.1736308544138943
4.450331125827815,1.1430630038063017
4.470198675496689,1.1114387699710278
4.490066225165563,1.078795481729927
4.509933774834438,1.0451725265648437
4.529801324503311,1.0106115257584711
4.549668874172186,0.9751565620030995
4.569536423841059,0.9388544761233848
4.589403973509934,0.9017552556371105
4.6092715231788075,0.8639125465249683
4.629139072847682,0.8253843320323184
4.649006622516556,0.7862338404833312
4.66887417218543,0.7465307709120714
4.688741721854305,0.706352965466767
4.708609271523179,0.665788718435041
4.728476821192054,0.6249400052349402
4.748344370860927,0.5839270598427478
4.768211920529802,0.5428949561120552
4.788079470198675,0.5020232039326402
4.80794701986755,0.46153992191160936
4.827814569536423,0.4217429710097805
4.847682119205298,0.38303154849629256
4.867549668874172,0.34595285443427365
4.887417218543046,0.3112681288445359
4.9072847682119205,0.2800359393617194
4.927152317880794,0.25368652453465423
4.947019867549669,0.23400307684958888
4.966887417218543,0.22285385377193578
4.986754966887418,0.22158602121640053
5.006622516556291,0.2303770391849249
5.026490066225166,0.24813760459577253
5.04635761589404,0.2730704538036096
5.066225165562914,0.30333574852772216
5.086092715231788,0.33740702166986286
5.105960264900662,0.37413757103255646
5.125827814569536,0.4126991715689336
5.14569536423841,0.452497247446274
5.1655629139072845,0.49309986603720074
5.185430463576159,0.5341865340867608
5.205298013245033,0.5755132771371967
5.225165562913908,0.6168892469460439
5.245033112582782,0.6581610559821162
5.264900662251656,0.69920220004521
5.28476821192053,0.7399058287143209
5.304635761589404,0.7801797352922597
5.324503311258278,0.8199428354561197
5.344370860927152,0.8591226580338606
5.364238410596027,0.8976535337077186
5.3841059602649,0.9354752718277036
5.403973509933775,0.9725321833044869
5.4238410596026485,1.0087723521076264
5.443708609271523,1.0441470875636756
5.463576158940397,1.0786105096661738
5.483443708609272,1.1121192332923269
5.503311258278146,1.144632126693393
5.52317880794702,1.1761101262640814
5.543046357615895,1.206516094302766
5.562913907284768,1.2358147098497227
5.582781456953643,1.2639723851361018
5.602649006622516,1.290957201967426
5.622516556291391,1.3167388636888233
5.642384105960264,1.3412886593669928
5.662251655629139,1.3645794375670788
5.682119205298013,1.3865855876667799
5.701986754966887,1.407283027081884
5.7218543046357615,1.4266491931100456
5.741721854304636,1.4446630383585597
5.7615894039735105,1.461305028924359
5.781456953642384,1.476557144654261
5.801324503311259,1.4904028809403413
5.821192052980132,1.5028272516074623
5.841059602649007,1.5138167925315833
5.860927152317881,1.5233595656951275
5.880794701986755,1.531445163440293
5.900662251655629,1.538064712727622
5.920529801324503,1.5432108792455368
5.940397350993377,1.5468778712502131
5.960264900662251,1.5490614430440002
5.980132450331126,1.5497588980267618
6.0,1.5489690912782306
6.0198675496688745,1.5466924316520334
6.039735099337749,1.5429308833839095
6.059602649006623,1.5376879672384576
6.079470198675497,1.53096876124165
6.099337748344371,1.5227799010706116
6.119205298013245,1.5131295801985587
6.139072847682119,1.5020275499231275
6.158940397350993,1.4894851194402272
6.178807947019867,1.4755151561659137
6.198675496688741,1.4601320865560277
6.218543046357616,1.4433518977304378
6.23841059602649,1.4251921402774843
6.258278145695365,1.40567193269882
6.2781456953642385,1.3848119680589408
6.298013245033113,1.3626345235333102
6.317880794701987,1.3391634737112112
6.337748344370861,1.3144243087147542
6.357615894039735,1.2884441584555568
6.377483443708609,1.2612518246844922
6.397350993377484,1.2328778229198636
6.417218543046357,1.2033544368982332
6.437086092715232,1.1727157889236215
6.456953642384105,1.1409979304562512
6.47682119205298,1.1082389585663575
6.496688741721854,1.0744791656023327
6.516556291390729,1.0397612317569793
6.5364238410596025,1.0041304734063947
6.556291390728477,0.9676351645016187
6.5761589403973515,0.9303269544374047
6.596026490066225,0.892261414484298
6.6158940397351,0.8534987572165879
6.635761589403973,0.8141047911663092
6.655629139072848,0.7741521988853163
6.675496688741721,0.7337222648688211
6.695364238410596,0.692907236845988
6.715231788079469,0.6518135898071554
6.735099337748344,0.6105665922935632
6.754966887417219,0.5693167723080235
6.774834437086093,0.5282491792479201
6.794701986754967,0.48759678072286117
6.814569536423841,0.44765995271802766
6.8344370860927155,0.40883477448668604
6.854304635761589,0.3716533842521732
6.874172185430464,0.33683874401444824
6.894039735099337,0.3053702935789798
6.913907284768212,0.2785385401855857
6.933774834437086,0.2579266517624174
6.95364238410596,0.2452101692657263
6.973509933774834,0.24170393221128644
6.993377483443709,0.24782563556573411
7.013245033112583,0.2628934269077375
7.033112582781457,0.28545270888700336
7.052980132450331,0.3138252901882512
7.072847682119205,0.34649938660267604
7.0927152317880795,0.38227147955414026
7.112582781456954,0.42023719407068505
7.132450331125828,0.4597303025529373
7.152317880794702,0.500259153783002
7.172185430463576,0.5414558958046732
7.19205298013245,0.5830396943827341
7.211920529801324,0.6247911103627405
7.231788079470198,0.6665344750487111
7.251655629139073,0.708125762044452
7.271523178807947,0.7494441824090872
7.291390728476822,0.7903862997614507
7.311258278145695,0.8308618613004478
7.33112582781457,0.8707908086199408
7.3509933774834435,0.9101011090379348
7.370860927152318,0.9487271645482599
7.390728476821192,0.9866086324188793
7.410596026490066,1.023689542694706
7.430463576158941,1.0599176323304398
7.450331125827814,1.095243839122735
7.470198675496689,1.1296219147382842
7.490066225165562,1.1630081273567645
7.509933774834438,1.1953610323441288
7.52980132450331,1.2266412949898942
7.549668874172186,1.2568115533810778
7.569536423841059,1.2858363124192105
7.589403973509934,1.313681862138457
7.6092715231788075,1.3403162150754928
7.629139072847682,1.3657090586316176
7.649006622516557,1.3898317192635936
7.66887417218543,1.4126571360203695
7.6887417218543055,1.4341598414639347
7.708609271523178,1.4543159484145376
7.728476821192054,1.4731031412728184
7.748344370860927,1.4905006709160462
7.768211920529802,1.5064893523586067
7.788079470198675,1.521051564520081
7.80794701986755,1.5341712515669623
7.827814569536423,1.5458339253933704
7.847682119205298,1.5560266688863547
7.8675496688741715,1.5647381396882527
7.887417218543046,1.571958574223173
7.907284768211921,1.5776797918017638
7.927152317880795,1.5818951986576812
7.9470198675496695,1.5845997918041184
7.966887417218543,1.5857901626295463
7.986754966887418,1.58546450018008
8.006622516556291,1.5836225941020141
8.026490066225167,1.5802658372442022
8.046357615894038,1.5753972279449542
8.066225165562914,1.5690213720549269
8.086092715231787,1.5611444847753064
8.105960264900663,1.551774392421291
8.125827814569536,1.5409205342550667
8.14569536423841,1.5285939645719102
8.165562913907285,1.5148073552682768
8.185430463576159,1.4995749991750424
8.205298013245034,1.4829128145030268
8.225165562913906,1.464838350826154
8.245033112582782,1.445370797122339
8.264900662251655,1.4245309925091623
8.28476821192053,1.402341440456287
8.304635761589404,1.3788263274374826
8.324503311258278,1.3540115472128278
8.344370860927151,1.3279247322196723
8.364238410596027,1.3005952939184584
8.3841059602649,1.2720544744112372
8.403973509933774,1.2423354122603567
8.42384105960265,1.211473226229256
8.443708609271523,1.1795051217090013
8.463576158940398,1.1464705259721684
8.483443708609272,1.1124112602320868
8.503311258278146,1.0773717589536724
8.52317880794702,1.0413993502083996
8.543046357615895,1.004544615443435
8.562913907284768,0.9668618533543023
8.582781456953642,0.9284096813576823
8.602649006622515,0.8892518205534696
8.62251655629139,0.8494581276701848
8.642384105960264,0.8091059627327856
8.66225165562914,0.7682820177090168
8.682119205298013,0.7270847846137275
8.701986754966887,0.6856279195411088
8.721854304635762,0.6440448735645292
8.741721854304636,0.602495328613549
8.76158940397351,0.5611742164252954
8.781456953642383,0.5203244293578619
8.801324503311259,0.4802547460352982
8.821192052980132,0.4413648916875299
8.841059602649008,0.40417965741132184
8.86092715231788,0.3693925467195888
8.880794701986755,0.33791398504058634
8.90066225165563,0.31090519855032345
8.920529801324504,0.2897528776289502
8.940397350993377,0.27591383190289853
8.960264900662251,0.2705857242541683
8.980132450331126,0.2743018750914333
9.0,0.2867123465308187
9.019867549668875,0.306733590239006
9.039735099337747,0.33293886840663917
9.059602649006623,0.3639166949792144
9.079470198675496,0.3984604496452952
9.099337748344372,0.43561417722256396
9.119205298013245,0.4746464599336741
9.139072847682119,0.5150033043610852
9.158940397350994,0.5562631724764739
9.178807947019868,0.5981010825833726
9.198675496688743,0.6402619936417541
9.218543046357615,0.6825416919835562
9.23841059602649,0.724773223173376
9.258278145695364,0.7668172687490024
9.27814569536424,0.8085552878244704
9.298013245033111,0.8498845907569201
9.317880794701987,0.8907147676531575
9.33774834437086,0.930965073662051
9.357615894039736,0.9705624960167957
9.37748344370861,1.009440311666408
9.397350993377483,1.047537001552497
9.417218543046358,1.0847954268037574
9.437086092715232,1.121162199193055
9.456953642384107,1.1565871970511543
9.47682119205298,1.1910231910761389
9.496688741721854,1.2244255538740818
9.516556291390728,1.2567520337968958
9.536423841059603,1.2879625785096458
9.556291390728477,1.3180191972712396
9.57615894039735,1.3468858535277741
9.596026490066224,1.374528381360475
9.6158940397351,1.4009144207857065
9.635761589403973,1.4260133680033733
9.655629139072847,1.449796337526795
9.675496688741722,1.472236133768551
9.695364238410596,1.4933072301525507
9.715231788079471,1.5129857542082223
9.735099337748345,1.5312494774051426
9.754966887417218,1.548077808724861
9.774834437086092,1.5634517911564152
9.794701986754967,1.577354100454018
9.814569536423841,1.589769045617895
9.834437086092716,1.6006825706591608
9.854304635761588,1.610082257291549
9.874172185430464,1.6179573282611472
9.894039735099337,1.6242986510823472
9.913907284768213,1.6290987419974765
9.933774834437086,1.6323517700197585
9.95364238410596,1.6340535609574558
9.973509933774835,1.6342016013508052
9.993377483443709,1.6327950422860351
10.013245033112582,1.6298347030810536
10.033112582781456,1.6253230748686565
10.052980132450331,1.6192643241341853
10.072847682119205,1.6116642962980967
10.09271523178808,1.602530519470104
10.112582781456952,1.591872208542009
10.132450331125828,1.5797002698321967
10.152317880794701,1.5660273065482448
10.172185430463577,1.5508676253967302
10.192052980132452,1.5342372447441874
10.211920529801324,1.5161539048231438
10.2317880794702,1.4966370805867548
10.251655629139073,1.475707997949703
10.271523178807948,1.4533896543190388
10.29139072847682,1.4297068445245755
10.311258278145695,1.4046861935170731
10.331125827814569,1.3783561975276843
10.350993377483444,1.3507472757951462
10.370860927152318,1.3218918354948044
10.390728476821192,1.2918243531807365
10.410596026490065,1.260581476929962
10.43046357615894,1.2282021545200472
10.450331125827816,1.1947277944712122
10.470198675496688,1.1602024687663566
10.490066225165563,1.1246731687020626
10.509933774834437,1.0881901288663443
10.529801324503312,1.050807239029958
10.549668874172186,1.0125825702687827
10.56953642384106,0.9735790506075643
10.589403973509933,0.933865337896385
10.609271523178808,0.8935169549532005
10.629139072847682,0.8526177763170185
10.649006622516556,0.8112619902544128
10.66887417218543,0.7695567081894639
