Frequency (Hz),Amplitude
0.0,0.13407860284981865
0.01993355481727575,0.1406250608573515
0.0398671096345515,0.1586298969812368
0.059800664451827246,0.18471679297921167
0.079734219269103,0.21589634836122618
0.09966777408637874,0.2501756179199422
0.11960132890365449,0.2863357766316965
0.13953488372093023,0.3236310172750068
0.159468438538206,0.3615884728762565
0.17940199335548174,0.3998936243853619
0.19933554817275748,0.438326380558459
0.21926910299003324,0.47672491725829874
0.23920265780730898,0.5149646430308885
0.25913621262458475,0.5529455730591636
0.27906976744186046,0.5905845124846635
0.29900332225913623,0.6278100759218866
0.318936877076412,0.6645594302316147
0.3388704318936877,0.7007761141415441
0.3588039867109635,0.7364085484357401
0.37873754152823924,0.7714089996131939
0.39867109634551495,0.8057328478119802
0.4186046511627907,0.8393380629228633
0.4385382059800665,0.8721848257018915
0.4584717607973422,0.904235251502227
0.47840531561461797,0.9354531876871913
0.49833887043189373,0.9658040646342998
0.5182724252491695,0.9952547861667288
0.5382059800664452,1.0237736492840694
0.5581395348837209,1.051330285852862
0.5780730897009968,1.0778956208726678
0.5980066445182725,1.1034418433214643
0.6179401993355482,1.1279423865822866
0.637873754152824,1.1513719161788682
0.6578073089700996,1.1737063230813283
0.6777408637873754,1.194922721239474
0.6976744186046512,1.2149994482978763
0.717607973421927,1.2339160686720372
0.7375415282392027,1.2516533783364376
0.7574750830564785,1.2681934108072215
0.7774086378737541,1.2835194439050768
0.7973421926910299,1.2976160069640053
0.8172757475083057,1.3104688882150797
0.8372093023255814,1.3220651421245326
0.8571428571428572,1.3323930965063553
0.877076411960133,1.3414423592617948
0.8970099667774087,1.3492038246253253
0.9169435215946844,1.3556696788186764
0.9368770764119602,1.3608334050329471
0.9568106312292359,1.3646897876747204
0.9767441860465116,1.36723491582521
0.9966777408637875,1.3684661858740845
1.0166112956810631,1.3683823032993385
1.036544850498339,1.3669832835753808
1.0564784053156147,1.364270452199597
1.0764119601328903,1.3602464438378887
1.0963455149501662,1.354915200597462
1.1162790697674418,1.3482819694452255
1.1362126245847177,1.3403532987995743
1.1561461794019936,1.3311370343340483
1.176079734219269,1.320642314043419
1.196013289036545,1.308879562636217
1.2159468438538206,1.2958604853335298
1.2358803986710964,1.2815980611726103
1.255813953488372,1.2661065359359456
1.275747508305648,1.2494014148537451
1.2956810631229239,1.2314994552603786
1.3156146179401993,1.2124186594268367
1.3355481727574752,1.1921782678414594
1.3554817275747508,1.170798753276169
1.3754152823920267,1.148301816056227
1.3953488372093024,1.1247103810559718
1.4152823920265782,1.1000485970774416
1.435215946843854,1.0743418394433804
1.4551495016611296,1.047616716865544
1.4750830564784054,1.0199010839529128
1.495016611295681,0.991224061129823
1.514950166112957,0.9616160642815412
1.5348837209302328,0.9311088471908013
1.5548172757475083,0.8997355608572742
1.5747508305647842,0.8675308352256291
1.5946843853820598,0.8345308908725458
1.6146179401993357,0.8007736910990749
1.6345514950166113,0.7662991490783809
1.6544850498338872,0.7311494109036517
1.6744186046511629,0.6953692446625286
1.6943521594684385,0.6590065798229109
1.7142857142857144,0.6221132632328839
1.73421926910299,0.5847461330025039
1.754152823920266,0.5469685683331053
1.7740863787375416,0.5088527679026246
1.7940199335548175,0.4704831709771362
1.8139534883720931,0.4319617193071801
1.8338870431893688,0.3934161713714019
1.8538205980066447,0.35501363644974276
1.8737541528239203,0.3169833214369724
1.893687707641196,0.2796560222644259
1.9136212624584719,0.2435346623194381
1.9335548172757475,0.2094219298941974
1.9534883720930232,0.17864371196524842
1.9734219269102993,0.15337693224444066
1.993355481727575,0.13683476204867598
2.0132890365448506,0.13240453612817013
2.0332225913621262,0.14125050617194906
2.0531561461794023,0.16117559204083926
2.073089700996678,0.18864296194723007
2.0930232558139537,0.22077410631315883
2.1129568106312293,0.25571985761053634
2.132890365448505,0.29236429001555836
2.1528239202657806,0.33002571825544513
2.1727574750830567,0.3682702555263223
2.1926910299003324,0.4068074033264536
2.212624584717608,0.44543226590797286
2.2325581395348837,0.4839929153017356
2.25249169435216,0.5223713882726121
2.2724252491694354,0.5604722544457911
2.292358803986711,0.5982155202163459
2.312292358803987,0.6355320951563231
2.332225913621263,0.6723608194318749
2.352159468438538,0.7086464693394026
2.3720930232558137,0.7443383917923188
2.39202657807309,0.7793895528881299
2.4119601328903655,0.8137558649934161
2.431893687707641,0.8473957048360393
2.4518272425249172,0.8802695649086543
2.471760797342193,0.9123397994001152
2.4916943521594686,0.9435704381144707
2.511627906976744,0.9739270499133394
2.5315614617940203,1.0033766426398805
2.551495016611296,1.0318875901793618
2.5714285714285716,1.0594295798741802
2.5913621262458477,1.0859735753076938
2.611295681063123,1.1114917907518431
2.6312292358803986,1.1359576744937216
2.6511627906976742,1.1593458989274785
2.6710963455149503,1.1816323557919783
2.691029900332226,1.2027941553012227
2.7109634551495017,1.2228096281909102
2.7308970099667778,1.241658329913163
2.7508305647840534,1.2593210463708786
2.770764119601329,1.2757798007067511
2.7906976744186047,1.2910178607572564
2.810631229235881,1.3050197468570839
2.8305647840531565,1.3177712397386787
2.850498338870432,1.3292593883187975
2.870431893687708,1.339472517201616
2.8903654485049834,1.3484002337592444
2.910299003322259,1.3560334346748755
2.9302325581395348,1.3623643118554714
2.950166112956811,1.3673863576375298
2.9700996677740865,1.37109436922499
2.990033222591362,1.373484452310601
3.0099667774086383,1.37455402384354
3.029900332225914,1.37430181391634
3.0498338870431896,1.3727278667529614
3.0697674418604657,1.3698335407891582
3.089700996677741,1.3656215078444605
3.1096345514950166,1.3600957513936625
3.129568106312292,1.3532615639547094
3.1495016611295683,1.3451255436187457
3.169435215946844,1.3356955897588325
3.1893687707641196,1.3249808979645674
3.2093023255813957,1.3129919542632327
3.2292358803986714,1.2997405287027755
3.249169435215947,1.2852396683898153
3.2691029900332227,1.2695036900970027
3.289036544850499,1.2525481725796803
3.3089700996677744,1.23438994877334
3.32890365448505,1.2150470980823544
3.3488372093023258,1.1945389390188852
3.3687707641196014,1.1728860225123148
3.388704318936877,1.1501101262874625
3.4086378737541527,1.1262342508092897
3.428571428571429,1.1012826174209966
3.4485049833887045,1.0752806694701986
3.46843853820598,1.048255077438784
3.4883720930232562,1.0202337493849496
3.508305647840532,0.9912458483978634
3.5282392026578075,0.961321819296912
3.548172757475083,0.9304934275318371
3.5681063122923593,0.898793814243834
3.588039867109635,0.8662575728496238
3.60797342192691,0.8329208544994671
3.6279069767441863,0.7988215126135523
3.647840531561462,0.7639993008645876
3.6677740863787376,0.7284961451355322
3.6877076411960132,0.6923565192658726
3.7076411960132893,0.6556279686450633
3.727574750830565,0.6183618480169333
3.7475083056478407,0.5806143755509684
3.7674418604651168,0.5424481637272233
3.787375415282392,0.5039344859304891
3.807308970099668,0.46515670770266176
3.8272425249169437,0.42621561458040164
3.8471760797342194,0.3872379256004925
3.867109634551495,0.348390339683888
3.887043189368771,0.3099035331654938
3.9069767441860463,0.2721146690022345
3.9269102990033224,0.2355452338053555
3.9468438538205985,0.20104620924409655
3.9667774086378738,0.1700611320177061
3.98671096345515,0.14502319770356378
4.0066445182724255,0.12955677282320732
4.026578073089701,0.1272750129649514
4.046511627906977,0.1388449056929821
4.0664451827242525,0.1612822097059464
4.086378737541528,0.19072739928796037
4.106312292358805,0.22435389843736478
4.1262458471760795,0.26044768083636427
4.146179401993356,0.2980033758204175
4.166112956810632,0.33641392659313046
4.186046511627907,0.3752936972367073
4.205980066445183,0.4143834807287851
4.225913621262459,0.453499053796294
4.245847176079734,0.4925024606734372
4.26578073089701,0.531285398431104
4.2857142857142865,0.5697592563121591
4.305647840531561,0.6078489439318862
4.325581395348838,0.6454889516807033
4.345514950166113,0.6826207687412371
4.365448504983389,0.7191911512241839
4.385382059800665,0.7551509369185448
4.40531561461794,0.7904542200260933
4.425249169435216,0.82505776815366
4.445182724252492,0.8589206055482819
4.465116279069767,0.8920037124329612
4.485049833887043,0.9242698067142918
4.50498338870432,0.9556831849618173
4.524916943521594,0.9862096065740279
4.544850498338871,1.0158162097580847
4.5647840531561465,1.0444714511668725
4.584717607973422,1.0721450632664309
4.604651162790698,1.0988080250733032
4.624584717607974,1.1244325430164195
4.644518272425249,1.1489920394825595
4.664451827242526,1.1724611471895754
4.6843853820598005,1.1948157079638944
4.704318936877076,1.216032774819721
4.724252491694353,1.2360906164789671
4.7441860465116275,1.2549687236540756
4.764119601328904,1.2726478165557567
4.78405315614618,1.2891098531963006
4.803986710963455,1.3043380381425436
4.823920265780731,1.3183168314390639
4.8438538205980075,1.331031957474129
4.863787375415282,1.3424704136028751
4.883720930232559,1.3526204783749654
4.9036544850498345,1.3614717192422072
4.92358803986711,1.369014999642825
4.943521594684386,1.3752424853786107
4.963455149501661,1.3801476502155527
4.983388704318937,1.3837252806530576
5.003322259136213,1.3859714798170137
5.023255813953488,1.3868836704428589
5.043189368770764,1.3864605969235444
5.063122923588041,1.3847023264054064
5.083056478405315,1.3816102489233715
5.102990033222592,1.3771870765737433
5.122923588039868,1.3714368417312368
5.142857142857143,1.3643648943242668
5.162790697674419,1.355977898190913
5.182724252491695,1.346283826547123
5.20265780730897,1.3352919566087837
5.222591362126246,1.3230128634205172
5.242524916943522,1.3094584129575746
5.262458471760797,1.294641754582915
5.282392026578074,1.278577312959751
5.3023255813953485,1.2612807795435155
5.322259136212625,1.242769103803818
5.342192691029901,1.2230604843623876
5.362126245847176,1.2021743602753439
5.382059800664452,1.180131402742735
5.4019933554817285,1.1569535075969513
5.421926910299003,1.1326637890105464
5.44186046511628,1.1072865749782372
5.4617940199335555,1.08084740527769
5.48172757475083,1.0533730328109352
5.501661129568107,1.0248914294902285
5.5215946843853825,0.9954317981846657
5.541528239202658,0.9650245927215612
5.561461794019934,0.9337015485921997
5.5813953488372094,0.9014957279209858
5.601328903654485,0.8684415835346792
5.621262458471762,0.8345750487871464
5.641196013289036,0.7999336624198451
5.661129568106313,0.7645567415867474
5.681063122923589,0.7284856219063511
5.700996677740864,0.6917639921024855
5.72093023255814,0.6544383642515452
5.740863787375416,0.6165587419137241
5.760797342192691,0.5781795828040249
5.780730897009967,0.5393612096798549
5.800664451827243,0.5001719203698477
5.820598006644518,0.4606912188663176
5.840531561461795,0.42101490028252286
5.8604651162790695,0.3812633084664937
5.880398671096346,0.3415952328283455
5.900332225913622,0.30223224807622734
5.920265780730897,0.2635032272143678
5.940199335548173,0.22592932943605024
5.960132890365449,0.19039161338115942
5.980066445182724,0.15845841484170223
6.0,0.13293094697444385
6.0199335548172765,0.11817617895416817
6.039867109634551,0.11837005413562005
6.059800664451828,0.13345848300950042
6.0797342192691035,0.15922655274480718
6.099667774086379,0.19134035812407282
6.119601328903655,0.227034650740317
6.139534883720931,0.26476229480645197
6.159468438538206,0.30365318904166605
6.179401993355482,0.34319176213651537
6.1993355481727574,0.38305201381303916
6.219269102990033,0.4230138253546754
6.23920265780731,0.4629190837194443
6.259136212624584,0.5026476654952391
6.279069767441861,0.5421037118035521
6.299003322259137,0.5812074659002492
6.318936877076412,0.6198902433013961
6.338870431893688,0.658091233882122
6.3588039867109645,0.6957554126568678
6.378737541528239,0.7328321424651063
6.398671096345516,0.7692742205211635
6.418604651162791,0.8050372168186264
6.438538205980066,0.8400790087257811
6.458471760797343,0.8743594501004268
6.4784053156146175,0.9078401342854912
6.498338870431894,0.9404842236656729
6.51827242524917,0.9722563270796428
6.538205980066445,1.003122412063547
6.558139534883721,1.0330497427148584
6.578073089700998,1.0620068365686934
6.598006644518272,1.0899634356819747
6.617940199335549,1.1168904883884958
6.6378737541528245,1.1427601390902622
6.6578073089701,1.167545724101272
6.677740863787376,1.1912217720340745
6.6976744186046515,1.2137640075693683
6.717607973421927,1.235149357709062
6.737541528239203,1.2553559598092245
6.7574750830564785,1.274363170837801
6.777408637873754,1.2921515774158008
6.797342192691031,1.3087030062886218
6.8172757475083055,1.3240005349424175
6.837209302325582,1.3380285021344658
6.857142857142858,1.3507725181487253
6.877076411960133,1.3622194746221796
6.897009966777409,1.3723575538146628
6.9169435215946855,1.3811762372172887
6.93687707641196,1.3886663134130584
6.956810631229236,1.3948198851181486
6.9767441860465125,1.3996303753456236
6.996677740863787,1.403092532643778
7.016611295681064,1.4052024353712183
7.036544850498339,1.4059574949787417
7.056478405315615,1.4053564582760154
7.076411960132891,1.4033994086675634
7.096345514950166,1.4000877663493394
7.116279069767442,1.395424287463503
7.136212624584719,1.3894130622151224
7.156146179401993,1.3820595119612888
7.17607973421927,1.3733703852895494
7.196013289036546,1.3633537531102324
7.21594684385382,1.352019002795384
7.235880398671097,1.339376831405864
7.2558139534883725,1.3254392380592812
7.275747508305648,1.3102195155036853
7.295681063122924,1.2937322409767051
7.3156146179402,1.2759932664481384
7.335548172757475,1.2570197083656771
7.355481727574752,1.2368299370508096
7.3754152823920265,1.2154435659258804
7.395348837209303,1.1928814407961914
7.415282392026579,1.1691656294655008
7.435215946843854,1.144319412033364
7.45514950166113,1.118367272313884
7.475083056478406,1.0913348909338887
7.495016611295681,1.0632491408261489
7.514950166112956,1.034138086042233
7.5348837209302335,1.004030985092069
7.554817275747508,0.9729583004014758
7.574750830564784,0.9409517160080132
7.5946843853820605,0.9080441663529524
7.614617940199336,0.874269880068112
7.634551495016611,0.8396644441462203
7.6544850498338874,0.8042648960464849
7.674418604651163,0.768109854480627
7.694352159468439,0.7312397044185225
7.714285714285715,0.6936968591886193
7.73421926910299,0.6555261340083038
7.754152823920266,0.6167752835893879
7.774086378737542,0.5774957864617086
7.794019933554818,0.5377440091745241
7.813953488372093,0.49758297125496553
7.83388704318937,0.4570850894038084
7.853820598006645,0.41633657353581266
7.8737541528239205,0.37544471997464085
7.893687707641197,0.3345505159367807
7.913621262458472,0.2938514804977539
7.9335548172757475,0.25364535855566583
7.953488372093024,0.21441882766369502
7.9734219269103,0.17703829043042849
7.9933554817275745,0.1431726410725061
8.013289036544851,0.11614389563085516
8.033222591362128,0.10172090179638084
8.053156146179402,0.10530068379068508
8.073089700996679,0.1253564940326666
8.093023255813954,0.15560108037097395
8.11295681063123,0.19118590611864822
8.132890365448505,0.22954709267505014
8.152823920265782,0.2693936366396724
8.172757475083056,0.31003624004938585
8.192691029900331,0.35107467414200655
8.21262458471761,0.3922560200177999
8.232558139534884,0.43340737213712577
8.252491694352159,0.474401919257323
8.272425249169435,0.5151408310032397
8.292358803986712,0.5555430728429406
8.312292358803987,0.5955394166692591
8.332225913621263,0.6350687803734183
8.352159468438538,0.6740759159596539
8.372093023255815,0.7125099080283099
8.392026578073091,0.7503231754155926
8.411960132890366,0.7874707943952037
8.43189368770764,0.8239100327084015
8.451827242524917,0.8596000249897147
8.471760797342194,0.894501544948013
8.491694352159469,0.9285768449437946
8.511627906976745,0.961789543252727
8.53156146179402,0.9941045455324407
8.551495016611296,1.0254879911090242
8.571428571428573,1.05590721744835
8.591362126245848,1.085330738051517
8.611295681063122,1.113728230311394
8.6312292358804,1.1410705307789843
8.651162790697676,1.1673296359373782
8.67109634551495,1.1924787070487521
8.691029900332227,1.21649207798115
8.710963455149502,1.2393452651732957
8.730897009966778,1.2610149790830156
8.750830564784053,1.2814791366060228
8.77076411960133,1.300716874058623
8.790697674418604,1.3187085604002096
8.81063122923588,1.3354358104349346
8.830564784053157,1.350881497781115
8.850498338870432,1.3650297674363925
8.870431893687707,1.37786604779719
8.890365448504983,1.3893770620159944
8.91029900332226,1.3995508386000928
8.930232558139535,1.408376721171448
8.950166112956811,1.4158453773213444
8.970099667774086,1.4219488065042194
8.990033222591363,1.4266803469250242
9.00996677740864,1.4300346813823674
9.029900332225914,1.4320078420368316
9.049833887043189,1.4325972140801357
9.069767441860467,1.43180153828658
9.089700996677742,1.4296209124331263
9.109634551495017,1.426056791579673
9.129568106312293,1.4211119872056062
9.14950166112957,1.4147906652033875
9.169435215946844,1.4070983427347168
9.189368770764121,1.398041883959596
9.209302325581396,1.387629494654035
9.22923588039867,1.3758707157376184
9.249169435215949,1.3627764157386553
9.269102990033224,1.348358782231828
9.289036544850498,1.3326313122916842
9.308970099667773,1.3156088020151617
9.328903654485051,1.2973073351783464
9.348837209302326,1.2777442711068159
9.368770764119601,1.2569382318570186
9.388704318936878,1.2349090888278214
9.408637873754152,1.2116779489494227
9.428571428571429,1.187267140631823
9.448504983388705,1.1617001997006209
9.46843853820598,1.135001855606415
9.488372093023255,1.107198018271153
9.508305647840533,1.0783157660367297
9.528239202657808,1.0483833353168268
9.548172757475083,1.0174301127377798
9.56810631229236,0.9854866308046474
9.588039867109636,0.9525845684773799
9.60797342192691,0.9187567585280491
9.627906976744187,0.8840372042416936
9.647840531561462,0.8484611090178162
9.667774086378738,0.8120649238845408
9.687707641196015,0.7748864201009662
9.70764119601329,0.7369647973000604
9.727574750830565,0.6983408426882833
9.747508305647841,0.6590571648178932
9.767441860465118,0.6191585383968664
9.787375415282392,0.5786924181372287
9.807308970099669,0.5377097165563179
9.827242524916944,0.4962660061036786
9.84717607973422,0.454423426600075
9.867109634551497,0.4122538111436824
9.887043189368772,0.36984401347893564
9.906976744186046,0.32730542716245986
9.926910299003321,0.2847919959541592
9.9468438538206,0.242536733081516
9.966777408637874,0.20093222046514891
9.986710963455149,0.16072627593840677
10.006644518272426,0.12354715012674525
10.026578073089702,0.09334664135070911
10.046511627906977,0.07882534481593667
10.066445182724253,0.08819945605400302
10.086378737541528,0.11580454244287258
10.106312292358805,0.15196142458870548
10.126245847176081,0.19181334243353032
10.146179401993356,0.23337477868698767
10.16611295681063,0.2757606741468922
10.186046511627907,0.31852001998569773
10.205980066445184,0.3613919808312121
10.225913621262459,0.40420792639920994
10.245847176079735,0.4468479311470982
10.26578073089701,0.4892197039530726
10.285714285714286,0.5312476165896928
10.305647840531563,0.5728666391521438
10.325581395348838,0.6140188182601257
10.345514950166113,0.654651146729053
10.36544850498339,0.6947142309122871
10.385382059800666,0.7341614339479124
10.40531561461794,0.7729483129244815
10.425249169435217,0.8110322431151498
10.445182724252492,0.8483721644444184
10.465116279069768,0.8849284096795806
10.485049833887045,0.9206625883695158
10.50498338870432,0.9555375094765326
10.524916943521594,0.9895171312644394
10.544850498338871,1.0225665306233886
10.564784053156147,1.0546518863898224
10.584717607973422,1.0857404728116655
10.604651162790697,1.115800660394056
10.624584717607974,1.144801922110975
10.64451827242525,1.1727148434959342
10.664451827242525,1.1995111354998067
