Frequency (Hz),Amplitude
0.0,1.880705855642796
0.019801980198019802,1.8799694301480487
0.039603960396039604,1.8777613398899942
0.0594059405940594,1.8740851459468826
0.07920792079207921,1.8689467914938758
0.09900990099009901,1.8623546140320135
0.1188118811881188,1.8543193628349723
0.13861386138613863,1.844854221947065
0.15841584158415842,1.8339748391704338
0.1782178217821782,1.8216993615922552
0.19801980198019803,1.8080484783244333
0.21782178217821782,1.793045471261474
0.2376237623762376,1.7767162748083674
0.25742574257425743,1.7590895456917546
0.27722772277227725,1.7401967441460564
0.297029702970297,1.7200722279632432
0.31683168316831684,1.698753361112161
0.33663366336633666,1.6762806388710272
0.3564356435643564,1.652697831674935
0.37623762376237624,1.6280521501562786
0.39603960396039606,1.6023944341457144
0.4158415841584158,1.5757793686956423
0.43564356435643564,1.5482657304730616
0.45544554455445546,1.5199166681219685
0.4752475247524752,1.4908000203826786
0.495049504950495,1.4609886758281763
0.5148514851485149,1.430560977962242
0.5346534653465347,1.399601179020868
0.5544554455445545,1.3681999449858067
0.5742574257425742,1.3364549128639507
0.594059405940594,1.3044712989537084
0.613861386138614,1.2723625532737781
0.6336633663366337,1.2402510501500317
0.6534653465346534,1.2082687976322046
0.6732673267326733,1.176558138364343
0.6930693069306931,1.145272401167881
0.7128712871287128,1.1145764454190332
0.7326732673267327,1.084647019123996
0.7524752475247525,1.0556728268583846
0.7722772277227723,1.0278541769904002
0.7920792079207921,1.001402052107031
0.8118811881188118,0.9765364278942796
0.8316831683168316,0.9534836622069545
0.8514851485148516,0.9324727984788912
0.8712871287128713,0.9137306876725985
0.891089108910891,0.897475939882721
0.9108910891089109,0.8839118719752658
0.9306930693069307,0.873218808886367
0.9504950495049505,0.8655462929668605
0.9702970297029703,0.8610059110497399
0.99009900990099,0.8596655096251496
1.00990099009901,0.8615454939569868
1.0297029702970297,0.8666176890378054
1.0495049504950495,0.8748069143544037
1.0693069306930694,0.8859950627305587
1.0891089108910892,0.900027161032899
1.108910891089109,0.9167186947363778
1.1287128712871286,0.9358634274740458
1.1485148514851484,0.9572410261801538
1.1683168316831685,0.980623968120112
1.188118811881188,1.0057834047796597
1.2079207920792079,1.0324938445143474
1.227722772277228,1.0605366636309577
1.2475247524752475,1.0897025544548657
1.2673267326732673,1.1197930720959501
1.2871287128712872,1.1506214590132047
1.3069306930693068,1.1820129198188112
1.3267326732673268,1.2138044984964507
1.3465346534653466,1.2458446842020154
1.3663366336633662,1.2779928452346954
1.3861386138613863,1.310118566547128
1.405940594059406,1.3421009456336306
1.4257425742574257,1.373827885108341
1.4455445544554455,1.4051954075010988
1.4653465346534653,1.4361070082384397
1.4851485148514851,1.4664730558412302
1.504950495049505,1.496210243490247
1.5247524752475248,1.5252410927893811
1.5445544554455446,1.553493508387176
1.5643564356435644,1.580900380778985
1.5841584158415842,1.6073992338608785
1.6039603960396038,1.632931913457653
1.6237623762376237,1.6574443129691017
1.6435643564356437,1.6808861323731725
1.6633663366336633,1.703210667025881
1.683168316831683,1.7243746229575356
1.7029702970297032,1.7443379556526326
1.7227722772277227,1.7630637295947047
1.7425742574257426,1.7805179961454591
1.7623762376237624,1.7966696876005015
1.782178217821782,1.811490525519128
1.801980198019802,1.8249549416595794
1.8217821782178218,1.8370400100652788
1.8415841584158414,1.8477253890410845
1.8613861386138615,1.8569932719342868
1.881188118811881,1.864828345793696
1.900990099009901,1.8712177571242081
1.920792079207921,1.8761510840851952
1.9405940594059405,1.8796203146015398
1.9603960396039604,1.8816198299669502
1.98019801980198,1.8821463936235567
2.0,1.8811991448999479
2.01980198019802,1.8787795975847401
2.0396039603960396,1.8748916433052492
2.0594059405940595,1.869541559772915
2.0792079207920793,1.8627380240502178
2.099009900990099,1.854492131089655
2.118811881188119,1.8448174178955186
2.1386138613861387,1.8337298937653743
2.1584158415841586,1.82124807718222
2.1782178217821784,1.8073930400519074
2.1980198019801978,1.7921884601157623
2.217821782178218,1.775660682516859
2.237623762376238,1.7578387916628184
2.257425742574257,1.7387546947092296
2.2772277227722775,1.7184432181883844
2.297029702970297,1.6969422195284882
2.3168316831683167,1.6742927154498304
2.336633663366337,1.650539029485721
2.3564356435643563,1.6257289611546055
2.376237623762376,1.5999139796009727
2.3960396039603964,1.5731494448160352
2.4158415841584158,1.5454948598305007
2.4356435643564356,1.5170141575156768
2.455445544554456,1.4877760258009198
2.4752475247524752,1.4578542751606707
2.495049504950495,1.4273282520678883
2.514851485148515,1.3962833016448266
2.5346534653465347,1.3648112818178564
2.5544554455445545,1.33301112969915
2.5742574257425743,1.3009894784048186
2.594059405940594,1.2688613187301452
2.6138613861386135,1.2367506945991118
2.633663366336634,1.2047914134675421
2.6534653465346536,1.173127742297747
2.673267326732673,1.1419150457549136
2.6930693069306932,1.1113203054400866
2.712871287128713,1.0815224371645709
2.7326732673267324,1.0527122980770642
2.7524752475247527,1.0250922486671534
2.7722772277227725,0.9988751098879896
2.792079207920792,0.9742823388839958
2.811881188118812,0.9515412468371378
2.8316831683168315,0.930881110318262
2.8514851485148514,0.912528094802939
2.8712871287128716,0.8966990240179795
2.891089108910891,0.8835941911155869
2.910891089108911,0.8733896021682133
2.9306930693069306,0.8662292356971268
2.9504950495049505,0.862218045024226
2.9702970297029703,0.8614164707962386
2.99009900990099,0.863837132560112
3.00990099009901,0.8694441294350411
3.0297029702970297,0.8781550430430319
3.0495049504950495,0.8898453770287413
3.0693069306930694,0.904354870689643
3.089108910891089,0.9214949514476662
3.108910891089109,0.9410565630959373
3.128712871287129,0.9628177034270033
3.148514851485148,0.9865501790767128
3.1683168316831685,1.0120252844937743
3.1881188118811883,1.0390182936610086
3.2079207920792077,1.0673117931896734
3.227722772277228,1.0966979764203433
3.2475247524752473,1.1269800648254922
3.267326732673267,1.157973035811574
3.2871287128712874,1.1895038266059417
3.3069306930693068,1.2214111623416466
3.3267326732673266,1.2535451301307066
3.346534653465347,1.2857665946100276
3.366336633663366,1.31794652678789
3.386138613861386,1.349965298145789
3.4059405940594063,1.3817119760574221
3.4257425742574257,1.4130836443598704
3.4455445544554455,1.4439847638098866
3.4653465346534653,1.4743265805848464
3.485148514851485,1.5040265863833298
3.504950495049505,1.5330080305637765
3.5247524752475248,1.5611994827381441
3.5445544554455446,1.5885344430043387
3.564356435643564,1.6149509963214297
3.5841584158415842,1.64039150723166
3.603960396039604,1.664802351085637
3.6237623762376234,1.6881336780411427
3.6435643564356437,1.7103392063174743
3.6633663366336635,1.731376041452471
3.683168316831683,1.7512045185981293
3.702970297029703,1.7697880651841755
3.722772277227723,1.7870930815641177
3.7425742574257423,1.8030888375288028
3.762376237623762,1.8177473828236204
3.7821782178217824,1.8310434700365217
3.801980198019802,1.8429544884343474
3.8217821782178216,1.8534604075157577
3.841584158415842,1.8625437292217444
3.8613861386138613,1.8701894479008865
3.881188118811881,1.8763850172684944
3.9009900990099013,1.8811203237279779
3.9207920792079207,1.8843876655415734
3.9405940594059405,1.8861817374475491
3.96039603960396,1.8864996204241198
3.98019801980198,1.8853407763982655
4.0,1.8827070477919539
4.01980198019802,1.8786026618909761
4.03960396039604,1.8730342401137132
4.0594059405940595,1.8660108123509083
4.079207920792079,1.8575438366441368
4.099009900990099,1.8476472245717377
4.118811881188119,1.8363373728187804
4.138613861386139,1.8236332015231311
4.158415841584159,1.80955620011555
4.178217821782178,1.794130481509079
4.198019801980198,1.777382845644539
4.217821782178218,1.7593428535659592
4.237623762376238,1.7400429133844226
4.257425742574258,1.7195183796927636
4.2772277227722775,1.6978076682175183
4.297029702970297,1.6749523877392978
4.316831683168317,1.650997491577112
4.336633663366336,1.6259914512129678
4.356435643564357,1.5999864549250333
4.376237623762377,1.5730386345894278
4.3960396039603955,1.5452083240865477
4.415841584158416,1.5165603529810556
4.435643564356436,1.4871643792969789
4.455445544554455,1.457095265224067
4.475247524752476,1.426433499387655
4.4950495049504955,1.3952656687781415
4.514851485148514,1.3636849824109492
4.534653465346535,1.3317918470611827
4.554455445544555,1.2996944927081033
4.574257425742574,1.2675096412711164
4.594059405940594,1.2353632063700595
4.613861386138614,1.2033910036642623
4.633663366336633,1.1717394402268417
4.653465346534653,1.1405661368213473
4.673267326732674,1.1100404184520343
4.693069306930693,1.0803435861424178
4.712871287128713,1.0516688573183266
4.732673267326733,1.0242208354823348
4.752475247524752,0.9982143460300053
4.772277227722772,0.9738724605315281
4.792079207920793,0.9514235357631463
4.811881188118812,0.9310971274963682
4.8316831683168315,0.913118713813862
4.851485148514852,0.8977032857645647
4.871287128712871,0.8850480320037912
4.891089108910891,0.8753245406505727
4.910891089108912,0.8686711296384031
4.930693069306931,0.8651860460225234
4.9504950495049505,0.8649222940548371
4.97029702970297,0.8678847296033138
4.99009900990099,0.8740298003455077
5.00990099009901,0.8832679659174185
5.02970297029703,0.8954684789384307
5.0495049504950495,0.9104659285139849
5.069306930693069,0.9280677984211188
5.089108910891089,0.9480622865064794
5.108910891089109,0.970225743967747
5.128712871287129,0.9943292741748087
5.148514851485149,1.0201442288258908
5.1683168316831685,1.0474465150511434
5.188118811881188,1.0760197591897802
5.207920792079208,1.1056574563810417
5.227722772277227,1.136164275710839
5.247524752475248,1.167356699319492
5.267326732673268,1.1990631620774883
5.2871287128712865,1.231123835818637
5.306930693069307,1.2633901756418056
5.326732673267327,1.2957243198415689
5.346534653465346,1.3279984119627513
5.366336633663367,1.3600938942515235
5.3861386138613865,1.3919008064953262
5.405940594059405,1.4233171125443644
5.425742574257426,1.4542480681345522
5.445544554455446,1.4846056373932188
5.465346534653465,1.5143079610573216
5.485148514851486,1.5432788765030436
5.504950495049505,1.571447487797681
5.524752475247524,1.5987477828445322
5.544554455445545,1.6251182940753834
5.564356435643565,1.650501798887185
5.584158415841584,1.6748450559983328
5.603960396039604,1.6980985740299666
5.623762376237624,1.7202164088377407
5.643564356435643,1.7411559863882389
5.663366336633663,1.7608779482635033
5.683168316831684,1.7793460171690154
5.702970297029703,1.7965268801031202
5.7227722772277225,1.812390087112905
5.742574257425743,1.8269079638094987
5.762376237623762,1.8400555360432977
5.782178217821782,1.8518104653466931
5.801980198019803,1.8621529939399202
5.821782178217822,1.871065898265511
5.841584158415841,1.8785344501710273
5.861386138613861,1.8845463849994772
5.881188118811881,1.889091875974721
5.900990099009901,1.892163514386396
5.920792079207921,1.8937562951881508
5.9405940594059405,1.8938676077252303
5.96039603960396,1.8924972314050537
5.98019801980198,1.8896473362186352
6.0,1.8853224881134734
6.01980198019802,1.879529659311168
6.03960396039604,1.8722782437573462
6.0594059405940595,1.863580077989031
6.079207920792079,1.8534494678071174
6.099009900990099,1.841903221250674
6.118811881188119,1.828960688487421
6.138613861386139,1.8146438093625123
6.158415841584159,1.7989771694877683
6.178217821782178,1.7819880659077874
6.198019801980198,1.763706583549461
6.217821782178218,1.7441656838494748
6.237623762376237,1.7234013071618526
6.257425742574258,1.7014524907751136
6.2772277227722775,1.6783615046168459
6.297029702970296,1.6541740069906279
6.316831683168317,1.628939222973122
6.336633663366337,1.602710148391088
6.356435643564356,1.5755437825875702
6.376237623762377,1.547501393455416
6.396039603960396,1.5186488184367288
6.415841584158415,1.4890568053171596
6.435643564356436,1.4588013966238484
6.455445544554456,1.4279643611791655
6.475247524752475,1.3966336757488462
6.495049504950495,1.3649040585871257
6.514851485148515,1.3328775547999892
6.534653465346534,1.3006641705271478
6.554455445544554,1.2683825486073819
6.574257425742575,1.2361606721760279
6.594059405940594,1.2041365740028322
6.6138613861386135,1.1724590177229683
6.633663366336634,1.1412881018903538
6.653465346534653,1.1107957186288762
6.673267326732673,1.0811657756660598
6.693069306930694,1.0525940646478054
6.712871287128713,1.0252876321829045
6.732673267326732,0.9994634873936794
6.752475247524753,0.9753464677493613
6.772277227722772,0.9531660931989828
6.792079207920792,0.9331522785108849
6.811881188118813,0.9155298561296029
6.8316831683168315,0.9005119927618666
6.851485148514851,0.8882927575716333
6.871287128712871,0.8790392973538356
6.891089108910891,0.8728842554149776
6.910891089108911,0.8699191848182353
6.930693069306931,0.8701897041712501
6.9504950495049505,0.873692998747391
6.97029702970297,0.8803779941264895
6.99009900990099,0.8901481784726377
7.00990099009901,0.902866704186025
7.02970297029703,0.9183631390756419
7.0495049504950495,0.9364411110292069
7.069306930693069,0.9568861052977763
7.089108910891089,0.9794727993225706
7.108910891089109,1.0039715061363925
7.128712871287128,1.0301534935013708
7.148514851485149,1.0577951154473082
7.1683168316831685,1.0866808172079507
7.188118811881187,1.1166051507655008
7.207920792079208,1.1473739732430768
7.227722772277228,1.1788050053545245
7.247524752475247,1.21072791327662
7.267326732673268,1.2429840538690635
7.287128712871287,1.2754259966585693
7.306930693069306,1.3079169104590882
7.326732673267327,1.3403298800307395
7.346534653465347,1.3725471995876664
7.366336633663366,1.4044596752638714
7.3861386138613865,1.4359659574385761
7.405940594059406,1.4669719155455654
7.425742574257425,1.4973900620582918
7.445544554455446,1.5271390282202384
7.465346534653466,1.556143091326402
7.485148514851485,1.5843317515925472
7.504950495049505,1.6116393555912585
7.524752475247524,1.6380047626733614
7.544554455445544,1.6633710505714276
7.564356435643565,1.6876852563837534
7.584158415841584,1.7108981492801654
7.603960396039604,1.7329640314978174
7.623762376237624,1.753840564466372
7.643564356435643,1.7734886171910034
7.663366336633663,1.7918721343117094
7.683168316831684,1.808958021537177
7.702970297029703,1.8247160464154581
7.7227722772277225,1.8391187526482877
7.742574257425743,1.8521413863801677
7.762376237623762,1.8637618330975525
7.782178217821782,1.8739605639587475
7.801980198019803,1.8827205905426856
7.821782178217822,1.8900274271568211
7.841584158415841,1.8958690599825503
7.861386138613862,1.9002359224628633
7.881188118811881,1.9031208764533794
7.900990099009901,1.9045191987660313
7.92079207920792,1.9044285728367467
7.9405940594059405,1.9028490853456117
7.96039603960396,1.8997832277123998
7.980198019801979,1.8952359024833152
8.0,1.8892144347180968
8.01980198019802,1.88172858858172
8.03960396039604,1.87279058944366
8.05940594059406,1.862415151891605
8.07920792079208,1.8506195141772412
8.099009900990099,1.8374234797314333
8.118811881188119,1.8228494665161545
8.138613861386139,1.80692256512335
8.158415841584159,1.7896706066880146
8.178217821782178,1.771124241856143
8.198019801980198,1.7513170322400096
8.217821782178218,1.730285556003928
8.237623762376238,1.7080695294553163
8.257425742574258,1.6847119467670923
8.277227722772277,1.6602592402277403
8.297029702970297,1.634761463699673
8.316831683168317,1.6082725022585882
8.336633663366337,1.5808503112724148
8.356435643564357,1.552557188440094
8.376237623762377,1.5234600825159101
8.396039603960396,1.4936309425516698
8.415841584158416,1.46314711143074
8.435643564356436,1.432091767154442
8.455445544554456,1.4005544146445916
8.475247524752476,1.3686314295717912
8.495049504950495,1.336426653673395
8.514851485148515,1.3040520378813525
8.534653465346535,1.2716283249479752
8.554455445544555,1.239285756659431
8.574257425742575,1.2071647816088353
8.594059405940595,1.175416727275316
8.613861386138613,1.1442043842929168
8.633663366336634,1.1137024309920365
8.653465346534654,1.0840976027666933
8.673267326732672,1.0555884847010795
8.693069306930694,1.0283847798022372
8.712871287128714,1.0027058838575096
8.732673267326732,0.9787785886900165
8.752475247524753,0.9568337483411149
8.772277227722773,0.937101788935748
8.792079207920791,0.9198070330178986
8.811881188118813,0.9051609475724331
8.831683168316832,0.8933546047238543
8.85148514851485,0.8845508414180406
8.871287128712872,0.8788767778999355
8.891089108910892,0.8764174526716092
8.91089108910891,0.877211307362831
8.930693069306932,0.8812480875688332
8.950495049504951,0.8884694347059783
8.97029702970297,0.8987720893174337
8.990099009900991,0.9120132903855438
9.00990099009901,0.9280177137325512
9.029702970297029,0.9465851887495977
9.04950495049505,0.9674984669423087
9.06930693069307,0.9905304534254052
9.089108910891088,1.0154505023262157
9.10891089108911,1.042029570472627
9.12871287128713,1.0700441868712969
9.148514851485148,1.099279312410391
9.16831683168317,1.129530233794991
9.188118811881187,1.160603665741052
9.207920792079207,1.1923182371821235
9.227722772277229,1.224504521664275
9.247524752475247,1.2570047480232802
9.267326732673267,1.2896723009778088
9.287128712871288,1.3223710961476567
9.306930693069306,1.3549748921065436
9.326732673267326,1.3873665840725424
9.346534653465348,1.4194375096685015
9.366336633663366,1.4510867864229016
9.386138613861386,1.4822206927601533
9.405940594059407,1.5127520985694933
9.425742574257425,1.5425999475228551
9.445544554455445,1.5716887906957095
9.465346534653467,1.5999483693799745
9.485148514851485,1.6273132439922824
9.504950495049505,1.6537224654685598
9.524752475247526,1.6791192853451857
9.544554455445544,1.7034509007479024
9.564356435643564,1.7266682306633392
9.584158415841586,1.7487257201005162
9.603960396039604,1.769581169022405
9.623762376237623,1.7891955832163793
9.643564356435645,1.8075330445603564
9.663366336633663,1.8245605984187543
9.683168316831683,1.8402481561633632
9.702970297029704,1.8545684110558838
9.722772277227723,1.8674967659503026
9.742574257425742,1.8790112714749678
9.762376237623764,1.8890925735369857
9.782178217821782,1.897723869157272
9.801980198019802,1.9048908697947886
9.821782178217823,1.9105817714553723
9.841584158415841,1.914787231005632
9.861386138613861,1.917500348228034
9.881188118811881,1.9187166532609385
9.900990099009901,1.9184340991689635
9.92079207920792,1.9166530594863156
9.94059405940594,1.913376330670264
9.96039603960396,1.9086091394953666
9.98019801980198,1.9023591555131254
10.0,1.894636508797807
10.01980198019802,1.8854538132991678
10.03960396039604,1.8748261962283115
10.05940594059406,1.8627713340154952
10.07920792079208,1.8493094955005103
10.099009900990099,1.8344635931489175
10.118811881188119,1.8182592432328846
10.138613861386139,1.8007248360757175
10.158415841584159,1.781891617635948
10.178217821782178,1.7617937839022402
10.198019801980198,1.740468589784997
10.217821782178218,1.717956474425826
10.237623762376238,1.6943012051010031
10.257425742574258,1.6695500421680338
10.277227722772277,1.6437539277907165
10.297029702970297,1.6169677014696626
10.316831683168317,1.5892503456880878
10.336633663366337,1.5606652652360185
10.356435643564357,1.5312806039668871
10.376237623762377,1.5011696028218342
10.396039603960396,1.4704110028600115
10.415841584158416,1.43908949666097
10.435643564356436,1.407296230683455
10.455445544554454,1.375129359789793
10.475247524752476,1.3426946529320236
10.495049504950495,1.3101061456251661
10.514851485148514,1.2774868299006894
10.534653465346535,1.244969365449199
10.554455445544555,1.2126967860640356
10.574257425742573,1.1808231627038681
10.594059405940595,1.1495141679986844
10.613861386138614,1.118947466594116
10.633663366336632,1.0893128316939191
10.653465346534654,1.0608118618597113
10.673267326732674,1.0336571464752298
