Frequency (Hz),Amplitude
0.0,2.111012044591771
0.04,2.111286840721077
0.08,2.1121098871674504
0.12,2.113477168014433
0.16,2.1153820229446225
0.19999999999999998,2.117815196032143
0.24,2.1207649030226667
0.27999999999999997,2.1242169161076134
0.32,2.128154664964835
0.36,2.132559352637783
0.39999999999999997,2.1374100846632254
0.44,2.1426840097365223
0.48,2.148356470124484
0.52,2.154401159998373
0.5599999999999999,2.160790289861654
0.6,2.167494755285535
0.64,2.174484308236056
0.6799999999999999,2.18172772937444
0.72,2.189192999832781
0.76,2.1968474711039323
0.7999999999999999,2.204658031832951
0.84,2.212591270452121
0.88,2.2206136327582082
0.9199999999999999,2.228691573684916
0.96,2.2367917026722113
1.0,2.244880922174625
1.04,2.252926558980426
1.0799999999999998,2.2608964881316234
1.1199999999999999,2.268759249339788
1.1600000000000001,2.276484155884569
1.2,2.284041396060332
1.24,2.2914021273020335
1.28,2.2985385631748403
1.3199999999999998,2.3054240534538692
1.3599999999999999,2.3120331575518414
1.4,2.3183417115743437
1.44,2.324326889295798
1.48,2.329967257355342
1.52,2.335242824971471
1.5599999999999998,2.340135088468586
1.5999999999999999,2.344627070898245
1.64,2.3487033570239086
1.68,2.3523501239208318
1.72,2.355555167423213
1.76,2.3583079246292775
1.7999999999999998,2.360599492651995
1.8399999999999999,2.362422643779199
1.88,2.3637718371820267
1.92,2.3646432272852795
1.9599999999999997,2.365034668887654
2.0,2.3649457190939405
2.0399999999999996,2.3643776360954116
2.08,2.3633333748087537
2.12,2.361817579358295
2.1599999999999997,2.359836572360766
2.2,2.357398340946873
2.2399999999999998,2.3545125194292638
2.28,2.3511903685025546
2.3200000000000003,2.3474447508378535
2.36,2.3432901029120226
2.4,2.338742402890969
2.44,2.3338191343669688
2.48,2.3285392457325442
2.5199999999999996,2.322923104958573
2.56,2.3169924495322376
2.6,2.3107703313019408
2.6399999999999997,2.3042810559721425
2.68,2.297550116991689
2.7199999999999998,2.290604123585718
2.76,2.2834707226942585
2.8,2.276178514601135
2.84,2.2687569620656696
2.88,2.2612362928077014
2.92,2.2536473952443914
2.96,2.2460217074359425
2.9999999999999996,2.2383910992670093
3.04,2.230787747971676
3.08,2.223244007202275
3.1199999999999997,2.2157922699456982
3.16,2.2084648257044606
3.1999999999999997,2.2012937124822036
3.2399999999999998,2.194310564243133
3.28,2.1875464546493393
3.32,2.1810317380166993
3.36,2.174795888565287
3.4,2.1688673391705717
3.44,2.163273320942488
3.4799999999999995,2.1580397050667073
3.52,2.1531908484312186
3.5599999999999996,2.1487494446274837
3.5999999999999996,2.1447363819544805
3.64,2.141170610062625
3.6799999999999997,2.138069016849613
3.7199999999999998,2.135446317160063
3.76,2.1333149547443737
3.7999999999999994,2.131685018800246
3.84,2.1305641762543446
3.88,2.129957620745146
3.9199999999999995,2.1298680390452533
3.96,2.130295595418241
4.0,2.1312379341476833
4.04,2.1326902002117634
4.079999999999999,2.134645077813125
4.12,2.1370928462177616
4.16,2.1400214521160104
4.199999999999999,2.1434165974994652
4.24,2.147261841855143
4.28,2.1515387173171403
4.319999999999999,2.156226855289099
4.36,2.1613041229597845
4.4,2.166746768079299
4.4399999999999995,2.1725295703440017
4.4799999999999995,2.1786259977518934
4.5200000000000005,2.185008366334151
4.56,2.1916480017389617
4.6,2.1985154012363517
4.640000000000001,2.2055803948231576
4.68,2.212812304230782
4.72,2.2201800987706184
4.76,2.227652547088774
4.8,2.235198364039253
4.84,2.2427863520196474
4.88,2.2503855362430625
4.92,2.25796529354193
4.96,2.265495474412168
5.0,2.272946518108453
5.039999999999999,2.2802895606924336
5.08,2.2874965360153063
5.12,2.2945402696843673
5.159999999999999,2.3013945661200323
5.2,2.3080342888561716
5.24,2.3144354342729447
5.279999999999999,2.320575198978573
5.319999999999999,2.32643204107539
5.36,2.331985735557135
5.3999999999999995,2.3372174240894656
5.4399999999999995,2.3421096594251725
5.48,2.346646444700218
5.52,2.3508132678473097
5.56,2.3545971313510154
5.6,2.3579865775529023
5.64,2.3609717096975533
5.68,2.3635442088910055
5.72,2.365697347122469
5.76,2.367425996478723
5.8,2.368726634658423
5.84,2.3695973468711546
5.879999999999999,2.3700378241834437
5.92,2.370049358351597
5.96,2.369634833159003
5.999999999999999,2.368798712253934
6.04,2.367547023462786
6.08,2.3658873395335482
6.119999999999999,2.3638287552449793
6.16,2.361381860799047
6.2,2.3585587113975492
6.239999999999999,2.3553727928889288
6.279999999999999,2.3518389833584017
6.32,2.347973510523893
6.359999999999999,2.343793904792272
6.3999999999999995,2.3393189478255274
6.44,2.3345686164651167
6.4799999999999995,2.329564021865247
6.52,2.3243273436929734
6.56,2.3188817592649102
6.6,2.3132513675079243
6.64,2.3074611076546185
6.68,2.3015366726144015
6.72,2.2955044169976624
6.76,2.2893912598146717
6.8,2.2832245819220613
6.84,2.2770321183487097
6.88,2.270841845698887
6.92,2.264681864903732
6.959999999999999,2.2585802796716314
7.0,2.252565071073125
7.04,2.246663968785398
7.08,2.240904319613732
7.119999999999999,2.235312954000685
7.16,2.229916051326194
7.199999999999999,2.224739004890889
7.239999999999999,2.219806287558046
7.28,2.2151413191041747
7.32,2.2107663363912624
7.359999999999999,2.206702267522572
7.3999999999999995,2.2029686111759705
7.4399999999999995,2.1995833223214936
7.4799999999999995,2.196562705521643
7.52,2.193921316981867
7.5600000000000005,2.191671876464334
7.599999999999999,2.1898251901001102
7.64,2.188390085033905
7.68,2.187373356713062
7.719999999999999,2.1867797294907447
7.76,2.1866118310549245
7.800000000000001,2.1868701810239473
7.839999999999999,2.1875531938694577
7.88,2.188657196143505
7.92,2.190176457802737
7.959999999999999,2.1921032372437117
8.0,2.194427839493599
8.040000000000001,2.197138686844371
8.08,2.20022240107894
8.12,2.203663896317994
8.159999999999998,2.2074464814183234
8.2,2.2115519707785536
8.24,2.2159608023572055
8.28,2.220652161680362
8.32,2.225604110611217
8.36,2.2307937196698453
8.399999999999999,2.2361972027265744
8.44,2.241790052944019
8.48,2.247547178908384
8.52,2.2534430399674457
8.56,2.2594517798775295
8.6,2.265547357952482
8.639999999999999,2.2717036770011148
8.68,2.2778947074338283
8.72,2.2840946070117965
8.76,2.2902778358016875
8.8,2.296419265983664
8.84,2.30249428623948
8.879999999999999,2.3084789005199133
8.92,2.314349821055886
8.959999999999999,2.320084555535426
9.0,2.3256614884186577
9.040000000000001,2.331059956405639
9.079999999999998,2.3362603181072545
9.12,2.34124401799785
9.16,2.345993644750344
9.2,2.350492984070711
9.24,2.354727066159503
9.280000000000001,2.3586822079340255
9.32,2.362346050146491
9.36,2.365707589531538
9.399999999999999,2.3687572061113173
9.44,2.3714866857785926
9.48,2.3738892382683288
9.52,2.375959510616511
9.559999999999999,2.3776935961919383
9.6,2.379089039372773
9.639999999999999,2.3801448359250243
9.68,2.380861429125452
9.72,2.3812407016565333
9.76,2.381285963286902
9.8,2.3810019343369015
9.84,2.3803947249162594
9.879999999999999,2.379471809909342
9.92,2.3782419996735853
9.959999999999999,2.376715406408596
10.0,2.3749034061474195
10.04,2.372818596318056
10.079999999999998,2.370474748822494
10.12,2.367886758582948
10.16,2.3650705875106897
10.2,2.3620432038624033
10.24,2.3588225169624595
10.280000000000001,2.355427307287263
10.319999999999999,2.3518771519302994
10.36,2.3481923454933464
10.4,2.344393816481471
10.44,2.340503039316088
10.48,2.3365419421220883
10.52,2.33253281049148
10.559999999999999,2.328498187476628
10.6,2.3244607701210276
10.639999999999999,2.320443302893533
10.68,2.316468468452606
10.72,2.312558776229483
10.76,2.3087364493818163
10.799999999999999,2.3050233107314115
10.84,2.3014406683594304
10.879999999999999,2.298009201588395
10.92,2.2947488481309817
10.96,2.291678693229087
11.0,2.288816861641427
11.04,2.2861804133623997
11.08,2.283785243967555
11.12,2.281645990480626
11.16,2.279775943642592
11.2,2.278186967434001
11.24,2.2768894266575654
11.28,2.2758921233287923
11.319999999999999,2.2752022425488545
11.36,2.2748253084468266
11.4,2.2747651506794897
11.44,2.275023881867571
11.48,2.2756018862301177
11.52,2.2764978195558254
11.559999999999999,2.277708620524251
11.6,2.279229533263842
11.64,2.2810541409100504
11.68,2.2831744098083995
11.72,2.28558074389653
11.759999999999998,2.2882620486982073
11.799999999999999,2.291205804272934
11.84,2.294398146388494
11.879999999999999,2.297823955121797
11.92,2.301466950045987
11.96,2.3053097911294564
11.999999999999998,2.309334184454715
12.04,2.313520991861443
12.08,2.3178503436275224
12.12,2.3223017533232064
12.16,2.326854234005348
12.200000000000001,2.3314864149593078
12.239999999999998,2.336176658244056
12.28,2.3409031743493305
12.32,2.3456441363311424
12.36,2.3503777918515523
12.4,2.3550825726092417
12.44,2.359737200707573
12.479999999999999,2.3643207915655533
12.52,2.368812953033163
12.559999999999999,2.373193880425465
12.6,2.3774444472387573
12.64,2.381546291356597
12.68,2.385481896593335
12.719999999999999,2.389234669457797
12.76,2.392789011049711
12.799999999999999,2.396130384026677
12.84,2.3992453745997886
12.88,2.402121749531913
12.92,2.404748508124099
12.959999999999999,2.4071159291831474
12.999999999999998,2.4092156129672473
13.04,2.411040518107139
13.08,2.4125849934979033
13.12,2.4138448051515295
13.16,2.4148171579933573
13.2,2.415500712576684
13.239999999999998,2.415895596679521
13.28,2.4160034117364666
13.32,2.4158272340468914
13.36,2.4153716106889
13.4,2.4146425500570654
13.44,2.4136475069313175
13.479999999999999,2.412395361974925
13.52,2.410896395551982
13.559999999999999,2.409162255749333
13.6,2.407205920485466
13.64,2.4050416535895187
13.68,2.402684954738388
13.719999999999999,2.400152503148968
13.76,2.39746209493674
13.799999999999999,2.3946325740715486
13.84,2.3916837568872698
13.88,2.388636350134003
13.919999999999998,2.385511862600701
13.959999999999999,2.3823325103819832
14.0,2.3791211159163304
14.04,2.375901000983183
14.08,2.372695873913872
14.120000000000001,2.369529711345126
14.16,2.366426634923477
14.2,2.363410783453383
14.239999999999998,2.360506181069785
14.28,2.35773660210599
14.32,2.3551254334180762
14.36,2.352695535015524
14.399999999999999,2.3504690999324795
14.44,2.34846751435195
14.479999999999999,2.346711219064453
14.52,2.3452195734001426
14.56,2.3440107228169516
14.6,2.3431014713545246
14.64,2.3425071601726177
14.68,2.3422415533814456
14.719999999999999,2.3423167323393983
14.76,2.3427429995394102
14.799999999999999,2.343528793129912
14.84,2.3446806130196145
14.879999999999999,2.3462029593995184
14.919999999999998,2.348098284382022
14.959999999999999,2.350366957308999
15.0,2.3530072441209953
15.04,2.3560153010123384
15.079999999999998,2.359385182425552
15.120000000000001,2.363108863267271
15.159999999999998,2.3671762750608245
15.199999999999998,2.3715753555916788
15.24,2.3762921114544757
15.28,2.3813106927776726
15.319999999999999,2.386613479286204
15.36,2.392181176766061
15.399999999999999,2.397992922918561
15.439999999999998,2.4040264015369086
15.48,2.410257963903191
15.52,2.416662756289885
15.559999999999999,2.4232148524547177
15.600000000000001,2.4298873900399696
15.639999999999999,2.43665270982488
15.679999999999998,2.4434824968306157
15.72,2.4503479223388447
15.76,2.4572197859549942
15.799999999999999,2.464068656923311
15.84,2.4708650139807578
15.879999999999999,2.4775793831182513
15.919999999999998,2.48418247269918
15.96,2.490645305464611
16.0,2.496939347030896
16.04,2.503036630557193
16.080000000000002,2.5089098773270884
16.12,2.5145326130490036
16.16,2.5198792797343104
16.200000000000003,2.524925343059519
16.24,2.529647395159557
16.279999999999998,2.534023252832971
16.319999999999997,2.53803205116709
16.36,2.5416543326118264
16.4,2.544872131545211
16.439999999999998,2.5476690543823137
16.48,2.550030355281994
16.52,2.5519430075034597
16.56,2.5533957704570915
16.6,2.554379252481683
16.64,2.5548859693634633
16.68,2.554910398591154
16.72,2.5544490293161672
16.759999999999998,2.5535004079579973
16.799999999999997,2.552065179362024
16.84,2.5501461233806326
16.88,2.547748186708763
16.919999999999998,2.5448785097620097
16.96,2.541546448339457
17.0,2.537763589764666
17.04,2.533543763147291
17.080000000000002,2.5289030433547435
17.12,2.523859748229166
17.16,2.5184344285302025
17.2,2.5126498500296193
17.24,2.5065309671311766
17.279999999999998,2.5001048873393072
17.32,2.49340082585519
17.36,2.4864500495405286
17.4,2.4792858094601273
17.44,2.47194326119691
17.48,2.4644593721300954
17.52,2.45687281488239
17.56,2.449223846178178
17.6,2.4415541704157926
17.64,2.433906787346161
17.68,2.4263258233708522
17.72,2.418856346127729
17.759999999999998,2.4115441622242124
17.799999999999997,2.404435598207999
17.84,2.3975772651330787
17.88,2.3910158073836967
17.919999999999998,2.3847976367574524
17.96,2.378968653175784
18.0,2.373573953778424
18.04,2.3686575325583594
18.080000000000002,2.364261973093652
18.12,2.3604281373183786
18.159999999999997,2.3571948536316336
18.2,2.3545986079547774
18.24,2.3526732415961447
18.279999999999998,2.3514496599539148
18.32,2.3509555561671265
18.36,2.3512151538010087
18.4,2.352248972517982
18.44,2.3540736204368566
18.48,2.35670161652185
18.52,2.3601412458776054
18.560000000000002,2.3643964502689405
18.6,2.3694667555524194
18.64,2.375347237022212
18.679999999999996,2.3820285229598337
18.72,2.389496835961774
18.759999999999998,2.397734070926683
18.799999999999997,2.406717907938963
18.84,2.416421957709534
18.88,2.4268159367449758
18.919999999999998,2.4378658690254533
18.96,2.4495343106877963
19.0,2.4617805940347375
19.04,2.474561087122326
19.080000000000002,2.4878294652078834
19.119999999999997,2.5015369904602642
19.159999999999997,2.5156327965295735
19.2,2.53006417483044
19.24,2.544776859696174
19.279999999999998,2.559715309895573
19.32,2.5748229843557975
19.36,2.590042610290689
19.4,2.6053164422833217
19.44,2.6205865112054676
19.48,2.635794862168001
19.52,2.6508837809801844
19.560000000000002,2.6657960088490595
19.6,2.680474945271255
19.639999999999997,2.6948648392582433
19.68,2.7089109691932958
19.72,2.7225598117457994
19.759999999999998,2.73575920036861
19.8,2.7484584739792575
19.84,2.7606086164791477
19.88,2.772162387799271
19.919999999999998,2.783074447179088
19.96,2.793301469390235
20.0,2.8028022546106066
20.04,2.8115378326396687
20.08,2.8194715621244657
20.119999999999997,2.826569225439322
20.159999999999997,2.832799119832032
20.2,2.838132145416598
20.24,2.842541890558051
20.279999999999998,2.846004715159062
20.32,2.848499832321466
20.36,2.850009388818343
20.4,2.850518544773927
20.44,2.8500155529091105
20.48,2.848491837668806
20.52,2.8459420745037165
20.560000000000002,2.8423642695316
20.599999999999998,2.8377598397512767
20.639999999999997,2.8321336939246042
20.68,2.8254943141761797
20.72,2.817853838285387
20.759999999999998,2.8092281425589043
20.8,2.7996369250711277
20.84,2.789103788942817
20.88,2.7776563251916726
20.92,2.7653261945293615
20.96,2.752149207294599
21.0,2.7381654004979037
21.04,2.723419110707376
21.08,2.7079590412233174
21.119999999999997,2.691838321670257
21.159999999999997,2.675114557776436
21.2,2.657849868712651
21.24,2.6401109089261965
21.279999999999998,2.6219688709355005
21.32,2.6034994650544685
21.36,2.5847828715038537
21.4,2.565903659857461
21.44,2.546950670286124
21.48,2.5280168506328122
21.52,2.509199043015339
21.56,2.490597713455323
21.599999999999998,2.4723166180264635
21.639999999999997,2.4544623992624146
21.68,2.4371441071278794
21.72,2.420472639800362
21.759999999999998,2.40456010089195
21.8,2.3895190716056773
21.84,2.3754617986923567
21.88,2.362499301942314
21.92,2.3507404082623657
21.96,2.3402907230519103
22.0,2.3312515534494125
22.04,2.323718801864292
22.08,2.3177818517849436
22.119999999999997,2.3135224708761113
22.16,2.311013758554612
22.2,2.310319166290419
22.24,2.3114916186041596
22.28,2.314572760994314
22.32,2.3195923578126556
22.36,2.326567858528983
22.4,2.3355041451259133
22.44,2.346393466892874
22.48,2.359215562071527
22.519999999999996,2.373937959103049
22.56,2.390516444083822
22.599999999999998,2.4088956758317086
22.639999999999997,2.429009925983328
22.68,2.450783918946415
22.72,2.474133745357782
22.759999999999998,2.4989678228680483
22.8,2.5251878794171954
22.84,2.552689936443876
22.88,2.5813652724177105
22.92,2.611101350426361
22.96,2.6417826970376552
23.0,2.673291723079508
23.04,2.7055094801717727
23.08,2.738316349689598
23.119999999999997,2.7715926632689922
23.16,2.805219255954798
23.2,2.8390779546439724
23.24,2.873052005621592
23.28,2.907026445767337
23.32,2.9408884224787664
23.36,2.9745274675695508
23.400000000000002,3.0078357304094605
23.44,3.040708175427824
23.479999999999997,3.073042748846696
23.519999999999996,3.104740519180889
23.56,3.135705795669729
23.599999999999998,3.165846228413314
23.639999999999997,3.1950728935928776
23.68,3.2233003667735196
23.72,3.250446786927627
23.759999999999998,3.2764339134846083
23.8,3.301187178410682
23.84,3.3246357350528397
23.88,3.3467125052437425
23.92,3.3673542259585343
23.96,3.3865014966383575
23.999999999999996,3.4040988281470974
24.04,3.420094694205135
24.08,3.4344415860442585
24.119999999999997,3.4470960709493284
24.16,3.4580188552922455
24.2,3.467174852620429
24.24,3.4745332573330843
24.28,3.480067624462327
24.32,3.483755956070808
24.36,3.4855807947810664
24.400000000000002,3.48552932496268
24.439999999999998,3.4835934821194967
24.479999999999997,3.479770071038813
24.52,3.474060893285073
24.56,3.466472884639932
24.599999999999998,3.4570182631051942
24.64,3.4457146880916913
24.68,3.432585431410835
24.72,3.4176595606611135
24.759999999999998,3.4009721355522045
24.8,3.382564417626363
24.84,3.3624840937101497
24.88,3.340785513246865
24.92,3.317529939406408
24.959999999999997,3.292785813526433
24.999999999999996,3.266629031985794
25.04,3.2391432340231616
25.08,3.210420098262247
25.119999999999997,3.1805596447583664
25.16,3.1496705382045183
25.2,3.117870386492631
25.24,3.0852860270820197
25.28,3.052053791550898
25.32,3.01831973627669
25.36,2.9842398244015067
25.4,2.949980041111719
25.439999999999998,2.915716420855078
25.479999999999997,2.881634961548577
25.52,2.84793139727967
25.56,2.81481079774422
25.599999999999998,2.78248696007206
25.64,2.751181557251331
25.68,2.721123007668975
25.72,2.6925450330124723
25.76,2.6656848776314646
25.8,2.640781172083625
25.84,2.6180714374492826
25.880000000000003,2.5977892452168545
25.919999999999998,2.5801610697293773
25.959999999999997,2.56540289529703
25.999999999999996,2.5537166663346875
26.04,2.5452866937816974
26.08,2.5402761515925243
26.119999999999997,2.5388238100925697
26.16,2.541041155679068
26.2,2.547010036853172
26.24,2.556780954473381
26.28,2.5703720807253494
26.32,2.5877690496034
26.36,2.608925515990843
26.4,2.633764435624374
26.439999999999998,2.662179979044367
26.479999999999997,2.6940399628111824
26.52,2.7291886630471898
26.56,2.7674498702814923
26.599999999999998,2.8086300496018333
26.64,2.852521484063825
26.68,2.898905299343076
26.72,2.947554290801491
26.76,2.9982354978421246
26.8,3.0507124925880307
26.84,3.1047473691548624
26.88,3.16010243536333
26.919999999999998,3.2165416204678845
26.959999999999997,3.2738316205728606
27.0,3.33174280832588
27.04,3.3900499358020064
27.08,3.448532659825132
27.119999999999997,3.506975917879419
27.16,3.565170180729356
27.2,3.6229116052857724
27.24,3.680002108428307
27.28,3.736249379640146
27.32,3.7914668475754927
27.36,3.845473613156045
27.4,3.898094359528629
27.439999999999998,3.9491592472308907
27.479999999999997,3.9985038012037375
27.52,4.045968794842413
27.56,4.091400135070189
27.599999999999998,4.13464875142309
27.64,4.175570491323434
27.68,4.2140260230680315
27.72,4.24988074753925
27.76,4.283004719241675
27.8,4.313272576954812
27.839999999999996,4.340563484056564
27.88,4.364761078399117
27.919999999999998,4.385753431496696
27.959999999999997,4.403433016704007
28.0,4.417696686017202
28.04,4.42844565510975
28.08,4.4355854962192005
28.12,4.439026138523697
28.16,4.438681875687082
28.2,4.434471380307185
28.240000000000002,4.426317725072644
28.28,4.414148410520471
28.32,4.397895399390607
28.359999999999996,4.377495157697588
28.4,4.352888702787461
