Time (s),Filtered Signal
0.0,0.010821457468375381
0.033370535714285714,0.013413551549144025
0.06674107142857143,0.04593712979925287
0.10011160714285713,0.12278842641290345
0.13348214285714285,0.2361319984302944
0.16685267857142858,0.36102914072067727
0.20022321428571427,0.46905725870444676
0.23359375,0.5422769196891111
0.2669642857142857,0.5797682724044535
0.30033482142857143,0.5938501194056109
0.33370535714285715,0.5993116527009983
0.36707589285714287,0.6027615373082412
0.40044642857142854,0.5985162340631551
0.43381696428571426,0.5730681088036396
0.4671875,0.5149149745100187
0.5005580357142857,0.4234850467362499
0.5339285714285714,0.3116603925962773
0.5672991071428571,0.20032957539168436
0.6006696428571429,0.1080870625165578
0.6340401785714286,0.041955012616073824
0.6674107142857143,-0.005633094955230935
0.70078125,-0.05189903344750671
0.7341517857142857,-0.11357527936539313
0.7675223214285715,-0.19714862032988675
0.8008928571428571,-0.294832186917057
0.8342633928571428,-0.3883747810542048
0.8676339285714285,-0.4584166259473162
0.9010044642857142,-0.4940408422234806
0.934375,-0.49722574799616387
0.9677455357142857,-0.4800237797629351
1.0011160714285714,-0.45659054923417475
1.0344866071428571,-0.43507987265633324
1.0678571428571428,-0.4142160127120191
1.1012276785714286,-0.38627384018939687
1.1345982142857143,-0.3442012027076762
1.16796875,-0.28816274886303844
1.2013392857142857,-0.22730189478316862
1.2347098214285714,-0.17556536543412155
1.2680803571428572,-0.1440513266996017
1.3014508928571429,-0.13434261155175095
1.3348214285714286,-0.13661967794594695
1.3681919642857143,-0.13362289178663794
1.4015625,-0.1084498727488479
1.4349330357142858,-0.05237166594120537
1.4683035714285715,0.03097197294420438
1.5016741071428572,0.12686107501366065
1.535044642857143,0.21572904575366111
1.5684151785714286,0.28176028000437814
1.6017857142857141,0.3202480210381119
1.6351562499999999,0.3403943925594339
1.6685267857142856,0.36179445296008966
1.7018973214285713,0.4053075076994435
1.735267857142857,0.4816126738399418
1.7686383928571427,0.5823936209939783
1.8020089285714285,0.6788005572810778
1.8353794642857142,0.729266218066707
1.86875,0.6946762755115945
1.9021205357142856,0.5550788410083677
1.9354910714285714,0.32058594952792085
1.968861607142857,0.031052841434044683
2.002232142857143,-0.2560257025598757
2.0356026785714287,-0.4844760808741703
2.0689732142857142,-0.617131493187869
2.10234375,-0.6449874535322652
2.1357142857142857,-0.5850246376088681
2.169084821428571,-0.4693742054649033
2.202455357142857,-0.3320080088221347
2.2358258928571426,-0.19903022257175937
2.2691964285714286,-0.08547720056679718
2.302566964285714,0.0024853502326069895
2.3359375,0.06352350958706592
2.3693080357142855,0.0985407519753348
2.4026785714285714,0.11055080960975029
2.436049107142857,0.10567425509094872
2.469419642857143,0.09308199231601516
2.5027901785714284,0.08271886113237517
2.5361607142857143,0.08150062800193801
2.56953125,0.09000701840390964
2.6029017857142858,0.10169308827480002
2.6362723214285713,0.10543565640304282
2.669642857142857,0.09055500843883628
2.7030133928571427,0.05212786029736934
2.7363839285714286,-0.005977356866903291
2.769754464285714,-0.07210846497498469
2.803125,-0.13182835811945365
2.8364955357142856,-0.17472602505637508
2.8698660714285715,-0.1995430259356073
2.903236607142857,-0.21457406828135303
2.936607142857143,-0.2326049400743145
2.9699776785714285,-0.2626962999606389
3.0033482142857144,-0.3031553561273423
3.03671875,-0.33975759177315373
3.070089285714286,-0.35071075827095133
3.1034598214285714,-0.31636285470821324
3.1368303571428573,-0.2291307103862317
3.170200892857143,-0.09887292589696262
3.2035714285714283,0.04899324298482375
3.2369419642857142,0.18203410176716978
3.2703124999999997,0.27247484099042707
3.3036830357142857,0.3071864006719558
3.337053571428571,0.291933524813286
3.370424107142857,0.24822219150529473
3.4037946428571426,0.20406275247988034
3.4371651785714286,0.18237960398250566
3.470535714285714,0.19177503032664422
3.50390625,0.22353832702440227
3.5372767857142855,0.2564093218988908
3.5706473214285714,0.26741837117460027
3.604017857142857,0.24428130470360193
3.637388392857143,0.19357564638180294
3.6707589285714284,0.14013514334534655
3.7041294642857143,0.11671119139182443
3.7375,0.14765723777995168
3.7708705357142858,0.23397676618712193
3.8042410714285713,0.34744756996650844
3.837611607142857,0.43799799637939985
3.8709821428571427,0.45241791628516115
3.9043526785714286,0.3567504074267679
3.937723214285714,0.1523374864766651
3.97109375,-0.12205784934159963
4.004464285714286,-0.4033655686429316
4.0378348214285715,-0.6268711445780057
4.0712053571428575,-0.7485705986125856
4.1045758928571425,-0.7580751275683529
4.1379464285714285,-0.6778638411284091
4.171316964285714,-0.5509618479720625
4.2046875,-0.4234707046769205
4.238058035714285,-0.32910428595868485
4.271428571428571,-0.2805473542180424
4.304799107142857,-0.2690005245984202
4.338169642857142,-0.27049313172348644
4.371540178571428,-0.2561027370702292
4.404910714285714,-0.20280807855786942
4.43828125,-0.10183907135672216
4.471651785714285,0.03799416233172175
4.505022321428571,0.19317121685815036
4.538392857142857,0.3336590980177345
4.571763392857143,0.4334510287426156
4.605133928571428,0.4793279484049971
4.638504464285714,0.47434787853412863
4.671875,0.4348317100436247
4.705245535714286,0.38246833465087465
4.738616071428571,0.3351997584951525
4.771986607142857,0.3008052342312035
4.805357142857143,0.27557537419779443
4.838727678571429,0.2480354790965467
4.872098214285714,0.20557006356263538
4.90546875,0.14092170100877308
4.938839285714286,0.056054083053960514
4.972209821428572,-0.037740754813734755
5.005580357142857,-0.12313854343641964
5.038950892857143,-0.18215083753987177
5.072321428571429,-0.2018811956792049
5.105691964285715,-0.179069321636766
5.1390625,-0.12212670785707364
5.172433035714286,-0.04985236348854382
5.2058035714285715,0.013220043353002671
5.2391741071428575,0.043843837632632984
5.2725446428571425,0.027392753420554552
5.3059151785714285,-0.03708450636796793
5.339285714285714,-0.13620235581429307
5.3726562499999995,-0.24654858182319328
5.406026785714285,-0.34252105143986794
5.439397321428571,-0.40466915789140695
5.472767857142857,-0.4251869399307911
5.506138392857142,-0.40833602208539893
5.539508928571428,-0.3657262589682753
5.572879464285714,-0.30867179850532206
5.60625,-0.2413006972765109
5.639620535714285,-0.15800555582575526
5.672991071428571,-0.04701992191202669
5.706361607142857,0.10100649908310554
5.739732142857143,0.28331464952740987
5.773102678571428,0.4792855892238794
5.806473214285714,0.6524736992873897
5.83984375,0.7609477288722232
5.873214285714286,0.7724548194736576
5.906584821428571,0.6781223920461884
5.939955357142857,0.4983244441575673
5.973325892857143,0.27730397838655296
6.006696428571429,0.06804492434604467
6.040066964285714,-0.08649744571389507
6.0734375,-0.16772007020852578
6.106808035714286,-0.1850472236865766
6.140178571428572,-0.16775487862750751
6.173549107142857,-0.14934943777782944
6.206919642857143,-0.1522007296168641
6.240290178571429,-0.17946827938919435
6.273660714285715,-0.2172912591296086
6.30703125,-0.24503966883525408
6.340401785714286,-0.24780415028379113
6.3737723214285715,-0.22482151690652977
6.407142857142857,-0.19005723505967212
6.4405133928571425,-0.16516172273679322
6.4738839285714285,-0.16850449363142952
6.507254464285714,-0.20551629937819693
6.5406249999999995,-0.26472882346523635
6.573995535714285,-0.3212855038229654
6.607366071428571,-0.34648442979023
6.640736607142857,-0.31938307927954623
6.674107142857142,-0.23560949242507756
6.707477678571428,-0.10963698446761933
6.740848214285714,0.030517179657889235
6.77421875,0.15399209163078562
6.807589285714285,0.23865180415766585
6.840959821428571,0.2785947736114843
6.874330357142857,0.2844958623014453
6.907700892857143,0.27692318668988236
6.941071428571428,0.27594188709189693
6.974441964285714,0.2918924777375059
7.0078125,0.3214648919358657
7.041183035714286,0.350492668756667
7.074553571428571,0.3616324704566693
7.107924107142857,0.3428880867067224
7.141294642857143,0.29282265591214124
7.174665178571429,0.22023603883239737
7.208035714285714,0.13900795583126843
7.24140625,0.06120507922841443
7.274776785714286,-0.0077875898239862466
7.308147321428572,-0.06971291287527395
7.341517857142857,-0.12966486225427024
7.374888392857143,-0.19066356110339167
7.408258928571429,-0.24997860991039017
7.441629464285715,-0.29942295635629257
7.475,-0.3293914289606079
7.508370535714286,-0.33416720193535204
7.5417410714285715,-0.31529689686043316
7.575111607142857,-0.2810213710882167
7.6084821428571425,-0.24207031115823
7.6418526785714285,-0.20617820311218588
7.675223214285714,-0.1743026597675043
7.7085937499999995,-0.14048691875254407
7.741964285714285,-0.09533663318656951
7.775334821428571,-0.03132944999055413
7.808705357142857,0.05250966739639402
7.842075892857142,0.14853329457790956
7.875446428571428,0.24176322878657536
7.908816964285714,0.3140571853446788
7.9421875,0.3497444868113402
7.975558035714285,0.340872834519601
8.008928571428571,0.29024313086820164
8.042299107142856,0.2109908623078996
8.075669642857143,0.1225901828301021
8.109040178571428,0.044529627328863765
8.142410714285715,-0.010024482302109682
8.17578125,-0.03806538204987147
8.209151785714285,-0.04646765770386156
8.242522321428572,-0.04767646369486726
8.275892857142857,-0.053260431459113404
8.309263392857142,-0.06831920391228187
8.342633928571429,-0.08947646000343443
8.376004464285714,-0.10750527100460751
8.409375,-0.11324161784243642
8.442745535714286,-0.10362004213067465
8.47611607142857,-0.08452063719493597
8.509486607142858,-0.06880707371145393
8.542857142857143,-0.07048511779693539
8.576227678571428,-0.09784454813091678
8.609598214285715,-0.1487703450533572
8.64296875,-0.2101812388186966
8.676339285714285,-0.2616699152443418
8.709709821428572,-0.2818759301696453
8.743080357142857,-0.25541273450458224
8.776450892857143,-0.17822375767053517
8.809821428571428,-0.059773995661518815
8.843191964285714,0.07869686241084027
8.8765625,0.20960592262888347
8.909933035714285,0.30678710517031454
8.94330357142857,0.3533281005437401
8.976674107142857,0.34689879961000397
9.010044642857142,0.3004818387695551
9.04341517857143,0.2377780303239891
9.076785714285714,0.1844914222769531
9.11015625,0.15854466412134904
9.143526785714286,0.16316260053936693
9.176897321428571,0.18599240133461584
9.210267857142856,0.20498943161809918
9.243638392857143,0.1986373683321837
9.277008928571428,0.1557970632312522
9.310379464285715,0.08049036892496135
9.34375,-0.010547278271952253
9.377120535714285,-0.09595286135528919
9.410491071428572,-0.15901795637638474
9.443861607142857,-0.19344714318252626
9.477232142857142,-0.20325064349145447
9.510602678571429,-0.1979042678205699
9.543973214285714,-0.18633050472094673
9.57734375,-0.1732877081841403
9.610714285714286,-0.15966780367337247
9.64408482142857,-0.14553236764283334
9.677455357142858,-0.13315496617205502
9.710825892857143,-0.12767784038502225
9.744196428571428,-0.13478628137035958
9.777566964285715,-0.15681466069141448
9.8109375,-0.1897178728603861
9.844308035714285,-0.222875269354697
9.877678571428572,-0.24214142274081668
9.911049107142857,-0.23487159669524396
9.944419642857143,-0.19471978460490108
9.977790178571428,-0.1241875245052674
10.011160714285714,-0.03394942825999548
10.04453125,0.0606651386879552
10.077901785714285,0.14455885384331205
10.11127232142857,0.20720474173500936
10.144642857142857,0.24488551775458242
10.178013392857142,0.2602929131345175
10.21138392857143,0.2601140486431462
10.244754464285714,0.25196355355364264
10.278125,0.24196750013505255
10.311495535714286,0.23360902100796874
10.344866071428571,0.22763516649173016
10.378236607142856,0.22243504662396818
10.411607142857143,0.21449824994823583
10.444977678571428,0.19906211493139747
10.478348214285715,0.17135305341642856
10.51171875,0.12858296181418874
10.545089285714285,0.07216709625528661
10.578459821428572,0.00897450804583884
10.611830357142857,-0.04961657973298888
10.645200892857142,-0.09125293849061283
10.678571428571429,-0.1077229285113309
10.711941964285714,-0.09942907618303964
10.745312499999999,-0.07674279898216817
10.778683035714286,-0.05685231474460648
10.81205357142857,-0.0567926781669216
10.845424107142858,-0.08545845017994534
10.878794642857143,-0.13839612134490287
10.912165178571428,-0.19833185432909659
10.945535714285715,-0.24189420182451019
10.97890625,-0.24996002689681757
11.012276785714285,-0.21701693057134105
11.045647321428572,-0.15502449332749862
11.079017857142857,-0.08955470321081191
11.112388392857143,-0.04946713082323387
11.145758928571428,-0.05439901314166006
11.179129464285714,-0.10550712490863026
11.2125,-0.1836426831037331
11.245870535714285,-0.2560192454707383
11.27924107142857,-0.2888046777025489
11.312611607142857,-0.2604933531553607
11.345982142857142,-0.17050278466480456
11.37935267857143,-0.03939479679656999
11.412723214285714,0.09935221025235474
11.44609375,0.2124994122365251
11.479464285714286,0.2795361768247846
11.512834821428571,0.2992920972692844
11.546205357142856,0.28814029904073335
11.579575892857143,0.27099744164312883
11.612946428571428,0.2694190600306492
11.646316964285715,0.2921560552001842
11.6796875,0.3321499193050941
11.713058035714285,0.370809079628401
11.746428571428572,0.3870387046683375
11.779799107142857,0.36649377181647513
11.813169642857142,0.3068059256662681
11.846540178571429,0.21686231881356455
11.879910714285714,0.11131078073411947
11.913281249999999,0.00369030847747269
11.946651785714286,-0.09815442629719123
11.98002232142857,-0.1923750333751195
12.013392857142858,-0.2796406768530839
12.046763392857143,-0.35834204039872725
12.080133928571428,-0.4214642303773225
12.113504464285715,-0.4571416995412168
12.146875,-0.4530271343507481
12.180245535714285,-0.40265207526951313
12.213616071428572,-0.3107261134735696
12.246986607142857,-0.1944046418085201
12.280357142857143,-0.07912202219142064
12.313727678571428,0.00986507674904491
12.347098214285714,0.05672779751844762
12.38046875,0.06080876160468277
12.413839285714285,0.03598837399228001
12.44720982142857,0.0038862705630511563
12.480580357142857,-0.015791426322207442
12.513950892857142,-0.013070833164843724
12.54732142857143,0.009893866444853232
12.580691964285714,0.04251892544231672
12.6140625,0.07314302954237234
12.647433035714286,0.09590687895074038
12.680803571428571,0.11354345937002956
12.714174107142856,0.13477216781615212
12.747544642857143,0.16785056890775632
12.780915178571428,0.213813551791329
12.814285714285713,0.2630943425642262
12.84765625,0.2975590993948462
12.881026785714285,0.2973419352288407
12.914397321428572,0.24950426096065106
12.947767857142857,0.1545518510827675
12.981138392857142,0.027681216257296686
13.014508928571429,-0.10605096426303276
13.047879464285714,-0.22064480715289958
13.081249999999999,-0.29819454878886203
13.114620535714286,-0.3339592556228747
13.14799107142857,-0.3353146163286052
13.181361607142858,-0.31551854337353336
13.214732142857143,-0.28580203549527866
13.248102678571428,-0.24991246683499452
13.281473214285715,-0.20359307686118355
13.31484375,-0.13866354719364138
13.348214285714285,-0.0490886410438051
13.381584821428572,0.06412204000246267
13.414955357142857,0.19118150015703406
13.448325892857143,0.31514091558230095
13.481696428571428,0.4157455575845371
13.515066964285714,0.47416638653437926
13.5484375,0.4776370468125909
13.581808035714285,0.42331234248637317
13.61517857142857,0.3204572244709841
13.648549107142857,0.18973661946955606
13.681919642857142,0.058686414785113244
13.71529017857143,-0.046172803214837056
13.748660714285714,-0.10816618854225614
13.78203125,-0.12654890352602088
13.815401785714286,-0.11667258066285296
13.848772321428571,-0.10347681842750554
13.882142857142856,-0.11072086402579867
13.915513392857143,-0.1505826285351405
13.948883928571428,-0.21826020165929874
13.982254464285713,-0.29397056664616833
14.015625,-0.35137922173576297
14.048995535714285,-0.36865013419487525
14.082366071428572,-0.3372793033017553
14.115736607142857,-0.2650511292475994
14.149107142857142,-0.17220139239033758
14.182477678571429,-0.08288310641935187
14.215848214285714,-0.015947508697590818
14.249218749999999,0.020951568219552325
14.282589285714286,0.03176276921927461
14.31595982142857,0.02751293131817056
14.349330357142858,0.019674059053627225
14.382700892857143,0.014950401654315338
14.416071428571428,0.013910513231246369
14.449441964285715,0.013641552064478767
14.4828125,0.01242275809112795
14.516183035714285,0.013407480421700474
14.549553571428572,0.024926255158148128
14.582924107142857,0.05691339957297839
14.616294642857143,0.11514839573088516
14.649665178571428,0.19637506778814084
14.683035714285714,0.28715939250926514
14.71640625,0.3675648054831441
14.749776785714285,0.41820568699469135
14.78314732142857,0.42733732314393513
14.816517857142857,0.39449392172503794
14.849888392857142,0.32899547699696635
14.88325892857143,0.24443892466302433
14.916629464285714,0.15244169423249246
14.95,0.05912679090783849
14.983370535714286,-0.033995123582987244
15.016741071428571,-0.12584707322651012
15.050111607142856,-0.21142134003007754
15.083482142857143,-0.28043666375838977
15.116852678571428,-0.320402045112399
15.150223214285713,-0.32280526066239623
15.18359375,-0.2891098292452803
15.216964285714285,-0.23292877536103532
15.250334821428572,-0.17635675209036294
15.283705357142857,-0.14127953074082947
15.317075892857142,-0.13924346125226258
15.350446428571429,-0.16478396154179728
15.383816964285714,-0.19611634361410418
15.417187499999999,-0.20392099039409609
15.450558035714286,-0.16490253297342725
15.48392857142857,-0.07389671040404742
15.517299107142858,0.05168566903393291
15.550669642857143,0.17792827654554555
15.584040178571428,0.26858896081868655
15.617410714285715,0.30060165473134054
15.65078125,0.2731663270290395
15.684151785714285,0.20594612435946555
15.717522321428572,0.12766602183628703
15.750892857142857,0.061478591425817006
15.784263392857143,0.014968779012548951
15.817633928571428,-0.02018198400227217
15.851004464285714,-0.05936546345614065
15.884375,-0.11259057408332726
15.917745535714285,-0.17577546009315229
15.95111607142857,-0.23089587841779916
15.984486607142857,-0.255084346322037
16.017857142857142,-0.2337668914326796
16.05122767857143,-0.17057782142933992
16.084598214285712,-0.08830812402844011
16.11796875,-0.019715861432525263
16.151339285714286,0.00768606796564945
16.18470982142857,-0.014561296814906657
16.218080357142856,-0.07050095930904893
16.251450892857143,-0.1259099199324465
16.28482142857143,-0.14336267903294145
16.318191964285713,-0.09910575192036147
16.3515625,0.006337179068720186
16.384933035714287,0.14876923279443857
16.41830357142857,0.29142602973173376
16.451674107142857,0.4007261171781035
16.485044642857144,0.4588788671440942
16.518415178571427,0.46774585765075705
16.551785714285714,0.443251402073429
16.58515625,0.4044512221714305
16.618526785714284,0.36354509459350487
16.65189732142857,0.3217695578725508
16.685267857142858,0.2723437501329808
16.71863839285714,0.20775224587445154
16.752008928571428,0.12670237284562247
16.785379464285715,0.03685414092393265
16.81875,-0.04787524388848068
16.852120535714285,-0.11365165638741037
16.88549107142857,-0.15324331046513667
16.91886160714286,-0.16952677303168834
16.95223214285714,-0.1745688881996509
16.98560267857143,-0.1850081684093237
17.018973214285715,-0.21583413947945818
17.05234375,-0.2748303918876811
17.085714285714285,-0.3592481918592585
17.119084821428572,-0.45542403992269026
17.152455357142856,-0.541502260767496
17.185825892857142,-0.5930469214483167
17.21919642857143,-0.5906728673067186
17.252566964285712,-0.5277289527577518
17.2859375,-0.41505838360627817
17.319308035714286,-0.2799247216421158
17.35267857142857,-0.15798011432882333
17.386049107142856,-0.08026882033365684
17.419419642857143,-0.0602233468407439
17.45279017857143,-0.08662692090891444
17.486160714285713,-0.12658553341123163
17.51953125,-0.1382178044108235
17.552901785714287,-0.08801392260130518
17.58627232142857,0.03488318494660825
