Frequency (Hz),Amplitude
0.0,0.11196882878212477
0.019823788546255508,0.11339364646518207
0.039647577092511016,0.11755936219008109
0.059471365638766524,0.12417578968870407
0.07929515418502203,0.13285453582051468
0.09911894273127755,0.14319166750321718
0.11894273127753305,0.15482051426864124
0.13876651982378857,0.1674330000049266
0.15859030837004406,0.18078082172246707
0.17841409691629956,0.1946675801557481
0.1982378854625551,0.20893859340986087
0.2180616740088106,0.2234714421158394
0.2378854625550661,0.23816822055561396
0.25770925110132165,0.25294954435918715
0.27753303964757714,0.26775004492646104
0.29735682819383263,0.2825150234185164
0.31718061674008813,0.2971979747849942
0.3370044052863437,0.31175875286654714
0.3568281938325991,0.32616220457141165
0.37665198237885467,0.3403771470587715
0.3964757709251102,0.3543755965301102
0.41629955947136565,0.3681321825733466
0.4361233480176212,0.3816237002557992
0.4559471365638767,0.3948287652256527
0.4757709251101322,0.40772754642993003
0.49559471365638774,0.4203015577624815
0.5154185022026433,0.43253349479018327
0.5352422907488987,0.4444071062102469
0.5550660792951543,0.45590709225124787
0.5748898678414097,0.46701902411134416
0.5947136563876653,0.4777292799208943
0.6145374449339208,0.4880249937558133
0.6343612334801763,0.4978940150096651
0.6541850220264318,0.5073248760231002
0.6740088105726874,0.5163067663204965
0.6938325991189428,0.5248295121494144
0.7136563876651982,0.5328835602854228
0.7334801762114539,0.5404599652732407
0.7533039647577093,0.5475503794375195
0.7731277533039648,0.5541470451248928
0.7929515418502204,0.5602427887404648
0.8127753303964759,0.5658310162232296
0.8325991189427313,0.5709057096697788
0.8524229074889869,0.5754614248684423
0.8722466960352424,0.5794932895487396
0.8920704845814978,0.582997002186551
0.9118942731277534,0.5859688312341007
0.931718061674009,0.588405614668461
0.9515418502202644,0.5903047597729695
0.9713656387665199,0.5916642430834198
0.9911894273127755,0.5924826104465063
1.0110132158590308,0.5927589771514827
1.0308370044052866,0.5924930281088368
1.0506607929515421,0.5916850180609263
1.0704845814977975,0.5903357718212884
1.090308370044053,0.588446684549713
1.1101321585903086,0.586019722082083
1.1299559471365639,0.5830574213455471
1.1497797356828194,0.5795628909023341
1.1696035242290752,0.5755398116798222
1.1894273127753305,0.5709924379607156
1.209251101321586,0.5659255987252158
1.2290748898678416,0.5603446994591993
1.248898678414097,0.5542557245676999
1.2687224669603525,0.5476652405640496
1.288546255506608,0.5405804002418291
1.3083700440528636,0.5330089480826168
1.3281938325991192,0.5249592272077144
1.3480176211453747,0.5164401882514376
1.36784140969163,0.5074614006191285
1.3876651982378856,0.4980330667009931
1.4074889867841411,0.4881660397482565
1.4273127753303965,0.47787184629075846
1.4471365638766522,0.4671627141951343
1.4669603524229078,0.45605160774513875
1.4867841409691631,0.44455227149185655
1.5066079295154187,0.4326792850974419
1.5264317180616742,0.420448132020222
1.5462555066079295,0.40787528571279025
1.5660792951541853,0.3949783180992044
1.5859030837004409,0.3817760365625381
1.6057268722466962,0.3682886576484237
1.6255506607929517,0.35453802836932236
1.6453744493392073,0.3405479096544693
1.6651982378854626,0.32634434151972164
1.6850220264317182,0.3119561164792291
1.7048458149779737,0.2974153973520429
1.7246696035242293,0.2827585289840644
1.7444933920704848,0.2680271119078621
1.7643171806167404,0.253269431335798
1.7841409691629957,0.2385423689704215
1.8039647577092512,0.2239139690458456
1.8237885462555068,0.20946688187603751
1.8436123348017623,0.19530295733007927
1.863436123348018,0.18154927464972234
1.8832599118942732,0.16836579258950757
1.9030837004405288,0.1559544063053379
1.9229074889867843,0.14456816720815058
1.9427312775330399,0.13451727462508323
1.9625550660792954,0.12616493939598525
1.982378854625551,0.11990267344564416
2.002202643171806,0.11609597949974781
2.0220264317180616,0.11500537118982809
2.041850220264317,0.11671266361797941
2.061674008810573,0.12109488172828002
2.0814977973568287,0.12786328528710542
2.1013215859030843,0.13664174141882524
2.1211453744493394,0.14704204231375304
2.140969162995595,0.15871162026664234
2.1607929515418505,0.17135296001904762
2.180616740088106,0.18472483287686672
2.2004405286343616,0.1986352101131853
2.220264317180617,0.2129319145680625
2.2400881057268722,0.22749382741200894
2.2599118942731278,0.24222359951976663
2.2797356828193833,0.2570419591365448
2.299559471365639,0.27188339465622025
2.319383259911895,0.28669292410185493
2.3392070484581504,0.3014236886756357
2.3590308370044055,0.316035158944409
2.378854625550661,0.3304917927160579
2.3986784140969166,0.34476202539625384
2.418502202643172,0.35881750564131293
2.4383259911894277,0.37263251282992005
2.4581497797356833,0.3861835101204166
2.4779735682819384,0.3994487993069958
2.497797356828194,0.41240825265784314
2.5176211453744495,0.4250431033916694
2.537444933920705,0.43733578114185495
2.5572687224669606,0.4492697821754051
2.577092511013216,0.46082956664076574
2.5969162995594717,0.47200047696771424
2.6167400881057272,0.4827686729173836
2.6365638766519828,0.49312107980904274
2.6563876651982383,0.5030453472256191
2.676211453744494,0.5125298160880046
2.6960352422907494,0.5215634924381743
2.715859030837005,0.5301360266162956
2.73568281938326,0.5382376967853677
2.7555066079295156,0.5458593959652727
2.775330396475771,0.5529926219015632
2.7951541850220267,0.5596294692239645
2.8149779735682823,0.5657626234516047
2.834801762114538,0.5713853564844154
2.854625550660793,0.5764915232855468
2.874449339207049,0.5810755595138573
2.8942731277533045,0.5851324799081212
2.91409691629956,0.5886578772614788
2.9339207048458156,0.5916479218535717
2.953744493392071,0.5940993612334802
2.9735682819383262,0.5960095202671066
2.993392070484582,0.5973763013817475
3.0132158590308373,0.5981981849557642
3.033039647577093,0.5984742298163614
3.0528634361233484,0.5982040738211609
3.072687224669604,0.5973879345119558
3.092511013215859,0.5960266098409384
3.1123348017621146,0.5941214789814545
3.1321585903083706,0.5916745032484692
3.151982378854626,0.5886882271659899
3.1718061674008817,0.5851657797338745
3.1916299559471373,0.581110875962019
3.2114537444933924,0.5765278187577164
3.231277533039648,0.5714215012737223
3.2511013215859035,0.5657974098480547
3.270925110132159,0.559661627696752
3.2907488986784146,0.5530208395549916
3.31057268722467,0.545882337504737
3.3303964757709252,0.5382540282784829
3.350220264317181,0.5301444423922673
3.3700440528634363,0.5215627455391301
3.389867841409692,0.5125187527722107
3.4096916299559474,0.5030229461279567
3.4295154185022034,0.4930864964943015
3.4493392070484585,0.4827212907226265
3.469162995594714,0.47193996523007736
3.4889867841409696,0.46075594765652184
3.508810572687225,0.4491835085497821
3.5286343612334807,0.43723782558309043
3.5484581497797363,0.42493506350262505
3.5682819383259914,0.4122924739119688
3.588105726872247,0.3993285202038562
3.6079295154185025,0.3860630345481815
3.627753303964758,0.3725174159842162
3.6475770925110136,0.3587148815419867
3.667400881057269,0.3446807862059469
3.6872246696035247,0.33044303281117904
3.7070484581497802,0.31603260013958306
3.726872246696036,0.3014842272466681
3.7466960352422913,0.2868373052775766
3.7665198237885464,0.27213704577440156
3.7863436123348024,0.2574360177907502
3.8061674008810575,0.24279617556141872
3.8259911894273135,0.22829153274376074
3.8458149779735686,0.2140116721700209
3.8656387665198246,0.20006629386451005
3.8854625550660797,0.18659095604766693
3.905286343612335,0.17375396240799365
3.925110132158591,0.16176382059731959
3.9449339207048464,0.15087557108776106
3.964757709251102,0.1413923023832505
3.9845814977973575,0.13365555446028987
4.004405286343612,0.12801683841031758
4.024229074889869,0.12478630861145
4.044052863436123,0.1241675228229049
4.06387665198238,0.12620412195810643
4.083700440528634,0.13076749943209381
4.103524229074891,0.1375929776762587
4.123348017621146,0.14634315523540734
4.143171806167401,0.15666813053968265
4.162995594713657,0.16824511020476018
4.182819383259912,0.1807962588564271
4.2026431718061685,0.19409167488594636
4.222466960352423,0.2079448305761712
4.242290748898679,0.2222053951825024
4.262114537444934,0.23675198508532833
4.28193832599119,0.2514858678577913
4.301762114537445,0.26632586910687095
4.321585903083701,0.2812043992759349
4.3414096916299565,0.29606441065464895
4.361233480176212,0.3108570859729662
4.381057268722468,0.3255400866260345
4.400881057268723,0.34007622320250946
4.420704845814979,0.35443244293326176
4.440528634361234,0.3685790548194522
4.46035242290749,0.38248913342976687
4.4801762114537445,0.39613805756944337
4.500000000000001,0.4095031512990797
4.5198237885462555,0.42256340308417784
4.539647577092512,0.4352992449584435
4.559471365638767,0.4476923780758623
4.579295154185023,0.459725634343549
4.599118942731278,0.471382866287212
4.618942731277533,0.48264885913614286
4.63876651982379,0.4935092604900273
4.658590308370044,0.5039505239684537
4.678414096916301,0.5139598640319636
4.6982378854625555,0.5235252197657573
4.718061674008811,0.5326352258801417
4.737885462555067,0.5412791895396082
4.757709251101322,0.5494470719114859
4.777533039647578,0.5571294735431069
4.797356828193833,0.5643176228481398
4.817180616740089,0.571003367119291
4.837004405286344,0.5771791655929545
4.856828193832599,0.5828380841785559
4.876651982378855,0.5879737915357203
4.896475770925111,0.592580556239561
4.9162995594713665,0.5966532448212258
4.936123348017622,0.6001873205096273
4.955947136563877,0.6031788425323644
4.975770925110133,0.6056244658612469
4.995594713656388,0.6075214413108946
5.015418502202644,0.6088676159191423
5.035242290748899,0.6096614335557194
5.055066079295155,0.6099019357217619
5.07488986784141,0.6095887625176039
5.094713656387666,0.6087221537703595
5.114537444933921,0.6073029503267522
5.134361233480177,0.6053325955305571
5.154185022026432,0.6028131369185682
5.174008810572688,0.5997472281846151
5.193832599118943,0.5961381314779598
5.213656387665199,0.5919897201218821
5.2334801762114544,0.5873064818595192
5.25330396475771,0.582093522759868
5.2731277533039655,0.576356571946076
5.292951541850221,0.5701019873436226
5.312775330396477,0.5633367626883315
5.332599118942731,0.5560685360852679
5.352422907488988,0.5483056004717062
5.372246696035242,0.5400569164140797
5.392070484581499,0.5313321277625872
5.4118942731277535,0.522141580804287
5.43171806167401,0.5124963477010197
5.451541850220265,0.5024082551813566
5.47136563876652,0.4918899196859986
5.491189427312777,0.48095479045830114
5.511013215859031,0.4696172024434679
5.530837004405288,0.45789244133690943
5.550660792951542,0.44579682373579066
5.570484581497798,0.43334779614278257
5.5903083700440535,0.4205640576042905
5.610132158590309,0.407465712116944
5.6299559471365646,0.3940744587098415
5.64977973568282,0.38041382944752455
5.669603524229076,0.36650948868814964
5.689427312775331,0.35238961101949706
5.709251101321586,0.3380853607041837
5.729074889867842,0.32363150259282664
5.748898678414098,0.309067183778976
5.768722466960353,0.2944369372458319
5.788546255506609,0.279791973702056
5.808370044052864,0.2651918454534765
5.82819383259912,0.25070658475189184
5.848017621145375,0.23641943347521924
5.867841409691631,0.22243027904794424
5.887665198237886,0.20885986732337553
5.907488986784142,0.1958547264829754
5.927312775330397,0.18359241939218035
5.9471365638766525,0.17228611767479182
5.966960352422908,0.16218643780709593
5.986784140969164,0.15357706333689836
6.00660792951542,0.1467595500374007
6.026431718061675,0.14202354996117633
6.04625550660793,0.13960372244431926
6.066079295154186,0.1396338306005364
6.085903083700441,0.14211614132603193
6.105726872246697,0.1469211694136046
6.125550660792952,0.1538178657965925
6.145374449339208,0.1625193362564083
6.1651982378854635,0.17272595909862107
6.185022026431718,0.1841553073756525
6.204845814977975,0.1965575158662257
6.224669603524229,0.20971980694542064
6.244493392070486,0.2234647643633565
6.264317180616741,0.23764583449741558
6.284140969162996,0.2521421235815602
6.303964757709252,0.2668535059064119
6.323788546255507,0.2816964317043312
6.3436123348017635,0.29660050481375494
6.363436123348018,0.3115057620683373
6.3832599118942746,0.32636054117880947
6.403083700440529,0.34111982129916657
6.422907488986785,0.3557439344902097
6.44273127753304,0.37019756464487863
6.462555066079296,0.3844489679396996
6.482378854625551,0.39846936373015823
6.502202643171807,0.4122324567256711
6.5220264317180625,0.42571406055707234
6.541850220264318,0.43889179995383043
6.561674008810574,0.4517448741400191
6.581497797356829,0.4642538681371398
6.601321585903085,0.4764006017437053
6.62114537444934,0.4881680082947454
6.640969162995596,0.4995400370748466
6.6607929515418505,0.510501574607598
6.680616740088107,0.5210383810763832
6.700440528634362,0.5311370389249817
6.720264317180618,0.5407849112999125
6.740088105726873,0.5499701084723557
6.759911894273129,0.5586814607496632
6.779735682819384,0.5669084966781669
6.799559471365639,0.5746414255693844
6.819383259911895,0.5818711235649747
6.83920704845815,0.5885891226008665
6.859030837004407,0.5947876017487709
6.8788546255506615,0.6004593805077452
6.898678414096917,0.6055979136945098
6.918502202643173,0.6101972876452109
6.938325991189428,0.61425221749194
6.958149779735684,0.6177580453208417
6.977973568281939,0.6207107390549731
6.997797356828195,0.6231068919349778
7.01762114537445,0.6249437224976144
7.037444933920705,0.6262190749749453
7.0572687224669615,0.626931420057792
7.077092511013216,0.6270798559852951
7.096916299559473,0.6266641099405358
7.116740088105728,0.6256845397488555
7.136563876651983,0.6241421358918322
7.156387665198239,0.622038523867589
7.176211453744494,0.6193759669453748
7.19603524229075,0.6161573693819886
7.215859030837005,0.6123862801887299
7.235682819383261,0.6080668975616124
7.255506607929516,0.6032040741146032
7.275330396475772,0.5978033230880678
7.295154185022027,0.591870825741402
7.314977973568283,0.5854134401836009
7.334801762114538,0.5784387119485082
7.354625550660794,0.5709548866857007
7.374449339207049,0.5629709254158599
7.394273127753305,0.5544965228945921
7.4140969162995605,0.5455421297450577
7.433920704845816,0.5361189791647268
7.453744493392072,0.5262391191893329
7.473568281938327,0.5159154517204838
7.493392070484583,0.5051617798016017
7.513215859030838,0.4939928649776946
7.533039647577093,0.48242449701562523
7.552863436123348,0.47047357882311147
7.572687224669605,0.4581582301162117
7.59251101321586,0.445497914295252
7.612334801762115,0.43251359415289314
7.6321585903083715,0.419227923530925
7.651982378854627,0.40566548395849233
7.671806167400882,0.3918530777636712
7.691629955947137,0.3778200922969547
7.711453744493394,0.36359895390865815
7.731277533039649,0.3492256953627458
7.751101321585904,0.33474066659653157
7.7709251101321595,0.320189426194654
7.790748898678416,0.3056238593857412
7.81057268722467,0.2911035769154166
7.830396475770926,0.27669765562046655
7.850220264317182,0.2624867812779812
7.870044052863436,0.24856583818065342
7.889867841409693,0.23504694114692226
7.909691629955948,0.22206279596357345
7.929515418502204,0.20977006074167098
7.9493392070484585,0.1983520108461746
7.969162995594715,0.1880192500527153
7.9889867841409705,0.17900652286572669
8.008810572687224,0.17156316912740466
8.02863436123348,0.1659350988881705
8.048458149779737,0.16233825442361197
8.068281938325994,0.1609276527109133
8.088105726872246,0.16177061818576563
8.107929515418503,0.164834095245201
8.12775330396476,0.16999137429228608
8.147577092511014,0.177045314494084
8.167400881057269,0.185758967395255
8.187224669603525,0.19588408300657015
8.207048458149782,0.2071819087086011
8.226872246696036,0.2194352162128542
8.246696035242293,0.23245323910160667
8.266519823788547,0.2460719918406317
8.286343612334802,0.2601521053526668
8.306167400881058,0.27457563781665417
8.325991189427315,0.2892427092269033
8.345814977973568,0.30406838298034417
8.365638766519824,0.31897996242076787
8.38546255506608,0.3339147338967304
8.405286343612337,0.3488181238392916
8.42511013215859,0.3636422131605766
8.444933920704846,0.3783445481210708
8.464757709251103,0.3928871916437924
8.484581497797357,0.40723596709675564
8.504405286343614,0.4213598550395915
8.524229074889869,0.43523051113528083
8.544052863436125,0.4488218799651787
8.56387665198238,0.46210988482289905
8.583700440528636,0.47507217782689576
8.60352422907489,0.487687938054454
8.623348017621145,0.49993770803292475
8.643171806167402,0.5118032609773868
8.662995594713658,0.523267492765645
8.682819383259913,0.5343143338884289
8.702643171806168,0.5449286775884313
8.722466960352424,0.5550963211646855
8.74229074889868,0.5648039180185719
8.762114537444935,0.5740389384911851
8.78193832599119,0.5827896379153814
8.801762114537446,0.5910450306039616
8.821585903083701,0.5987948687328614
8.841409691629957,0.6060296252688476
8.861233480176212,0.61274048024485
8.881057268722468,0.6189193098106295
8.900881057268723,0.6245586775876261
8.92070484581498,0.629651827940345
8.940528634361234,0.6341926808447736
8.960352422907489,0.6381758280916302
8.980176211453745,0.6415965306097424
9.000000000000002,0.6444507167355504
9.019823788546258,0.6467349812892292
9.039647577092511,0.6484465853481889
9.059471365638768,0.6495834566352284
9.079295154185024,0.6501441904629224
9.099118942731279,0.6501280511979355
9.118942731277533,0.64953497422991
9.13876651982379,0.6483655684504025
9.158590308370046,0.646621119267721
9.1784140969163,0.6443035922048175
9.198237885462555,0.6414156371499529
9.218061674008812,0.637960593354243
9.237885462555067,0.6339424952973051
9.257709251101323,0.6293660795728501
9.27753303964758,0.6242367929810881
9.297356828193834,0.6185608020557513
9.317180616740089,0.612345004301154
9.337004405286345,0.605597041471566
9.356828193832602,0.5983253152927364
9.376651982378855,0.5905390061064677
9.396475770925111,0.5822480950174848
9.416299559471367,0.5734633902402972
9.436123348017622,0.5641965584892557
9.455947136563877,0.5544601624320442
9.475770925110133,0.5442677054450725
9.49559471365639,0.533633685177667
9.515418502202644,0.522573657764322
9.5352422907489,0.5111043149358357
9.555066079295155,0.49924357679188525
9.57488986784141,0.48701070363431337
9.594713656387666,0.47442643105329385
9.614537444933923,0.461513133446649
9.634361233480178,0.4482950223810561
9.654185022026432,0.43479838772648394
9.674008810572689,0.42105189137105953
9.693832599118945,0.4070869256110949
9.713656387665198,0.39293805105507407
9.733480176211454,0.37864353208765306
9.75330396475771,0.3642459915272723
9.773127753303967,0.34979320981888523
9.792951541850222,0.3353390973340178
9.812775330396477,0.3209448699054379
9.832599118942733,0.30668045536024213
9.852422907488988,0.2926261485787357
9.872246696035244,0.27887450788469786
9.892070484581499,0.26553243599823934
9.911894273127754,0.25272329952653966
9.93171806167401,0.24058879393868718
9.951541850220266,0.2292900412310176
9.971365638766521,0.21900712040510648
9.991189427312776,0.20993593555035683
10.011013215859032,0.20228118098816478
10.030837004405289,0.19624444707512176
10.050660792951543,0.19200753908906534
10.070484581497798,0.18971292506286302
10.090308370044054,0.1894453205473509
10.11013215859031,0.1912194950150964
10.129955947136565,0.19497824324853408
10.14977973568282,0.2006012018461067
10.169603524229077,0.20792153862535234
10.189427312775331,0.21674555725849354
10.209251101321588,0.22687065295910178
10.229074889867842,0.23809894976628151
10.248898678414099,0.2502459768172872
10.268722466960353,0.26314506626506573
10.28854625550661,0.27664866819712824
10.308370044052865,0.2906277482471888
10.32819383259912,0.30497016984810144
10.348017621145376,0.31957866526249473
10.367841409691632,0.33436875578405145
10.387665198237887,0.34926681136290155
10.407488986784141,0.36420833308840184
10.427312775330398,0.3791364805790018
10.447136563876654,0.39400083427767685
10.466960352422909,0.4087563681470618
10.486784140969164,0.4233626035586103
10.50660792951542,0.43778291554059345
10.526431718061675,0.4519839652529382
