Frequency (Hz),Amplitude
0.0,5.969614694266896
0.01978021978021978,5.966693589515836
0.03956043956043956,5.957933261703318
0.05934065934065934,5.9433426682574675
0.07912087912087912,5.9229367319364234
0.0989010989010989,5.896736331481668
0.11868131868131868,5.864768288708308
0.13846153846153844,5.827065352214384
0.15824175824175823,5.783666177953844
0.17802197802197803,5.734615306987461
0.1978021978021978,5.679963140807267
0.21758241758241756,5.61976591472567
0.23736263736263735,5.554085669933686
0.2571428571428572,5.482990224970113
0.2769230769230769,5.406553147511376
0.2967032967032967,5.324853727598695
0.31648351648351647,5.237976953676814
0.3362637362637363,5.146013493142831
0.35604395604395606,5.049059679513713
0.3758241758241758,4.947217508845369
0.3956043956043956,4.840594648711121
0.4153846153846154,4.729304463923811
0.4351648351648351,4.613466064333241
0.45494505494505494,4.493204381546783
0.4747252747252747,4.368650283441514
0.4945054945054945,4.239940738055954
0.5142857142857143,4.107219042146571
0.5340659340659341,3.970635134774202
0.5538461538461538,3.830346023344664
0.5736263736263736,3.686516359456982
0.5934065934065934,3.539319216057611
0.6131868131868132,3.388937137831399
0.6329670329670329,3.2355635667109994
0.6527472527472528,3.07940478899167
0.6725274725274726,2.9206826181077585
0.6923076923076923,2.7596381313708487
0.7120879120879121,2.596536942980731
0.7318681318681318,2.431676759148
0.7516483516483516,2.2653983941789715
0.7714285714285715,2.098102154857342
0.7912087912087912,1.9302727562661885
0.810989010989011,1.7625181500658418
0.8307692307692308,1.5956316503157313
0.8505494505494506,1.4306940830970853
0.8703296703296702,1.26924613005154
0.8901098901098901,1.1135845985411623
0.9098901098901099,0.9672709320585468
0.9296703296703297,0.835956227355262
0.9494505494505494,0.7284518919414305
0.9692307692307692,0.6570707128602775
0.989010989010989,0.6344437494544337
1.0087912087912088,0.6656531605512245
1.0285714285714287,0.7438499054406384
1.0483516483516484,0.8560046546933001
1.0681318681318681,0.9902946942951387
1.087912087912088,1.138488484529491
1.1076923076923075,1.2953449675233524
1.1274725274725275,1.457554864919381
1.1472527472527472,1.6229717699818504
1.1670329670329669,1.7901455875586567
1.1868131868131868,1.958051416347179
1.2065934065934065,2.1259314945315877
1.2263736263736265,2.2932011517956217
1.2461538461538462,2.4593913575790634
1.2659340659340659,2.6241126564341073
1.2857142857142858,2.7870319301846687
1.3054945054945055,2.947857059441776
1.3252747252747252,3.1063265759121492
1.3450549450549452,3.262202544493131
1.3648351648351649,3.4152655824922773
1.3846153846153846,3.5653113221289408
1.4043956043956045,3.712147866099746
1.4241758241758242,3.8555939381468383
1.443956043956044,3.995477527595756
1.4637362637362636,4.131634889913926
1.4835164835164834,4.263909807104569
1.5032967032967033,4.392153039868091
1.523076923076923,4.516221922691369
1.542857142857143,4.635980066368225
1.5626373626373626,4.751297141839999
1.5824175824175823,4.862048725931498
1.6021978021978023,4.968116194378463
1.621978021978022,5.069386651057397
1.6417582417582417,5.165752884918305
1.6615384615384616,5.257113348048169
1.6813186813186813,5.343372149741224
1.7010989010989013,5.424439062549453
1.720879120879121,5.5002295371266685
1.7406593406593405,5.570664723326734
1.7604395604395604,5.635671495519996
1.7802197802197801,5.6951824804867615
1.7999999999999998,5.749136086558435
1.8197802197802198,5.79747653292589
1.8395604395604395,5.840153878234328
1.8593406593406594,5.877124047746207
1.879120879120879,5.908348858487225
1.8989010989010988,5.933796041900256
1.9186813186813187,5.953439263625447
1.9384615384615385,5.967258140103636
1.9582417582417584,5.975238251769064
1.978021978021978,5.977371152658677
1.9978021978021978,5.97365437632044
2.0175824175824175,5.964091437955115
2.0373626373626372,5.948691832775404
2.0571428571428574,5.927471030615872
2.076923076923077,5.900450466877096
2.096703296703297,5.867657529940532
2.1164835164835165,5.829125545248262
2.1362637362637362,5.784893756304989
2.1560439560439564,5.735007302932899
2.175824175824176,5.679517197193181
2.195604395604396,5.618480297487925
2.215384615384615,5.551959281473814
2.2351648351648348,5.480022618562703
2.254945054945055,5.402744542959712
2.2747252747252746,5.320205028405963
2.2945054945054943,5.2324897660640115
2.314285714285714,5.139690147324244
2.3340659340659338,5.04190325374208
2.353846153846154,4.939231856868546
2.3736263736263736,4.831784431448281
2.3934065934065933,4.719675186385346
2.413186813186813,4.603024119090797
2.4329670329670328,4.48195710043185
2.452747252747253,4.356605999646051
2.4725274725274726,4.227108861473213
2.4923076923076923,4.093610151691947
2.512087912087912,3.956261092662267
2.5318681318681318,3.815220118013647
2.5516483516483515,3.6706534862395364
2.5714285714285716,3.5227361081225843
2.5912087912087913,3.3716526648634915
2.610989010989011,3.2175991260340187
2.6307692307692307,3.0607848246164413
2.6505494505494505,2.9014353195061315
2.6703296703296706,2.739796388960896
2.6901098901098903,2.5761396769509446
2.70989010989011,2.410770801989539
2.7296703296703297,2.2440412121060174
2.7494505494505495,2.076365869686557
2.769230769230769,1.9082502331843005
2.7890109890109893,1.7403324516903094
2.808791208791209,1.5734511154502546
2.8285714285714287,1.4087570121949966
2.8483516483516484,1.247902081485526
2.8681318681318677,1.0933640345832536
2.887912087912088,0.9489994172134584
2.9076923076923076,0.8209186603919036
2.9274725274725273,0.7185269595285271
2.947252747252747,0.6544927928406241
2.9670329670329667,0.6407117141986095
2.986813186813187,0.6803090723490409
3.0065934065934066,0.7649166105059253
3.0263736263736263,0.8814053514897818
3.046153846153846,1.0185343455339941
3.0659340659340657,1.1686289240154357
3.085714285714286,1.32681457402823
3.1054945054945056,1.4899988463992657
3.1252747252747253,1.6561611315840177
3.145054945054945,1.8239252938124342
3.1648351648351647,1.9923110060446192
3.184615384615385,2.1605881209450435
3.2043956043956046,2.3281895374303962
3.2241758241758243,2.4946576772108977
3.243956043956044,2.6596107107023306
3.2637362637362637,2.8227206915411873
3.2835164835164834,2.9836990623537285
3.3032967032967036,3.1422868395625034
3.3230769230769233,3.2982478392327357
3.342857142857143,3.451363923009524
3.3626373626373627,3.601431613133243
3.3824175824175824,3.7482596524879495
3.4021978021978025,3.8916672279627185
3.4219780219780223,4.031482666500821
3.441758241758242,4.167542472642062
3.4615384615384617,4.29969061583223
3.481318681318681,4.42777800242299
3.501098901098901,4.55166208556008
3.520879120879121,4.671206578869319
3.5406593406593405,4.786281248813237
3.5604395604395602,4.896761766989965
3.58021978021978,5.002529608269094
3.5999999999999996,5.1034719840360765
3.61978021978022,5.199481802309326
3.6395604395604395,5.290457648352338
3.659340659340659,5.376303780801552
3.679120879120879,5.456930139392066
3.6989010989010986,5.532252361176931
3.718681318681319,5.602191802763109
3.7384615384615385,5.666675566576769
3.758241758241758,5.725636529554084
3.7780219780219784,5.779013372957746
3.7978021978021976,5.826750612261892
3.8175824175824173,5.868798626243577
3.8373626373626375,5.905113684577628
3.8571428571428568,5.9356579733623605
3.876923076923077,5.960399618112046
3.896703296703296,5.979312703843546
3.916483516483517,5.992377291962775
3.936263736263736,5.999579433725017
3.956043956043956,6.000911180103736
3.9758241758241755,5.9963705879584
3.9956043956043956,5.985961722443491
4.015384615384615,5.969694655651574
4.035164835164835,5.947585461533169
4.054945054945055,5.9196562071878835
4.0747252747252745,5.885934940675914
4.094505494505494,5.8464556755582775
4.114285714285715,5.801258372440911
4.134065934065934,5.75038891787326
4.153846153846154,5.693899101040456
4.173626373626373,5.631846588792111
4.193406593406594,5.564294899676116
4.213186813186813,5.491313377796949
4.232967032967033,5.412977167504265
4.252747252747253,5.329367190147619
4.2725274725274724,5.240570124420482
4.292307692307692,5.146678392179414
4.312087912087913,5.047790152084104
4.331868131868132,4.944009303993563
4.351648351648352,4.835445507814715
4.371428571428571,4.7222142214901135
4.391208791208792,4.604436764112277
4.410989010989011,4.482240411875003
4.43076923076923,4.355758536874766
4.450549450549451,4.225130801884688
4.4703296703296695,4.090503428462605
4.49010989010989,3.952029561599435
4.50989010989011,3.809869762263647
4.52967032967033,3.664192670702549
4.549450549450549,3.515175899815313
4.569230769230769,3.3630072417784733
4.589010989010989,3.207886306241617
4.608791208791209,3.0500267609832994
4.628571428571428,2.889659425944997
4.648351648351649,2.7270365956627827
4.6681318681318675,2.562438161422958
4.687912087912088,2.396180421637893
4.707692307692308,2.2286289930037992
4.7274725274725276,2.0602181214244193
4.747252747252747,1.8914802270259887
4.767032967032967,1.7230922380937719
4.786813186813187,1.5559501814809877
4.806593406593407,1.391292448844611
4.826373626373626,1.2309082189885125
4.846153846153847,1.0774940762156513
4.8659340659340655,0.9352534594051176
4.885714285714286,0.8108098499130263
4.905494505494506,0.7141585043962578
4.9252747252747255,0.6581337926581559
4.945054945054945,0.653527889165992
4.964835164835165,0.7013921095150046
4.984615384615385,0.7921292886049505
5.004395604395604,0.912767717391081
5.024175824175824,1.0527078682964766
5.043956043956045,1.2048052111827898
5.0637362637362635,1.3645143624819045
5.083516483516483,1.528930766720754
5.103296703296703,1.6961396848431487
5.123076923076923,1.8648254217256963
5.142857142857143,2.0340428940179507
5.162637362637362,2.2030829480184586
5.182417582417583,2.371391209458812
5.2021978021978015,2.5385179036042227
5.221978021978022,2.7040859990948127
5.241758241758242,2.8677704722991466
5.2615384615384615,3.029284495912554
5.281318681318681,3.188370046438501
5.301098901098901,3.344791397526158
5.320879120879121,3.498330538667362
5.340659340659341,3.6487839038929235
5.36043956043956,3.795960007923631
5.380219780219781,3.939677721295208
5.3999999999999995,4.079765002142784
5.41978021978022,4.216057958760962
5.43956043956044,4.3484001546630955
5.4593406593406595,4.47664209333856
5.479120879120879,4.600640837427214
5.498901098901099,4.720259729251522
5.518681318681319,4.835368188285703
5.538461538461538,4.94584156732326
5.558241758241758,5.051561053580364
5.578021978021979,5.152413604248991
5.5978021978021975,5.248291908436487
5.617582417582418,5.339094369238023
5.637362637362637,5.424725101052403
5.6571428571428575,5.505093938288878
5.676923076923077,5.58011645240864
5.696703296703297,5.649713974860011
5.716483516483517,5.713813623946275
5.736263736263735,5.772348334042638
5.756043956043956,5.825256885877816
5.775824175824176,5.872483936834862
5.795604395604395,5.913980050419026
5.815384615384615,5.9497017241971974
5.835164835164835,5.979611415643284
5.854945054945055,6.003677565431307
5.874725274725275,6.0218746178094955
5.894505494505494,6.03418303776656
5.914285714285715,6.040589324770151
5.934065934065933,6.041086022918591
5.953846153846154,6.0356717274033995
5.973626373626374,6.024351087232914
5.993406593406593,6.00713480421936
6.013186813186813,5.984039628282958
6.032967032967033,5.955088349180594
6.052747252747253,5.920309784823462
6.072527472527473,5.879738766410594
6.092307692307692,5.8334161206753565
6.112087912087913,5.781388649622332
6.131868131868131,5.723709108225847
6.151648351648352,5.660436180672664
6.171428571428572,5.591634455864916
6.191208791208791,5.517374403062145
6.210989010989011,5.43773234874076
6.230769230769231,5.352790455997076
6.2505494505494505,5.262636708129931
6.270329670329671,5.1673648984301295
6.29010989010989,5.067074628700932
6.309890109890111,4.961871319672368
6.329670329670329,4.851866237295928
6.349450549450549,4.737176539981989
6.36923076923077,4.617925353254652
6.3890109890109885,4.4942418801736075
6.408791208791209,4.366261558381498
6.428571428571428,4.234126278027228
6.4483516483516485,4.097984679447793
6.468131868131868,3.9579925558874822
6.487912087912088,3.8143133954660158
6.507692307692308,3.6671191092400415
6.527472527472527,3.5165910103012488
6.547252747252747,3.3629211351549944
6.567032967032967,3.2063140374199994
6.5868131868131865,3.046989242054467
6.606593406593407,2.885184637037975
6.626373626373626,2.721161217313995
6.6461538461538465,2.5552098143446877
6.665934065934065,2.3876607984302307
6.685714285714286,2.2188983265564475
6.705494505494506,2.0493817003322237
6.725274725274725,1.8796781171904635
6.745054945054945,1.710514139873442
6.764835164835165,1.5428586801396902
6.7846153846153845,1.378060164414018
6.804395604395605,1.2180778660451013
6.824175824175824,1.0658744114548075
6.8439560439560445,0.9260615105874155
6.863736263736263,0.8058300012850436
6.883516483516484,0.7157304662373482
6.903296703296704,0.6685047918556238
6.923076923076923,0.673460038817868
6.942857142857143,0.7295445307294458
6.962637362637362,0.8262504202960177
6.9824175824175825,0.9509776931697943
7.002197802197802,1.0938035173675342
7.021978021978022,1.2480857436196917
7.041758241758242,1.4095762620805292
7.061538461538461,1.575534698686088
7.081318681318681,1.7441359288316831
7.101098901098901,1.9141135613498805
7.1208791208791204,2.0845499407597834
7.140659340659341,2.2547512497289603
7.16043956043956,2.4241716155570177
7.1802197802197805,2.5923658164231664
7.199999999999999,2.7589590492360077
7.21978021978022,2.923627130369218
7.23956043956044,3.0860832366800186
7.259340659340659,3.2460688457716573
7.279120879120879,3.4033474335834675
7.298901098901099,3.5577000205399996
7.318681318681318,3.7089219809326743
7.338461538461539,3.856820730792113
7.358241758241758,4.001214036526299
7.3780219780219785,4.141928768621741
7.397802197802197,4.278799978651911
7.417582417582418,4.411670213929989
7.437362637362638,4.540389008680428
7.457142857142857,4.664812507533589
7.476923076923077,4.784803188994168
7.496703296703297,4.900229664930025
7.516483516483516,5.010966538152908
7.536263736263736,5.116894304534618
7.556043956043957,5.217899289310012
7.575824175824176,5.313873609595071
7.595604395604395,5.404715156927519
7.615384615384615,5.490327594980341
7.635164835164835,5.570620368622608
7.654945054945055,5.645508721287732
7.674725274725275,5.714913718219223
7.694505494505494,5.778762273639303
7.7142857142857135,5.83698718026087
7.734065934065935,5.8895271398605615
7.753846153846154,5.936326793869152
7.7736263736263735,5.977336753127733
7.793406593406592,6.012513626115719
7.813186813186814,6.041820045085733
7.832967032967034,6.065224689649457
7.852747252747252,6.08270230744969
7.872527472527472,6.0942337316334
7.892307692307693,6.099805894909911
7.912087912087912,6.099411840040922
7.931868131868132,6.093050726666823
7.951648351648351,6.080727834428477
7.971428571428572,6.062454562397158
7.991208791208791,6.03824842487971
8.010989010989011,6.008133043722107
8.03076923076923,5.972138137295182
8.05054945054945,5.93029950641294
8.07032967032967,5.882659017508828
8.09010989010989,5.829264583481952
8.10989010989011,5.770170142726423
8.129670329670331,5.705435636977538
8.149450549450549,5.635126988753712
8.169230769230769,5.55931607934992
8.189010989010988,5.478080728556341
8.20879120879121,5.391504677546367
8.22857142857143,5.299677576717414
8.248351648351647,5.202694980696447
8.268131868131867,5.100658353268052
8.287912087912087,4.993675085683776
8.307692307692308,4.881858532718903
8.327472527472528,4.76532807202705
8.347252747252746,4.644209193902024
8.367032967032966,4.518633630626929
8.386813186813187,4.388739537366305
8.406593406593407,4.254671740314267
8.426373626373627,4.116582072951064
8.446153846153845,3.9746298283665302
8.465934065934066,3.828982365550224
8.485714285714286,3.679815921628594
8.505494505494505,3.527316702237701
8.525274725274725,3.371682351635723
8.545054945054945,3.2131239476293847
8.564835164835165,3.051868731675458
8.584615384615384,2.8881638842856323
8.604395604395604,2.7222818111664915
8.624175824175826,2.5545276520909974
8.643956043956043,2.3852501241871833
8.663736263736263,2.2148574734733506
8.683516483516483,2.0438414299697176
8.703296703296704,1.8728140025938278
8.723076923076924,1.70256537273042
8.742857142857142,1.5341572521166362
8.762637362637362,1.369076908461127
8.782417582417583,1.2094953997517732
8.802197802197803,1.0586995476570367
8.821978021978023,0.9217797628544656
8.84175824175824,0.8065410116047933
8.86153846153846,0.7240037182105157
8.881318681318682,0.6864795466231005
8.901098901098901,0.7014226661149033
8.920879120879121,0.7657516904360752
8.940659340659339,0.8683799866732287
8.96043956043956,0.9972520756490253
8.98021978021978,1.143138070840129
9.0,1.2998704262809144
9.01978021978022,1.4634709854364447
9.03956043956044,1.6313438590207476
9.05934065934066,1.8017400229058007
9.079120879120879,1.9734329854993822
9.098901098901099,2.1455257681385955
9.11868131868132,2.317334878543542
9.138461538461538,2.488319106659198
9.158241758241758,2.6580347578577994
9.178021978021977,2.826106811119409
9.197802197802199,2.9922098998812388
9.217582417582419,3.156055498288576
9.237362637362637,3.317383119038603
9.257142857142856,3.47595416140965
9.276923076923078,3.63154754568054
9.296703296703297,3.7839565742325374
9.316483516483517,3.932986649444498
9.336263736263735,4.07845359939845
9.356043956043957,4.220182440905215
9.375824175824176,4.358006461232897
9.395604395604396,4.491766534779593
9.415384615384616,4.621310614723497
9.435164835164835,4.746493356160136
9.454945054945055,4.8671758388036395
9.474725274725275,4.983225365552928
9.494505494505495,5.0945153191417845
9.514285714285714,5.200925063397998
9.534065934065934,5.302339878803867
9.553846153846154,5.398650924402717
9.573626373626373,5.489755219860647
9.593406593406593,5.575555642827261
9.613186813186815,5.65596093775874
9.632967032967032,5.730885733150724
9.652747252747252,5.800250564737586
9.672527472527472,5.863981902690895
9.692307692307693,5.922012181225769
9.712087912087913,5.974279829322488
9.731868131868131,6.0207293015108485
9.75164835164835,6.061311107858417
9.771428571428572,6.095981842462965
9.791208791208792,6.124704209880462
9.810989010989012,6.147447049029993
9.83076923076923,6.164185354210622
9.850549450549451,6.174900292945945
9.87032967032967,6.1795792204437
9.89010989010989,6.1782156905221965
9.90989010989011,6.170809462915504
9.92967032967033,6.157366506926384
9.94945054945055,6.137899001452565
9.96923076923077,6.1124253314694466
9.989010989010989,6.080970081112393
10.008791208791209,6.043564023567058
10.028571428571428,6.000244108048114
10.048351648351648,5.951053444228522
10.068131868131868,5.896041284576038
10.08791208791209,5.835263005164733
10.107692307692307,5.768780085662023
10.127472527472527,5.696660089351891
10.147252747252747,5.618976644250769
10.167032967032966,5.535809426614102
10.186813186813188,5.447244148432093
10.206593406593406,5.353372550890598
10.226373626373626,5.254292406250472
10.246153846153845,5.150107531207963
10.265934065934067,5.040927815581793
10.285714285714286,4.926869271187914
10.305494505494504,4.808054107089574
10.325274725274724,4.684610839159449
10.345054945054946,4.556674444216324
10.364835164835165,4.424386572121275
10.384615384615385,4.287895833450655
10.404395604395603,4.147358186160424
10.424175824175824,4.002937452684568
10.443956043956044,3.8548060101579207
10.463736263736264,3.7031457124093423
10.483516483516484,3.5481491253067174
10.503296703296703,3.390021190473322
10.523076923076923,3.228981481887569
10.542857142857143,3.065267294324535
10.562637362637362,2.8991379165251154
10.582417582417584,2.73088061955113
10.602197802197802,2.5608191729808385
10.621978021978022,2.389326159279971
10.641758241758241,2.2168411146982145
10.661538461538463,2.043897806976711
10.681318681318682,1.871166170715236
10.7010989010989,1.6995182916826885
10.72087912087912,1.5301346432504275
10.740659340659342,1.364678548472765
10.760439560439561,1.2055856290963565
10.780219780219781,1.0565373434976084
