Frequency (Hz),Amplitude
0.0,1.226873079401851
0.019867549668874173,1.2267848620375492
0.039735099337748346,1.2265205207788765
0.059602649006622516,1.226080987422239
0.07947019867549669,1.2254678126044456
0.09933774834437085,1.2246831622567684
0.11920529801324503,1.2237298126203269
0.13907284768211922,1.2226111438028922
0.15894039735099338,1.2213311318518747
0.17880794701986755,1.219894339313385
0.1986754966887417,1.2183059042426736
0.2185430463576159,1.2165715276273164
0.23841059602649006,1.2146974591812107
0.2582781456953642,1.2126904814647952
0.27814569536423844,1.2105578922850277
0.2980132450331126,1.208307485328141
0.31788079470198677,1.2059475289783195
0.33774834437086093,1.2034867432772847
0.3576158940397351,1.2009342749825238
0.3774834437086093,1.19829967068685
0.3973509933774834,1.1955928479681717
0.4172185430463576,1.1928240645463255
0.4370860927152318,1.1900038854343584
0.45695364238410596,1.1871431480836259
0.4768211920529801,1.1842529255365326
0.49668874172185434,1.1813444876173989
0.5165562913907285,1.1784292602107787
0.5364238410596026,1.1755187826976932
0.5562913907284769,1.1726246636430373
0.5761589403973509,1.1697585348529778
0.5960264900662252,1.1669320039472861
0.6158940397350993,1.1641566056201191
0.6357615894039735,1.1614437517914062
0.6556291390728477,1.158804680880815
0.6754966887417219,1.156250406465439
0.695364238410596,1.153791665611228
0.7152317880794702,1.151438867195215
0.7350993377483444,1.1492020405613208
0.7549668874172186,1.1470907848737468
0.7748344370860927,1.1451142195514996
0.7947019867549668,1.1432809361807084
0.8145695364238411,1.141598952310918
0.8344370860927152,1.140075667543882
0.8543046357615894,1.1387178223206058
0.8741721854304636,1.137531459801878
0.8940397350993378,1.1365218912207462
0.9139072847682119,1.1356936650610305
0.9337748344370861,1.1350505403856097
0.9536423841059603,1.1345954646002305
0.9735099337748344,1.1343305558960224
0.9933774834437087,1.1342570905649043
1.0132450331125828,1.1343754953302685
1.033112582781457,1.1346853447789882
1.0529801324503312,1.1351853639238398
1.0728476821192052,1.1358734358670546
1.0927152317880795,1.1367466144781608
1.1125827814569538,1.137801141943917
1.1324503311258278,1.1390324709954132
1.1523178807947019,1.1404352915693676
1.1721854304635762,1.142003561617282
1.1920529801324504,1.1437305417390764
1.2119205298013245,1.14560883328677
1.2317880794701985,1.147630419560094
1.2516556291390728,1.1497867096987562
1.271523178807947,1.1520685848660424
1.2913907284768211,1.1544664463153187
1.3112582781456954,1.1569702649339038
1.3311258278145695,1.1595696318676088
1.3509933774834437,1.1622538098433923
1.370860927152318,1.1650117848260098
1.390728476821192,1.1678323176667642
1.410596026490066,1.170703995427478
1.4304635761589404,1.1736152820903045
1.4503311258278146,1.1765545683924692
1.4701986754966887,1.1795102205544332
1.4900662251655628,1.182470627699602
1.5099337748344372,1.1854242477925208
1.5298013245033113,1.1883596519504593
1.5496688741721854,1.1912655670102266
1.5695364238410596,1.1941309162567282
1.5894039735099337,1.196944858242969
1.609271523178808,1.1996968236522656
1.6291390728476822,1.2023765501720904
1.6490066225165563,1.2049741153656577
1.6688741721854303,1.2074799675416341
1.6887417218543048,1.209884954634713
1.7086092715231789,1.2121803511196607
1.728476821192053,1.2143578829899133
1.7483443708609272,1.216409750837765
1.7682119205298013,1.2183286510780096
1.7880794701986755,1.220107795359909
1.8079470198675496,1.2217409282137275
1.8278145695364238,1.2232223429787838
1.847682119205298,1.224546896059001
1.8675496688741722,1.225710019549962
1.8874172185430464,1.226707732279399
1.9072847682119205,1.2275366492990512
1.9271523178807946,1.2281939898623906
1.9470198675496688,1.2286775839177533
1.9668874172185429,1.228985877141893
1.9867549668874174,1.2291179345333243
2.0066225165562916,1.2290734425796939
2.0264900662251657,1.2288527100072932
2.0463576158940397,1.2284566671154256
2.066225165562914,1.2278868636922509
2.086092715231788,1.2271454655029534
2.1059602649006623,1.2262352493355375
2.1258278145695364,1.2251595965838944
2.1456953642384105,1.2239224853425605
2.165562913907285,1.2225284809827257
2.185430463576159,1.2209827251745713
2.205298013245033,1.2192909233169782
2.2251655629139075,1.2174593303324126
2.2450331125827816,1.2154947347821727
2.2649006622516556,1.2134044412554688
2.2847682119205297,1.2111962509850878
2.3046357615894038,1.2088784406427913
2.324503311258278,1.2064597392693226
2.3443708609271523,1.2039493032969086
2.364238410596027,1.201356689626934
2.384105960264901,1.1986918267318225
2.403973509933775,1.1959649837583137
2.423841059602649,1.1931867376197125
2.443708609271523,1.1903679380769212
2.463576158940397,1.187519670822504
2.4834437086092715,1.1846532185988683
2.5033112582781456,1.1817800204004671
2.52317880794702,1.1789116288310673
2.543046357615894,1.176059665710348
2.562913907284768,1.173235776049064
2.5827814569536423,1.1704515805389712
2.6026490066225163,1.1677186267315467
2.622516556291391,1.1650483391088247
2.642384105960265,1.1624519682789363
2.662251655629139,1.159940539558615
2.6821192052980134,1.157524801233263
2.7019867549668874,1.1552151728126778
2.7218543046357615,1.1530216936254853
2.741721854304636,1.1509539721173352
2.76158940397351,1.1490211362364156
2.781456953642384,1.1472317853036704
2.801324503311258,1.1455939437736895
2.821192052980132,1.1441150172952446
2.8410596026490067,1.1428017514767657
2.8609271523178808,1.1416601937519626
2.8807947019867552,1.1406956587235086
2.9006622516556293,1.1399126973385674
2.9205298013245033,1.1393150702190373
2.9403973509933774,1.1389057254317942
2.9602649006622515,1.138686780941216
2.9801324503311255,1.138659511937586
3.0,1.1388243431827412
3.0198675496688745,1.1391808464585853
3.0397350993377485,1.1397277431466333
3.0596026490066226,1.1404629119088803
3.0794701986754967,1.1413834013826132
3.0993377483443707,1.1424854477466069
3.119205298013245,1.143764496963581
3.1390728476821192,1.1452152314558208
3.1589403973509933,1.146831600927741
3.1788079470198674,1.1486068570120007
3.198675496688742,1.150533591385296
3.218543046357616,1.1526037769758535
3.23841059602649,1.154808811867892
3.2582781456953644,1.157139565498365
3.2781456953642385,1.15958642673796
3.2980132450331126,1.1621393534514575
3.3178807947019866,1.1647879231413953
3.3377483443708607,1.1675213842929504
3.3576158940397347,1.1703287080564462
3.3774834437086096,1.1731986399260386
3.3973509933774837,1.1761197510981518
3.4172185430463577,1.1790804892204554
3.437086092715232,1.182069228270767
3.456953642384106,1.1850743173345186
3.47682119205298,1.18808412807887
3.4966887417218544,1.191087100750376
3.5165562913907285,1.1940717885510752
3.5364238410596025,1.1970269002744571
3.556291390728477,1.199941341107663
3.576158940397351,1.2028042515292452
3.596026490066225,1.2056050442528168
3.615894039735099,1.2083334391855574
3.6357615894039736,1.2109794963872602
3.6556291390728477,1.213533647029722
3.6754966887417218,1.2159867223686438
3.695364238410596,1.2183299807501968
3.7152317880794703,1.2205551326826047
3.7350993377483444,1.2226543640093264
3.754966887417219,1.2246203572250867
3.774834437086093,1.2264463109789183
3.794701986754967,1.2281259578101031
3.814569536423841,1.2296535801631867
3.834437086092715,1.2310240247275261
3.854304635761589,1.232232715144936
3.8741721854304636,1.233275663126613
3.8940397350993377,1.2341494780169093
3.9139072847682117,1.2348513748377734
3.9337748344370858,1.2353791808430525
3.9536423841059607,1.2357313406069503
3.9735099337748347,1.2359069196657428
3.993377483443709,1.2359056067262726
4.013245033112583,1.2357277144490824
4.033112582781457,1.2353741788083128
4.052980132450331,1.2348465570245486
4.072847682119205,1.234147024061179
4.0927152317880795,1.233278367669055
4.112582781456953,1.232243981958711
4.132450331125828,1.2310478594744132
4.152317880794702,1.2296945817391465
4.172185430463576,1.2281893082353925
4.19205298013245,1.2265377637826127
4.211920529801325,1.2247462242690992
4.231788079470199,1.222821500693252
4.251655629139073,1.220770921467805
4.271523178807947,1.2186023129398709
4.291390728476821,1.2163239780800748
4.311258278145695,1.2139446732959707
4.33112582781457,1.211473583328085
4.3509933774834435,1.2089202941916382
4.370860927152318,1.2062947641337562
4.390728476821192,1.203607292584012
4.410596026490066,1.2008684870869202
4.43046357615894,1.1980892282169895
4.450331125827815,1.195280632492053
4.470198675496689,1.1924540133169292
4.490066225165563,1.1896208400089512
4.509933774834438,1.1867926949778174
4.529801324503311,1.1839812291556666
4.549668874172186,1.1811981157981963
4.569536423841059,1.1784550028048961
4.589403973509934,1.1757634637338936
4.6092715231788075,1.1731349477167683
4.629139072847682,1.170580728507338
4.649006622516556,1.168111852928208
4.66887417218543,1.1657390890074868
4.688741721854305,1.163472874124619
4.708609271523179,1.1613232635097244
4.728476821192054,1.159299879462365
4.748344370860927,1.1574118616737517
4.768211920529802,1.1556678190503
4.788079470198675,1.1540757834444388
4.80794701986755,1.1526431657013216
4.827814569536423,1.1513767144264515
4.847682119205298,1.1502824778682637
4.867549668874172,1.1493657692928057
4.887417218543046,1.1486311362028119
4.9072847682119205,1.1480823337225854
4.927152317880794,1.147722302432489
4.947019867549669,1.1475531508934367
4.966887417218543,1.1475761430533626
4.986754966887418,1.1477916906754018
5.006622516556291,1.1481993508714963
5.026490066225166,1.1487978287685452
5.04635761589404,1.1495849852756188
5.066225165562914,1.1505578498640971
5.086092715231788,1.1517126382170921
5.105960264900662,1.1530447745525083
5.125827814569536,1.154548918376211
5.14569536423841,1.1562189953790478
5.1655629139072845,1.1580482321543768
5.185430463576159,1.1600291943826102
5.205298013245033,1.162153828105269
5.225165562913908,1.164413503694528
5.245033112582782,1.166799062114379
5.264900662251656,1.1693008630660444
5.28476821192053,1.1719088346139928
5.304635761589404,1.1746125238968694
5.324503311258278,1.1774011485426634
5.344370860927152,1.180263648424786
5.364238410596027,1.183188737418593
5.3841059602649,1.1861649548423328
5.403973509933775,1.1891807162938457
5.4238410596026485,1.1922243636225385
5.443708609271523,1.1952842138055626
5.463576158940397,1.1983486065262017
5.483443708609272,1.2014059502812746
5.503311258278146,1.2044447668721117
5.52317880794702,1.2074537341602651
5.543046357615895,1.2104217269937374
5.562913907284768,1.2133378562325576
5.582781456953643,1.2161915058232418
5.602649006622516,1.2189723678906126
5.622516556291391,1.2216704758316057
5.642384105960264,1.2242762354102872
5.662251655629139,1.2267804538652631
5.682119205298013,1.2291743670508866
5.701986754966887,1.2314496646416193
5.7218543046357615,1.2335985134353653
5.741721854304636,1.2356135787961546
5.7615894039735105,1.2374880442793843
5.781456953642384,1.239215629484808
5.801324503311259,1.240790606182568
5.821192052980132,1.2422078127567897
5.841059602649007,1.2434626670098314
5.860927152317881,1.2445511773672102
5.880794701986755,1.2454699525204216
5.900662251655629,1.2462162095404565
5.920529801324503,1.2467877804906113
5.940397350993377,1.2471831175622858
5.960264900662251,1.2474012967520527
5.980132450331126,1.2474420200930425
6.0,1.2473056164477885
6.0198675496688745,1.2469930408641077
6.039735099337749,1.2465058724897724
6.059602649006623,1.2458463110357523
6.079470198675497,1.2450171717726715
6.099337748344371,1.2440218790391278
6.119205298013245,1.2428644582357486
6.139072847682119,1.2415495262739973
6.158940397350993,1.240082280444144
6.178807947019867,1.2384684856633235
6.198675496688741,1.2367144600612179
6.218543046357616,1.234827058858579
6.23841059602649,1.2328136564922338
6.258278145695365,1.2306821269398553
6.2781456953642385,1.2284408221981753
6.298013245033113,1.2260985488706055
6.317880794701987,1.2236645428233097
6.337748344370861,1.221148441873905
6.357615894039735,1.2185602564838314
6.377483443708609,1.2159103384336225
6.397350993377484,1.2132093474712646
6.417218543046357,1.2104682159363667
6.437086092715232,1.207698111377599
6.456953642384105,1.2049103971979884
6.47682119205298,1.2021165913818697
6.496688741721854,1.199328323378626
6.516556291390729,1.196557289241847
6.5364238410596025,1.1938152051476434
6.556291390728477,1.1911137594427732
6.5761589403973515,1.1884645634015312
6.596026490066225,1.1858791008989376
6.6158940397351,1.1833686772375316
6.635761589403973,1.1809443673939597
6.655629139072848,1.1786169639799187
6.675496688741721,1.176396925238892
6.695364238410596,1.1742943234244458
6.715231788079469,1.1723187939275168
6.735099337748344,1.1704794855376184
6.754966887417219,1.1687850122361527
6.774834437086093,1.1672434069277207
6.794701986754967,1.1658620775176183
6.814569536423841,1.1646477657390772
6.8344370860927155,1.1636065091230925
6.854304635761589,1.16274360648562
6.874172185430464,1.162063587282205
6.894039735099337,1.1615701851486209
6.913907284768212,1.1612663159082766
6.933774834437086,1.1611540602835981
6.95364238410596,1.1612346515002407
6.973509933774834,1.1615084679203511
6.993377483443709,1.1619750307858565
7.013245033112583,1.1626330070955997
7.033112582781457,1.1634802175823826
7.052980132450331,1.164513649699465
7.072847682119205,1.1657294754708292
7.0927152317880795,1.167123074008157
7.112582781456954,1.1686890584498615
7.132450331125828,1.1704213070351461
7.152317880794702,1.1723129979897777
7.172185430463576,1.1743566478698493
7.19205298013245,1.1765441529868894
7.211920529801324,1.1788668335207733
7.231788079470198,1.1813154799176828
7.251655629139073,1.183880401166999
7.271523178807947,1.1865514745545194
7.291390728476822,1.1893181964980115
7.311258278145695,1.1921697340852802
7.33112582781457,1.1950949769531354
7.3509933774834435,1.198082589167612
7.370860927152318,1.201121060790663
7.390728476821192,1.2041987588453138
7.410596026490066,1.2073039774196865
7.430463576158941,1.2104249866790902
7.450331125827814,1.2135500805846253
7.470198675496689,1.2166676231450082
7.490066225165562,1.2197660930563072
7.509933774834438,1.2228341266101597
7.52980132450331,1.2258605587760651
7.549668874172186,1.2288344623858214
7.569536423841059,1.2317451853690244
7.589403973509934,1.2345823860071463
7.6092715231788075,1.2373360661900374
7.629139072847682,1.2399966026729918
7.649006622516557,1.2425547763445448
7.66887417218543,1.245001799525282
7.6887417218543055,1.2473293413260054
7.708609271523178,1.2495295510998228
7.728476821192054,1.251595080027455
7.748344370860927,1.2535191008779274
7.768211920529802,1.2552953259885924
7.788079470198675,1.2569180235086916
7.80794701986755,1.2583820319500523
7.827814569536423,1.2596827730866926
7.847682119205298,1.2608162632426025
7.8675496688741715,1.2617791230036355
7.887417218543046,1.2625685853855375
7.907284768211921,1.2631825024856786
7.927152317880795,1.2636193506411961
7.9470198675496695,1.2638782341110957
7.966887417218543,1.263958887294264
7.986754966887418,1.2638616754899796
8.006622516556291,1.2635875942014987
8.026490066225167,1.2631382669778304
8.046357615894038,1.262515941782882
8.066225165562914,1.261723485875794
8.086092715231787,1.2607643791808334
8.105960264900663,1.2596427061201132
8.125827814569536,1.2583631458777607
8.14569536423841,1.2569309610599233
8.165562913907285,1.255351984711199
8.185430463576159,1.2536326056452634
8.205298013245034,1.251779752044987
8.225165562913906,1.2498008732862482
8.245033112582782,1.2477039199391822
8.264900662251655,1.245497321901571
8.28476821192053,1.2431899646213223
8.304635761589404,1.2407911633685176
8.324503311258278,1.2383106355229165
8.344370860927151,1.2357584708498053
8.364238410596027,1.2331450997458986
8.3841059602649,1.2304812594479517
8.403973509933774,1.227777958209781
8.42384105960265,1.2250464374683891
8.443708609271523,1.22229813203732
8.463576158940398,1.219544628384912
8.483443708609272,1.2167976210765756
8.503311258278146,1.214068867483929
8.52317880794702,1.2113701408890474
8.543046357615895,1.208713182138942
8.562913907284768,1.2061096500335353
8.582781456953642,1.203571070659311
8.602649006622515,1.2011087859100236
8.62251655629139,1.1987339014646876
8.642384105960264,1.1964572345210873
8.66225165562914,1.194289261609334
8.682119205298013,1.1922400668339843
8.701986754966887,1.190319290914077
8.721854304635762,1.1885360814073886
8.741721854304636,1.1868990445176422
8.76158940397351,1.1854161988903325
8.781456953642383,1.184094931804314
8.801324503311259,1.1829419581608094
8.821192052980132,1.1819632826600988
8.841059602649008,1.1811641655372924
8.86092715231788,1.1805490922031276
8.880794701986755,1.180121747103968
8.90066225165563,1.1798849920765218
8.920529801324504,1.1798408494293748
8.940397350993377,1.179990489934535
8.960264900662251,1.180334225859801
8.980132450331126,1.1808715091174873
9.0,1.1816009345481735
9.019867549668875,1.1825202483009218
9.039735099337747,1.1836263612150355
9.059602649006623,1.184915367054217
9.079470198675496,1.1863825653928417
9.099337748344372,1.1880224889074307
9.119205298013245,1.1898289347846425
9.139072847682119,1.1917949999212454
9.158940397350994,1.193913119562397
9.178807947019868,1.1961751090012924
9.198675496688743,1.1985722079478704
9.218543046357615,1.2010951271646408
9.23841059602649,1.2037340969653096
9.258278145695364,1.206478917175172
9.27814569536424,1.2093190081614056
9.298013245033111,1.2122434625554135
9.317880794701987,1.2152410973076027
9.33774834437086,1.2183005057369467
9.357615894039736,1.221410109262459
9.37748344370861,1.2245582085300704
9.397350993377483,1.2277330336767887
9.417218543046358,1.230922793502647
9.437086092715232,1.2341157233495723
9.456953642384107,1.237300131514693
9.47682119205298,1.2404644440530574
9.496688741721854,1.2435972478505464
9.516556291390728,1.246687331872315
9.536423841059603,1.249723726514501
9.556291390728477,1.2526957410076573
9.57615894039735,1.2555929988385883
9.596026490066224,1.2584054711735133
9.6158940397351,1.2611235082797525
9.635761589403973,1.2637378689548862
9.655629139072847,1.2662397479824565
9.675496688741722,1.2686208016412848
9.695364238410596,1.2708731713016368
9.715231788079471,1.272989505146026
9.735099337748345,1.2749629780555893
9.754966887417218,1.2767873097044182
9.774834437086092,1.2784567809047238
9.794701986754967,1.2799662482450123
9.814569536423841,1.2813111570615414
9.834437086092716,1.2824875527811315
9.854304635761588,1.2834920906696894
9.874172185430464,1.2843220440172873
9.894039735099337,1.2849753107860682
9.913907284768213,1.2854504187422189
9.933774834437086,1.2857465290885661
9.95364238410596,1.2858634386084324
9.973509933774835,1.2858015803261549
9.993377483443709,1.285562022683917
10.013245033112582,1.2851464672287962
10.033112582781456,1.2845572447984654
10.052980132450331,1.2837973101884048
10.072847682119205,1.282870235278277
10.09271523178808,1.2817802005901837
10.112582781456952,1.2805319852469192
10.132450331125828,1.2791309552943735
10.152317880794701,1.2775830503485344
10.172185430463577,1.275894768525003
10.192052980132452,1.2740731496067716
10.211920529801324,1.2721257564050135
10.2317880794702,1.2700606542677104
10.251655629139073,1.267886388692143
10.271523178807948,1.265611960999744
10.29139072847682,1.263246802036081
10.311258278145695,1.2608007438642326
10.331125827814569,1.2582839894274573
10.350993377483444,1.2557070801662868
10.370860927152318,1.2530808615865672
10.390728476821192,1.2504164467885193
10.410596026490065,1.2477251779823386
10.43046357615894,1.2450185860337104
10.450331125827816,1.2423083481024977
10.470198675496688,1.2396062434597912
10.490066225165563,1.2369241075924926
10.509933774834437,1.2342737847300809
10.529801324503312,1.2316670789553485
10.549668874172186,1.2291157040890066
10.56953642384106,1.2266312325668656
10.589403973509933,1.2242250435572544
10.609271523178808,1.221908270594702
10.629139072847682,1.2196917490336752
10.649006622516556,1.2175859636514312
10.66887417218543,1.2156009967524894
10.688741721854305,1.213746477147088
10.70860927152318,1.2120315303917457
