Time (s),Filtered Signal
0.0,0.0005891861106667903
0.033370165745856356,-0.024755719108142973
0.06674033149171271,-0.05745173537450278
0.10011049723756907,-0.09984598868450334
0.13348066298342542,-0.14746422952607743
0.16685082872928178,-0.19060110234181413
0.20022099447513814,-0.2187109942511725
0.2335911602209945,-0.22524193261884853
0.26696132596685085,-0.21047083330711527
0.30033149171270723,-0.18110123552093502
0.33370165745856356,-0.14709970590783686
0.3670718232044199,-0.11752299359246866
0.4004419889502763,-0.09733763175655201
0.43381215469613266,-0.08648289212609472
0.467182320441989,-0.08119749016976434
0.5005524861878453,-0.07659094787769155
0.5339226519337017,-0.06906027830127755
0.5672928176795581,-0.057503596473972574
0.6006629834254145,-0.04306533389765072
0.6340331491712707,-0.02789652112539966
0.6674033149171271,-0.013760693673987578
0.7007734806629835,-0.001176410261662295
0.7341436464088398,0.010643270790571495
0.7675138121546962,0.02321303849352716
0.8008839779005525,0.03792625113756358
0.8342541436464089,0.055294764534631446
0.8676243093922653,0.07453168262028456
0.9009944751381216,0.09361820148463196
0.934364640883978,0.10987833928140577
0.9677348066298344,0.12092536625430514
1.0011049723756906,0.12565492055939204
1.0344751381215471,0.12483950553263994
1.0678453038674034,0.12094915744607962
1.1012154696132597,0.11712724862321466
1.1345856353591162,0.11568609125355249
1.1679558011049724,0.11682938438409134
1.201325966850829,0.1183279670807473
1.2346961325966852,0.11648605855285853
1.2680662983425415,0.10808192817756711
1.301436464088398,0.0923817564294175
1.3348066298342542,0.07215754213392449
1.3681767955801105,0.05304400289304029
1.401546961325967,0.04138290365868
1.4349171270718233,0.041506202114453626
1.4682872928176796,0.05374997579203781
1.501657458563536,0.07415010909989388
1.5350276243093923,0.09590961582907252
1.5683977900552488,0.11182292542990716
1.601767955801105,0.11642147329069444
1.6351381215469614,0.10691635214989745
1.6685082872928179,0.08284569806825562
1.7018784530386741,0.045131349468718385
1.7352486187845306,-0.004517075228079007
1.768618784530387,-0.06337375197639515
1.8019889502762432,-0.1269688892657275
1.8353591160220997,-0.18874763936316116
1.868729281767956,-0.2409180127694311
1.9020994475138122,-0.27659572940312327
1.9354696132596687,-0.29247440369764816
1.968839779005525,-0.29071600092960914
2.0022099447513813,-0.27889242560628474
2.0355801104972375,-0.26757991108750456
2.0689502762430942,-0.2662784086729239
2.1023204419889505,-0.2792328705130785
2.135690607734807,-0.30304968099777174
2.169060773480663,-0.32749199453737027
2.2024309392265193,-0.3395693011522278
2.235801104972376,-0.32944320153002205
2.2691712707182323,-0.2954716555694324
2.3025414364640886,-0.24563144616796165
2.335911602209945,-0.19392430639980587
2.369281767955801,-0.15281322215431792
2.402651933701658,-0.12517365141480408
2.436022099447514,-0.1003068171345277
2.4693922651933704,-0.057286912640497574
2.5027624309392267,0.02457664509035943
2.536132596685083,0.15264605276712886
2.5695027624309392,0.3124667669767666
2.602872928176796,0.47032431740257274
2.636243093922652,0.5884325709122051
2.6696132596685085,0.6471680066456066
2.7029834254143648,0.6628757607814363
2.736353591160221,0.6890134655946564
2.7697237569060777,0.7946402693491584
2.803093922651934,1.0257436043599073
2.8364640883977903,1.3663127153237589
2.8698342541436466,1.7207831886040057
2.903204419889503,1.9331550714199714
2.936574585635359,1.8418326379940508
2.969944751381216,1.35018501858187
3.003314917127072,0.48117787519382477
3.0366850828729284,-0.6121137573734413
3.0700552486187846,-1.6896172531185834
3.103425414364641,-2.505273753340374
3.1367955801104976,-2.8916574195261435
3.170165745856354,-2.8121249171500304
3.20353591160221,-2.3602999179533164
3.2369060773480665,-1.711458640962762
3.2702762430939227,-1.0510142259847204
3.3036464088397794,-0.5121006237140132
3.3370165745856357,-0.14564850441293634
3.370386740331492,0.07143292958990254
3.4037569060773483,0.20160371929649082
3.4371270718232045,0.3061257734257326
3.4704972375690613,0.4172360344678845
3.5038674033149175,0.5319785767251081
3.537237569060774,0.6250041839068179
3.57060773480663,0.6697417980147152
3.6039779005524863,0.6558820108819456
3.6373480662983426,0.5953746353068856
3.6707182320441993,0.5160475003967525
3.7040883977900556,0.4479108774381866
3.737458563535912,0.40976875552641273
3.770828729281768,0.4024094539636068
3.8041988950276244,0.41067847777586425
3.837569060773481,0.41235347714534953
3.8709392265193374,0.3889667714669674
3.9043093922651937,0.3335382569063168
3.93767955801105,0.25226810263100097
3.9710497237569062,0.16032062439458772
4.0044198895027625,0.07439966939880649
4.037790055248619,0.005823138576552723
4.071160220994475,-0.04296287330281448
4.104530386740332,-0.07744419228237445
4.1379005524861885,-0.10680199191362927
4.171270718232044,-0.13881782644588928
4.204640883977901,-0.1763755666654695
4.238011049723757,-0.21690300166783125
4.271381215469614,-0.2545206220974986
4.30475138121547,-0.28342801223696673
4.338121546961326,-0.30069629677750814
4.371491712707183,-0.3071963676046143
4.404861878453039,-0.3064788786687069
4.438232044198895,-0.3024420367382842
4.471602209944752,-0.2971021386471043
4.504972375690608,-0.28956899508571005
4.538342541436465,-0.2766205556857752
4.5717127071823205,-0.2544663986308854
4.605082872928177,-0.22077106026042903
4.638453038674034,-0.17597421787569134
4.67182320441989,-0.12335558218190897
4.7051933701657465,-0.06791826848160173
4.738563535911602,-0.014696199304012015
4.771933701657459,0.03272250723235918
4.805303867403316,0.07289344218804907
4.8386740331491715,0.10636210123081753
4.872044198895028,0.13503556452675822
4.905414364640884,0.16159767720643625
4.938784530386741,0.18924352442953316
4.972154696132597,0.2215591169102608
5.005524861878453,0.26204400494431523
5.03889502762431,0.3128566809101942
5.072265193370166,0.37290899421684165
5.105635359116023,0.43617975274230136
5.1390055248618784,0.49156665195402044
5.172375690607735,0.525296747732777
5.205745856353592,0.5257735623351403
5.239116022099448,0.4891916962626439
5.272486187845304,0.4231437857626689
5.30585635359116,0.3456109893975756
5.339226519337017,0.2784640886444304
5.372596685082874,0.2373579134531058
5.4059668508287295,0.22239626755886396
5.439337016574586,0.21471693913670745
5.472707182320442,0.18231564510541648
5.506077348066299,0.09430431833977927
5.5394475138121555,-0.061985873928185796
5.572817679558011,-0.26966575303647444
5.606187845303868,-0.48443763545909413
5.639558011049724,-0.6525660960854353
5.672928176795581,-0.7388283820015795
5.706298342541437,-0.7514180349665435
5.739668508287293,-0.748871641184406
5.77303867403315,-0.8199824613866099
5.806408839779006,-1.040161924015141
5.839779005524862,-1.4215669148628585
5.873149171270718,-1.8821438509173878
5.906519337016575,-2.254708681469266
5.939889502762432,-2.3407700799215636
5.9732596685082875,-1.9914482148933748
6.006629834254144,-1.1807793992312237
6.04,-0.03532974092807136
6.073370165745857,1.1984858954136617
6.1067403314917135,2.238977898507064
6.140110497237569,2.869560191692507
6.173480662983426,3.010644310504233
6.206850828729282,2.7328705679704224
6.240220994475139,2.210209759194118
6.273591160220995,1.6392153689316868
6.306961325966851,1.163370766807537
6.340331491712708,0.8341482202173736
6.373701657458564,0.6190516322980362
6.40707182320442,0.44388043180753184
6.440441988950277,0.243140021105621
6.473812154696133,-0.006229837632947545
6.50718232044199,-0.2799413607667715
6.5405524861878455,-0.5264056567213073
6.573922651933702,-0.6968845953200533
6.607292817679559,-0.7691648057997453
6.640662983425415,-0.7546751691416087
6.674033149171271,-0.6888999945156897
6.707403314917127,-0.6128448857288267
6.740773480662984,-0.5558702336382553
6.774143646408841,-0.5273670821676919
6.8075138121546965,-0.5190328592151813
6.840883977900553,-0.5142300342945662
6.874254143646409,-0.4984517198379615
6.907624309392266,-0.465801674617219
6.9409944751381225,-0.41947085276934426
6.974364640883978,-0.36753268176771425
7.007734806629835,-0.31734413604556844
7.041104972375691,-0.27177845244469884
7.074475138121548,-0.2288724533264913
7.107845303867403,-0.1843645312442934
7.14121546961326,-0.13516164139898185
7.174585635359117,-0.08160779318757348
7.207955801104973,-0.027404655345774378
7.241325966850829,0.022519692679732885
7.274696132596685,0.06479431467221873
7.308066298342542,0.0994054145853091
7.341436464088399,0.1295314248033
7.3748066298342545,0.15955235402756035
7.408176795580111,0.1923448670375539
7.441546961325967,0.22731448561164863
7.474917127071824,0.2601968830768167
7.5082872928176805,0.2847450006943767
7.541657458563536,0.2954948514253514
7.575027624309393,0.2903147394264672
7.608397790055249,0.27157810436818214
7.641767955801106,0.24543903909290932
7.675138121546962,0.2195118009966222
7.708508287292818,0.19991522165151773
7.741878453038675,0.18890077020973534
7.775248618784531,0.1840599074505042
7.808618784530387,0.17948191003603725
7.841988950276244,0.16842637553298778
7.8753591160221,0.14639884298489453
7.908729281767957,0.11328206786317352
7.9420994475138125,0.07353521783294897
7.975469613259669,0.034315519496758616
8.008839779005525,0.002334591992461185
8.042209944751383,-0.019120335922503034
8.075580110497238,-0.0316061135219358
8.108950276243094,-0.040688847482627855
8.14232044198895,-0.05320800257984196
8.175690607734808,-0.07389735088827774
8.209060773480664,-0.10294177898534297
8.24243093922652,-0.13562475908553243
8.275801104972377,-0.16425218185915766
8.309171270718233,-0.18148249676875897
8.342541436464089,-0.18353776573611075
8.375911602209946,-0.17180988157747304
8.409281767955802,-0.1520982511906369
8.442651933701658,-0.13181199877159383
8.476022099447514,-0.11645428557851477
8.509392265193371,-0.10710489218972727
8.542762430939227,-0.10019088164942277
8.576132596685083,-0.08973478411015488
8.60950276243094,-0.07101037256632788
8.642872928176796,-0.04375790896973092
8.676243093922652,-0.013238883919255756
8.709613259668508,0.011584149256135802
8.742983425414366,0.022049090423457998
8.776353591160222,0.014153223084285377
8.809723756906077,-0.00885156673870909
8.843093922651935,-0.03703544182341125
8.87646408839779,-0.05751137425929426
8.909834254143647,-0.059760181117159465
8.943204419889504,-0.040167339952528545
8.97657458563536,-0.0036542171368317334
9.009944751381216,0.038387434134635225
9.043314917127072,0.0729064633553351
9.07668508287293,0.09051935367293111
9.110055248618785,0.08895566044475584
9.143425414364641,0.07322131641910705
9.176795580110499,0.052690041414520696
9.210165745856354,0.036721011929091676
9.24353591160221,0.030903789768179892
9.276906077348068,0.035492149069120175
9.310276243093924,0.04638466508021443
9.34364640883978,0.05779984574348569
9.377016574585635,0.06515175248095749
9.410386740331493,0.06678157664083671
9.443756906077349,0.06395764268370753
9.477127071823205,0.059476576501575784
9.510497237569062,0.05582212848454773
9.543867403314918,0.05390410295826937
9.577237569060774,0.05294208086407892
9.610607734806631,0.05136434979844054
9.643977900552487,0.04804650173571014
9.677348066298343,0.04309581717599031
9.710718232044199,0.03772344407164258
9.744088397790057,0.03331059133222237
9.777458563535912,0.030238068286286317
9.810828729281768,0.027173385915240388
9.844198895027626,0.021266561674026966
9.877569060773482,0.009250882473899755
9.910939226519337,-0.010993266383300396
9.944309392265193,-0.03908904797066834
9.97767955801105,-0.07165548541278897
10.011049723756907,-0.10295744677594056
10.044419889502763,-0.1265725497213017
10.07779005524862,-0.1375042828511791
10.111160220994476,-0.1339429156180953
10.144530386740332,-0.11795942661658373
10.17790055248619,-0.09480212658689323
10.211270718232045,-0.07101415291024758
10.244640883977901,-0.052085577118074204
10.278011049723757,-0.04057935857954952
10.311381215469615,-0.03549956640051882
10.34475138121547,-0.033142884932669855
10.378121546961326,-0.029012895270930584
10.411491712707184,-0.019902577911406528
10.44486187845304,-0.0052131235539724695
10.478232044198895,0.013005851015655732
10.511602209944753,0.031173925382365086
10.544972375690609,0.04582270587275333
10.578342541436465,0.0549822347719087
10.61171270718232,0.05875722762438498
10.645082872928178,0.058968488271797764
10.678453038674034,0.05813626926274199
10.71182320441989,0.058299140428717575
10.745193370165747,0.06015366658096
10.778563535911603,0.06281703946928341
10.811933701657459,0.06425065226830531
10.845303867403315,0.062138371030032946
10.878674033149172,0.054869239151108515
10.912044198895028,0.04226601975282892
10.945414364640884,0.025809455588975638
10.978784530386742,0.008278854821568893
11.012154696132598,-0.007091342241380053
11.045524861878453,-0.01768418751318448
11.078895027624311,-0.022440177862290828
11.112265193370167,-0.022286690864826465
11.145635359116023,-0.01980850394396586
11.179005524861878,-0.018195563452674954
11.212375690607736,-0.019851799624559054
11.245745856353592,-0.02527930239675628
11.279116022099448,-0.03279972881915152
11.312486187845305,-0.03931283688688967
11.345856353591161,-0.041781063376845534
11.379226519337017,-0.038738794775920606
11.412596685082875,-0.031075974484132966
11.44596685082873,-0.02167712507907708
11.479337016574586,-0.01404692554586579
11.512707182320442,-0.010554553906572966
11.5460773480663,-0.011144537752868897
11.579447513812156,-0.013186865457916593
11.612817679558011,-0.012635685653110486
11.646187845303869,-0.0060419764184853775
11.679558011049725,0.007496419708620926
11.71292817679558,0.025423114760736755
11.746298342541436,0.04240863982612816
11.779668508287294,0.05245935667703196
11.81303867403315,0.05156780267645736
11.846408839779006,0.03969278677107375
11.879779005524863,0.02109139970409895
11.91314917127072,0.0027403996901877513
11.946519337016575,-0.008532304606890521
11.979889502762433,-0.008941517240501394
12.013259668508288,0.000679851768458231
12.046629834254144,0.015394804800021037
12.08,0.028538180695490162
12.113370165745858,0.03478214813277726
12.146740331491714,0.03234165118344288
12.18011049723757,0.023216166983872674
12.213480662983427,0.011436970963086214
12.246850828729283,0.00040340827725241895
12.280220994475139,-0.00910216438533582
12.313591160220996,-0.01904736799290909
12.346961325966852,-0.0323643843717795
12.380331491712708,-0.05032928311942278
12.413701657458564,-0.07070789642650833
12.447071823204421,-0.08786163589847683
12.480441988950277,-0.09491472619749952
12.513812154696133,-0.08693302857895632
12.54718232044199,-0.06349222343962753
12.580552486187846,-0.029316959910808543
12.613922651933702,0.007340463221672655
12.64729281767956,0.03779571096826026
12.680662983425416,0.05605255659069271
12.714033149171271,0.060585436704193515
12.747403314917127,0.05414781134979442
12.780773480662985,0.04192297421766276
12.81414364640884,0.02904636009639383
12.847513812154697,0.01869108182608747
12.880883977900554,0.011490748701598861
12.91425414364641,0.006321072484860418
12.947624309392266,0.001774734345484288
12.980994475138122,-0.002605859625570189
13.01436464088398,-0.006012562014825005
13.047734806629835,-0.007040444967376293
13.081104972375691,-0.004825305457125675
13.114475138121549,0.00010245706732398909
13.147845303867404,0.005786946242864871
13.18121546961326,0.00968132864843615
13.214585635359118,0.00991244692217808
13.247955801104974,0.006331247451791521
13.28132596685083,0.0008319966336594307
13.314696132596685,-0.0032288933699147013
13.348066298342543,-0.002308047396342896
13.381436464088399,0.005816481648553181
13.414806629834255,0.020848181165790274
13.448176795580112,0.03956200891681665
13.481546961325968,0.05645595150065431
13.514917127071824,0.06541223870766931
13.548287292817681,0.061908634105763305
13.581657458563537,0.04497244559018969
13.615027624309393,0.017990844201301544
13.648397790055249,-0.012171253822655102
13.681767955801106,-0.03759526565641503
13.715138121546962,-0.05235704060150333
13.748508287292818,-0.05485109647442911
13.781878453038676,-0.04824333278287687
13.815248618784532,-0.03872418439186739
13.848618784530387,-0.03232080556511553
13.881988950276245,-0.03183097352947308
13.9153591160221,-0.035487628288915045
13.948729281767957,-0.03813150391410782
13.982099447513813,-0.03433185057968463
14.01546961325967,-0.02177618067340722
14.048839779005526,-0.0030277168549549547
14.082209944751382,0.015383564646608349
14.11558011049724,0.026080109684069853
14.148950276243095,0.02446806215581815
14.182320441988951,0.010925235208853743
14.215690607734807,-0.0095469228628522
14.249060773480664,-0.029859762882656408
14.28243093922652,-0.044062314163606245
14.315801104972376,-0.04953683128707843
14.349171270718234,-0.04721170623147732
14.38254143646409,-0.04004530255335991
14.415911602209945,-0.030930276742141407
14.449281767955803,-0.02126772191678781
14.482651933701659,-0.010820981959044285
14.516022099447515,0.0014151530974355067
14.54939226519337,0.01612435339355137
14.582762430939228,0.03306879606202041
14.616132596685084,0.051168658716903404
14.64950276243094,0.06893168388713672
14.682872928176797,0.0847551511299921
14.716243093922653,0.09689036979802612
14.749613259668509,0.1032761126866478
14.782983425414367,0.1016608054288806
14.816353591160222,0.09027105090879088
14.849723756906078,0.06886094275170328
14.883093922651934,0.03959376682830002
14.916464088397792,0.007137415169439531
14.949834254143648,-0.022331238447538086
14.983204419889503,-0.042977927231405685
15.016574585635361,-0.05130489545217151
15.049944751381217,-0.04741884088503801
15.083314917127073,-0.03497918640046148
15.116685082872928,-0.019820637287835563
15.150055248618786,-0.007849784358299227
15.183425414364642,-0.0031182552209142868
15.216795580110498,-0.006819000496535131
15.250165745856355,-0.017450649726476086
15.283535911602211,-0.03185379489788753
15.316906077348067,-0.046531983727001014
15.350276243093925,-0.058716840366204545
15.38364640883978,-0.0668920481326104
15.417016574585636,-0.0707565844620851
15.450386740331492,-0.07077524860267362
15.48375690607735,-0.06754736377667232
15.517127071823205,-0.06126664433859985
15.550497237569061,-0.051533099851832305
15.583867403314919,-0.037654847709085816
15.617237569060775,-0.01933798178677089
15.65060773480663,0.0025872823658349407
15.683977900552488,0.025848094987061063
15.717348066298344,0.04709714383037486
15.7507182320442,0.06289039622156824
15.784088397790056,0.07085416403867811
15.817458563535913,0.0705002329856734
15.85082872928177,0.06332145798597899
15.884198895027625,0.052158245881386456
15.917569060773483,0.04015477252346206
15.950939226519338,0.029751501734543717
15.984309392265194,0.022065161351037376
16.01767955801105,0.016800689822829493
16.051049723756908,0.012653890670045215
16.084419889502765,0.008047971642427798
16.11779005524862,0.001971271018364655
16.151160220994477,-0.005376008556997063
16.18453038674033,-0.01241755318950176
16.21790055248619,-0.01667995744323392
16.251270718232046,-0.01581456537696266
16.2846408839779,-0.00877977917069557
16.318011049723758,0.0033428475112594297
16.351381215469615,0.01733256629428861
16.38475138121547,0.028738387545981306
16.418121546961327,0.033438998297966316
16.451491712707185,0.029259468577309794
16.48486187845304,0.01695527854535164
16.518232044198896,7.287753295274591e-05
16.551602209944754,-0.016357496777710145
16.584972375690608,-0.02781448955030814
16.618342541436466,-0.03211507538227831
16.651712707182323,-0.03023167694797857
16.685082872928177,-0.025666156810950757
16.718453038674035,-0.02262536117038168
16.751823204419892,-0.023851445250087384
16.785193370165747,-0.02917294353402791
16.818563535911604,-0.03551467819229496
16.851933701657458,-0.03838207004995447
16.885303867403316,-0.03409420800561488
16.918674033149173,-0.02167469017676562
16.952044198895027,-0.00350167847876163
16.985414364640885,0.015557393546250211
17.018784530386743,0.03008474198603349
17.052154696132597,0.03622377842123688
