Frequency (Hz),Amplitude
0.0,0.9893522408928288
0.019867549668874173,0.9890342098411368
0.039735099337748346,0.9880807588646167
0.059602649006622516,0.9864938157425471
0.07947019867549669,0.9842765975980319
0.09933774834437085,0.9814336171790013
0.11920529801324503,0.9779706917397588
0.13907284768211922,0.9738949546114006
0.15894039735099338,0.9692148695728477
0.17880794701986755,0.9639402481584933
0.1986754966887417,0.9580822700598591
0.2185430463576159,0.951653506799537
0.23841059602649006,0.9446679488728541
0.2582781456953642,0.9371410365665986
0.27814569536423844,0.9290896946728209
0.2980132450331126,0.9205323713165273
0.31788079470198677,0.911489081108162
0.33774834437086093,0.9019814528100365
0.3576158940397351,0.892032781667841
0.3774834437086093,0.8816680864977171
0.3973509933774834,0.8709141715308176
0.4172185430463576,0.8597996928921622
0.4370860927152318,0.8483552294199685
0.45695364238410596,0.836613357304223
0.4768211920529801,0.8246087277255807
0.49668874172185434,0.8123781462933743
0.5165562913907285,0.7999606525970824
0.5364238410596026,0.787397597582889
0.5562913907284769,0.7747327157275372
0.5761589403973509,0.7620121880921276
0.5960264900662252,0.7492846912888236
0.6158940397350993,0.7366014261846672
0.6357615894039735,0.7240161188152883
0.6556291390728477,0.7115849845285105
0.6754966887417219,0.6993666448953637
0.695364238410596,0.6874219855330315
0.7152317880794702,0.6758139418491325
0.7350993377483444,0.6646071990709864
0.7549668874172186,0.6538677930569761
0.7748344370860927,0.6436625996390007
0.7947019867549668,0.6340587029728807
0.8145695364238411,0.6251226379019048
0.8344370860927152,0.6169195078813812
0.8543046357615894,0.6095119885762925
0.8741721854304636,0.6029592375259409
0.8940397350993378,0.5973157415714108
0.9139072847682119,0.5926301449437475
0.9337748344370861,0.5889441105330385
0.9536423841059603,0.5862912732432084
0.9735099337748344,0.5846963459350603
0.9933774834437087,0.5841744341898424
1.0132450331125828,0.5847306057012217
1.033112582781457,0.5863597442410249
1.0529801324503312,0.5890466985391544
1.0728476821192052,0.5927667154906312
1.0927152317880795,0.5974861275315569
1.1125827814569538,0.6031632482235224
1.1324503311258278,0.6097494197374778
1.1523178807947019,0.6171901517344138
1.1721854304635762,0.6254262928048769
1.1920529801324504,0.6343951820614808
1.2119205298013245,0.6440317381268903
1.2317880794701985,0.6542694539675051
1.2516556291390728,0.6650412773132348
1.271523178807947,0.676280366664068
1.2913907284768211,0.6879207214205942
1.3112582781456954,0.6998976911909633
1.3311258278145695,0.7121483738294934
1.3509933774834437,0.7246119144697096
1.370860927152318,0.737229719050563
1.390728476821192,0.7499455959577791
1.410596026490066,0.7627058387498619
1.4304635761589404,0.7754592618006166
1.4503311258278146,0.788157199295811
1.4701986754966887,0.8007534765412346
1.4900662251655628,0.8132043610879759
1.5099337748344372,0.8254684998323556
1.5298013245033113,0.8375068470418808
1.5496688741721854,0.849282587211824
1.5695364238410596,0.8607610557695407
1.5894039735099337,0.8719096599068413
1.609271523178808,0.8826978012196676
1.6291390728476822,0.8930968013515734
1.6490066225165563,0.9030798314562858
1.6688741721854303,0.9126218459983729
1.6887417218543048,0.9216995211839275
1.7086092715231789,0.9302911981436603
1.728476821192053,0.9383768308659323
1.7483443708609272,0.9459379387889492
1.7682119205298013,0.952957563901363
1.7880794701986755,0.9594202321621238
1.8079470198675496,0.965311919029491
1.8278145695364238,0.970620018880572
1.847682119205298,0.9753333181042174
1.8675496688741722,0.9794419716585202
1.8874172185430464,0.982937482897961
1.9072847682119205,0.9858126864928641
1.9271523178807946,0.988061734283953
1.9470198675496688,0.9896800839371545
1.9668874172185429,0.9906644902868871
1.9867549668874174,0.991012999280592
2.0066225165562916,0.9907249444618589
2.0264900662251657,0.9898009459545688
2.0463576158940397,0.9882429119358047
2.066225165562914,0.9860540426104657
2.086092715231788,0.983238836725753
2.1059602649006623,0.9798031006886624
2.1258278145695364,0.9757539603744043
2.1456953642384105,0.9710998757375103
2.165562913907285,0.9658506583609527
2.185430463576159,0.9600174921001182
2.205298013245033,0.9536129569986946
2.2251655629139075,0.9466510566704561
2.2450331125827816,0.9391472493544258
2.2649006622516556,0.9311184828585666
2.2847682119205297,0.922583233607762
2.3046357615894038,0.9135615500024358
2.324503311258278,0.9040751002719076
2.3443708609271523,0.894147224966718
2.364238410596027,0.8838029941725255
2.384105960264901,0.8730692694374544
2.403973509933775,0.8619747702778308
2.423841059602649,0.850550144954372
2.443708609271523,0.8388280449808583
2.463576158940397,0.82684320252705
2.4834437086092715,0.8146325094925261
2.5033112582781456,0.8022350965410412
2.52317880794702,0.7896924097799338
2.543046357615894,0.7770482820281682
2.562913907284768,0.7643489947266789
2.5827814569536423,0.7516433254964695
2.6026490066225163,0.7389825751455379
2.622516556291391,0.7264205665824378
2.642384105960265,0.7140136066541034
2.662251655629139,0.7018204004624563
2.6821192052980134,0.6899019063469439
2.7019867549668874,0.6783211186185578
2.7218543046357615,0.6671427645253806
2.741721854304636,0.6564329021088536
2.76158940397351,0.646258406908778
2.781456953642384,0.6366863382455694
2.801324503311258,0.6277831803659676
2.821192052980132,0.6196139602872442
2.8410596026490067,0.6122412527112294
2.8609271523178808,0.6057240925897827
2.8807947019867552,0.6001168271070328
2.9006622516556293,0.5954679498839813
2.9205298013245033,0.5918189696444278
2.9403973509933774,0.5892033717743501
2.9602649006622515,0.5876457326453346
2.9801324503311255,0.5871610422094709
3.0,0.5877542799498052
3.0198675496688745,0.5894202735122208
3.0397350993377485,0.592143849937983
3.0596026490066226,0.59590026874795
3.0794701986754967,0.6006559068346102
3.0993377483443707,0.606369149561427
3.119205298013245,0.6129914322972752
3.1390728476821192,0.6204683725078483
3.1589403973509933,0.6287409341875481
3.1788079470198674,0.637746572770344
3.198675496688742,0.6474203181806999
3.218543046357616,0.6576957647465641
3.23841059602649,0.6685059478450774
3.2582781456953644,0.6797840972905479
3.2781456953642385,0.6914642659208281
3.2980132450331126,0.7034818382945982
3.3178807947019866,0.7157739288860533
3.3377483443708607,0.728279681864136
3.3576158940397347,0.740940485789708
3.3774834437086096,0.7537001167069275
3.3973509933774837,0.7665048224770534
3.4172185430463577,0.7793033600908327
3.437086092715232,0.7920469963252379
3.456953642384106,0.8046894806508544
3.47682119205298,0.817186997862221
3.4966887417218544,0.8294981065688537
3.5165562913907285,0.8415836684892467
3.5364238410596025,0.8534067724507574
3.556291390728477,0.8649326561165417
3.576158940397351,0.8761286277271056
3.596026490066225,0.8869639895450318
3.615894039735099,0.8974099642097951
3.6357615894039736,0.9074396248287093
3.6556291390728477,0.9170278293331555
3.6754966887417218,0.9261511594022879
3.695364238410596,0.9347878640852917
3.7152317880794703,0.9429178081283156
3.7350993377483444,0.9505224249226201
3.754966887417219,0.9575846739296943
3.774834437086093,0.9640890024001015
3.794701986754967,0.9700213111809366
3.814569536423841,0.9753689243976934
3.834437086092715,0.980120562797122
3.854304635761589,0.9842663205456581
3.8741721854304636,0.987797645291261
3.8940397350993377,0.9907073213137512
3.9139072847682117,0.9929894556085278
3.9337748344370858,0.9946394667704593
3.9536423841059607,0.9956540765678609
3.9735099337748347,0.9960313041203672
3.993377483443709,0.9957704626191101
4.013245033112583,0.9948721585524675
4.033112582781457,0.9933382934255439
4.052980132450331,0.99117206798668
4.072847682119205,0.9883779889992707
4.0927152317880795,0.9849618786216023
4.112582781456953,0.98093088648222
4.132450331125828,0.9762935045614534
4.152317880794702,0.9710595850129508
4.172185430463576,0.9652403610800493
4.19205298013245,0.9588484712811359
4.211920529801325,0.9518979870544721
4.231788079470199,0.9444044440651769
4.251655629139073,0.9363848773835346
4.271523178807947,0.9278578607430432
4.291390728476821,0.9188435500752815
4.311258278145695,0.9093637314941996
4.33112582781457,0.8994418738603827
4.3509933774834435,0.8891031859910116
4.370860927152318,0.8783746784873755
4.390728476821192,0.8672852300209958
4.410596026490066,0.855865657742561
4.43046357615894,0.8441487912430581
4.450331125827815,0.8321695491920421
4.470198675496689,0.8199650173876915
4.490066225165563,0.8075745264627514
4.509933774834438,0.7950397268816125
4.529801324503311,0.7824046581219156
4.549668874172186,0.769715808045129
4.569536423841059,0.7570221574181457
4.589403973509934,0.7443752033544161
4.6092715231788075,0.7318289541189151
4.629139072847682,0.719439886329051
4.649006622516556,0.7072668541606025
4.66887417218543,0.6953709388528919
4.688741721854305,0.6838152257715366
4.708609271523179,0.6726644957590434
4.728476821192054,0.6619848177668252
4.748344370860927,0.6518430311449193
4.768211920529802,0.6423061088058254
4.788079470198675,0.6334403970772464
4.80794701986755,0.6253107345981872
4.827814569536423,0.617979461071684
4.847682119205298,0.6115053367375253
4.867549668874172,0.6059424043648498
4.887417218543046,0.6013388362843309
4.9072847682119205,0.5977358180521305
4.927152317880794,0.5951665261821921
4.947019867549669,0.5936552585502926
4.966887417218543,0.5932167715782469
4.986754966887418,0.5938558679364093
5.006622516556291,0.5955672629930132
5.026490066225166,0.598335739247637
5.04635761589404,0.6021365778317916
5.066225165562914,0.606936237390458
5.086092715231788,0.612693235548815
5.105960264900662,0.6193591782998739
5.125827814569536,0.626879878668629
5.14569536423841,0.6351965076247723
5.1655629139072845,0.6442467263907296
5.185430463576159,0.6539657585512625
5.205298013245033,0.6642873711410919
5.225165562913908,0.6751447447623572
5.245033112582782,0.686471222697674
5.264900662251656,0.69820093726826
5.28476821192053,0.7102693180441343
5.304635761589404,0.7226134909430174
5.324503311258278,0.7351725799544345
5.344370860927152,0.7478879244994946
5.364238410596027,0.7607032256241187
5.3841059602649,0.7735646336476326
5.403973509933775,0.7864207888274726
5.4238410596026485,0.799222825278248
5.443708609271523,0.8119243469639389
5.463576158940397,0.8244813831815759
5.483443708609272,0.8368523296455951
5.503311258278146,0.8489978801058014
5.52317880794702,0.8608809524063844
5.543046357615895,0.8724666120205603
5.562913907284768,0.8837219953674028
5.582781456953643,0.8946162346216536
5.602649006622516,0.9051203852465317
5.622516556291391,0.9152073570986152
5.642384105960264,0.924851849655932
5.662251655629139,0.934030291691774
5.682119205298013,0.9427207855438996
5.701986754966887,0.9509030560018852
5.7218543046357615,0.9585584037439204
5.741721854304636,0.9656696631915491
5.7615894039735105,0.9722211646105325
5.781456953642384,0.9781987002621882
5.801324503311259,0.9835894943995008
5.821192052980132,0.9883821769015941
5.841059602649007,0.9925667603472539
5.860927152317881,0.9961346203404434
5.880794701986755,0.9990784789173597
5.900662251655629,1.0013923908833882
5.920529801324503,1.0030717329500856
5.940397350993377,1.0041131955643607
5.960264900662251,1.0045147773459346
5.980132450331126,1.0042757820730828
6.0,1.003396818180985
6.0198675496688745,1.0018798007619656
6.039735099337749,0.999727956081053
6.059602649006623,0.9969458286451922
6.079470198675497,0.9935392908884062
6.099337748344371,0.9895155555589843
6.119205298013245,0.984883190918065
6.139072847682119,0.9796521388803867
6.158940397350993,0.9738337362488375
6.178807947019867,0.9674407392124217
6.198675496688741,0.9604873512917688
6.218543046357616,0.9529892549275858
6.23841059602649,0.9449636469114665
6.258278145695365,0.9364292778555369
6.2781456953642385,0.9274064958831985
6.298013245033113,0.9179172946956463
6.317880794701987,0.9079853661226738
6.337748344370861,0.8976361571971531
6.357615894039735,0.8868969316936135
6.377483443708609,0.8757968359347688
6.397350993377484,0.8643669684866455
6.417218543046357,0.8526404531215963
6.437086092715232,0.8406525141168718
6.456953642384105,0.828440552559662
6.47682119205298,0.8160442218325863
6.496688741721854,0.8035054998410652
6.516556291390729,0.7908687548000046
6.5364238410596025,0.7781808005119533
6.556291390728477,0.765490936035103
6.5761589403973515,0.7528509634650922
6.596026490066225,0.7403151762595919
6.6158940397351,0.7279403091676561
6.635761589403973,0.7157854394642569
6.655629139072848,0.7039118279572901
6.675496688741721,0.6923826872987264
6.695364238410596,0.6812628647209077
6.715231788079469,0.6706184267093193
6.735099337748344,0.660516134629522
6.754966887417219,0.6510228032685321
6.774834437086093,0.6422045389044775
6.794701986754967,0.6341258600382466
6.814569536423841,0.6268487122562375
6.8344370860927155,0.6204313984959795
6.854304635761589,0.6149274565477291
6.874172185430464,0.6103845258627372
6.894039735099337,0.6068432542723039
6.913907284768212,0.6043363005496123
6.933774834437086,0.6028874895133601
6.95364238410596,0.6025111716869479
6.973509933774834,0.6032118292398286
6.993377483443709,0.6049839547996078
7.013245033112583,0.6078122113471308
7.033112582781457,0.6116718620129964
7.052980132450331,0.616529440600725
7.072847682119205,0.622343619215334
7.0927152317880795,0.6290662199587356
7.112582781456954,0.6366433138667194
7.132450331125828,0.6450163518207097
7.152317880794702,0.654123278084685
7.172185430463576,0.6638995859964505
7.19205298013245,0.6742792856876332
7.211920529801324,0.6851957641802677
7.231788079470198,0.6965825277877924
7.251655629139073,0.7083738247877275
7.271523178807947,0.7205051525391944
7.291390728476822,0.732913657577646
7.311258278145695,0.7455384399118761
7.33112582781457,0.7583207740592663
7.3509933774834435,0.7712042596050485
7.370860927152318,0.7841349135693023
7.390728476821192,0.7970612158793189
7.410596026490066,0.8099341179913173
7.430463576158941,0.8227070233463345
7.450331125827814,0.8353357469932778
7.470198675496689,0.8477784604420837
7.490066225165562,0.8599956266623059
7.509933774834438,0.8719499291378773
7.52980132450331,0.8836061980299735
7.549668874172186,0.8949313357808482
7.569536423841059,0.9058942439004646
7.589403973509934,0.9164657521992327
7.6092715231788075,0.926618551349028
7.629139072847682,0.9363271293557041
7.649006622516557,0.9455677122952126
7.66887417218543,0.9543182094904701
7.6887417218543055,0.96255816317609
7.708609271523178,0.9702687026039507
7.728476821192054,0.97743250247747
7.748344370860927,0.9840337455590994
7.768211920529802,0.9900580892700621
7.788079470198675,0.9954926360888027
7.80794701986755,1.0003259075525646
7.827814569536423,1.0045478216716668
7.847682119205298,1.0081496735772608
7.8675496688741715,1.0111241192384786
7.887417218543046,1.0134651621029926
7.907284768211921,1.0151681425355097
7.927152317880795,1.0162297299502974
7.9470198675496695,1.0166479175568708
7.966887417218543,1.0164220196611753
7.986754966887418,1.0155526714886278
8.006622516556291,1.0140418315192277
8.026490066225167,1.0118927863489853
8.046357615894038,1.0091101581158353
8.066225165562914,1.0056999145515158
8.086092715231787,1.0016693817439948
8.105960264900663,0.9970272597169871
8.125827814569536,0.9917836409539134
8.14569536423841,0.9859500320126544
8.165562913907285,0.9795393783939654
8.185430463576159,0.97256609283927
8.205298013245034,0.9650460872419225
8.225165562913906,0.9569968083577491
8.245033112582782,0.9484372774940664
8.264900662251655,0.939388134338412
8.28476821192053,0.9298716850557841
8.304635761589404,0.9199119547317643
8.324503311258278,0.9095347441633973
8.344370860927151,0.898767690893602
8.364238410596027,0.8876403342404418
8.3841059602649,0.876184183880508
8.403973509933774,0.8644327912950499
8.42384105960265,0.8524218230663612
8.443708609271523,0.8401891346058764
8.463576158940398,0.8277748423907094
8.483443708609272,0.815221392166977
8.503311258278146,0.8025736198330662
8.52317880794702,0.7898788008350938
8.543046357615895,0.777186682887485
8.562913907284768,0.764549495682668
8.582781456953642,0.752021930002151
8.602649006622515,0.739661077336327
8.62251655629139,0.727526319845831
8.642384105960264,0.7156791593761506
8.66225165562914,0.7041829734410596
8.682119205298013,0.6931026858400167
8.701986754966887,0.6825043401382851
8.721854304635762,0.672454565912618
8.741721854304636,0.6630199307449561
8.76158940397351,0.6542661756730312
8.781456953642383,0.6462573382967365
8.801324503311259,0.639054775905162
8.821192052980132,0.6327161104566269
8.841059602649008,0.6272941272996841
8.86092715231788,0.6228356691133314
8.880794701986755,0.619380574356231
8.90066225165563,0.6169607141499304
8.920529801324504,0.615599181749898
8.940397350993377,0.6153096838085829
8.960264900662251,0.616096172442608
8.980132450331126,0.6179527424522002
9.0,0.6208638004610059
9.019867549668875,0.6248044943449959
9.039735099337747,0.6297413743495438
9.059602649006623,0.635633243734271
9.079470198675496,0.6424321479883014
9.099337748344372,0.6500844481598198
9.119205298013245,0.6585319253632023
9.139072847682119,0.6677128691392505
9.158940397350994,0.6775631107476302
9.178807947019868,0.6880169722717914
9.198675496688743,0.6990081123651051
9.218543046357615,0.7104702586012457
9.23841059602649,0.7223378240974306
9.258278145695364,0.7345464120684623
9.27814569536424,0.7470332162183589
9.298013245033111,0.7597373275436847
9.317880794701987,0.7725999594680619
9.33774834437086,0.7855646035490227
9.357615894039736,0.7985771275860938
9.37748344370861,0.8115858270671295
9.397350993377483,0.8245414397251616
9.417218543046358,0.8373971316969112
9.437086092715232,0.8501084624881566
9.456953642384107,0.8626333347330097
9.47682119205298,0.8749319336267598
9.496688741721854,0.8869666599366235
9.516556291390728,0.8987020596562951
9.536423841059603,0.910104752664693
9.556291390728477,0.9211433621662161
9.57615894039735,0.9317884462152578
9.596026490066224,0.9420124322478244
9.6158940397351,0.9517895552432036
9.635761589403973,0.9610957999056179
9.655629139072847,0.96990884707786
9.675496688741722,0.9782080244656579
9.695364238410596,0.9859742616543252
9.715231788079471,0.9931900493305177
9.735099337748345,0.9998394025757538
9.754966887417218,1.0059078280700267
9.774834437086092,1.011382295028534
9.794701986754967,1.0162512096902754
9.814569536423841,1.0205043931805104
9.834437086092716,1.0241330625782603
9.854304635761588,1.0271298150337336
9.874172185430464,1.0294886147973286
9.894039735099337,1.031204783041006
9.913907284768213,1.032274990373454
9.933774834437086,1.0326972519724333
9.95364238410596,1.0324709252801818
9.973509933774835,1.0315967102306167
9.993377483443709,1.0300766520004054
10.013245033112582,1.027914146299043
10.033112582781456,1.0251139472358863
10.052980132450331,1.0216821778247107
10.072847682119205,1.017626343208202
10.09271523178808,1.0129553467051438
10.112582781456952,1.0076795088027823
10.132450331125828,1.0018105892336737
10.152317880794701,0.9953618122905503
10.172185430463577,0.9883478955431542
10.192052980132452,0.9807850821260056
10.211920529801324,0.9726911767639708
10.2317880794702,0.9640855856914079
10.251655629139073,0.9549893605972485
10.271523178807948,0.9454252466897943
10.29139072847682,0.9354177349160862
10.311258278145695,0.9249931182868855
10.331125827814569,0.914179552142732
10.350993377483444,0.903007118041266
10.370860927152318,0.8915078907425442
10.390728476821192,0.8797160075059385
10.410596026490065,0.8676677385787693
10.43046357615894,0.8554015573386387
10.450331125827816,0.8429582080368059
10.470198675496688,0.8303807684642992
10.490066225165563,0.8177147041164233
10.509933774834437,0.8050079095572934
10.529801324503312,0.7923107316864647
10.549668874172186,0.7796759684962628
10.56953642384106,0.7671588357143556
10.589403973509933,0.7548168925047758
10.609271523178808,0.7427099162408329
10.629139072847682,0.7308997153905503
10.649006622516556,0.7194498689408586
10.66887417218543,0.7084253807453534
10.688741721854305,0.697892237967484
