Time (s),Filtered Signal
0.0,-0.006677880813422792
0.03337000366703337,-0.3851602173518268
0.06674000733406674,-0.5980650676252658
0.1001100110011001,-0.5405567685640337
0.13348001466813347,-0.2055236849364682
0.16685001833516683,0.3186621126160581
0.2002200220022002,0.8866300421031901
0.2335900256692336,1.353027792777746
0.26696002933626695,1.6233451276634023
0.3003300330033003,1.6780702210685379
0.33370003667033366,1.563028564798562
0.36707004033736707,1.3546479733536059
0.4004400440044004,1.1196564526627337
0.4338100476714338,0.8892804066597852
0.4671800513384672,0.6585187882097815
0.5005500550055005,0.4068520034603681
0.5339200586725339,0.12550918741548345
0.5672900623395672,-0.16591058769572556
0.6006600660066006,-0.4232076564077803
0.634030069673634,-0.598878003484144
0.6674000733406673,-0.6677715835356755
0.7007700770077008,-0.6418223389198427
0.7341400806747341,-0.5654370349861616
0.7675100843417675,-0.4944732099186463
0.8008800880088008,-0.4706438828880553
0.8342500916758342,-0.5047112346546823
0.8676200953428675,-0.5758107742501889
0.9009900990099009,-0.64496088413183
0.9343601026769344,-0.6739359084140856
0.9677301063439677,-0.6397043551479785
1.001100110011001,-0.5390705904090098
1.0344701136780343,-0.3844605701823931
1.0678401173450678,-0.1959943015079764
1.1012101210121013,0.004860928549129636
1.1345801246791345,0.19781134458629818
1.167950128346168,0.36378466848591584
1.2013201320132012,0.4854560890817019
1.2346901356802347,0.5499579106759357
1.268060139347268,0.5526795729932168
1.3014301430143014,0.4991349593616677
1.3348001466813346,0.40256419297956025
1.368170150348368,0.2779401724700576
1.4015401540154016,0.13610804833649923
1.4349101576824348,-0.017667826945208756
1.4682801613494683,-0.1792929362713249
1.5016501650165015,-0.33857722937723167
1.535020168683535,-0.47502082057452444
1.5683901723505682,-0.5614596973114045
1.6017601760176017,-0.575524443648221
1.6351301796846351,-0.5131754110681223
1.6685001833516684,-0.3958393100996731
1.7018701870187019,-0.2650720431383458
1.735240190685735,-0.1653098938331932
1.7686101943527686,-0.12252324789572211
1.8019801980198018,-0.13010504888190605
1.8353502016868353,-0.1505737925747812
1.8687202053538687,-0.13362255749743057
1.902090209020902,-0.041967324162751854
1.9354602126879354,0.12838749716592068
1.9688302163549687,0.3443411443299175
2.002200220022002,0.5505151199240417
2.0355702236890356,0.6948388849900315
2.0689402273560686,0.7514248751175548
2.102310231023102,0.7291938112324423
2.1356802346901356,0.6629106449517974
2.169050238357169,0.5928682971047383
2.2024202420242025,0.5449326933972352
2.2357902456912355,0.5212038546170288
2.269160249358269,0.5044920383017222
2.3025302530253025,0.47167398490553303
2.335900256692336,0.4066642882497145
2.369270260359369,0.30551495977978477
2.4026402640264024,0.17245612413638747
2.436010267693436,0.012147999011126518
2.4693802713604693,-0.17427811511840774
2.502750275027503,-0.38514031481556016
2.536120278694536,-0.6085126436364612
2.5694902823615693,-0.8147474654165241
2.6028602860286028,-0.9592187948672192
2.636230289695636,-0.9975897891976262
2.6696002933626692,-0.9076020092256922
2.7029702970297027,-0.7057336815446764
2.736340300696736,-0.44800751243458625
2.7697103043637696,-0.211775428705664
2.803080308030803,-0.06545331091506845
2.836450311697836,-0.04021891768565734
2.8698203153648696,-0.11755116892102149
2.903190319031903,-0.23902145639502193
2.9365603226989365,-0.3337433694648462
2.96993032636597,-0.35005691939284167
3.003300330033003,-0.27601695556132655
3.0366703337000365,-0.1392135663707609
3.07004033736707,0.012692361496301697
3.1034103410341034,0.1393408054326306
3.1367803447011364,0.22782269739347466
3.17015034836817,0.2949888529028091
3.2035203520352034,0.3715351072045519
3.236890355702237,0.47773866273418764
3.2702603593692703,0.6053140842336141
3.3036303630363033,0.7163159865965442
3.3370003667033368,0.7604295883832014
3.3703703703703702,0.7017464948331336
3.4037403740374037,0.5408047761004247
3.4371103777044367,0.31998102228641645
3.47048038137147,0.10878023480627409
3.5038503850385037,-0.02441760516312632
3.537220388705537,-0.04113856012049181
3.5705903923725706,0.050799958111993795
3.6039603960396036,0.20006446221418916
3.637330399706637,0.33173770056861895
3.6707004033736705,0.3754175014517374
3.704070407040704,0.29021849606432387
3.7374404107077375,0.07801769073942648
3.7708104143747705,-0.21835517522450865
3.804180418041804,-0.529896310795532
3.8375504217088374,-0.7834852585623829
3.870920425375871,-0.9241453127571919
3.904290429042904,-0.9308883470894979
3.9376604327099374,-0.8214023562475131
3.971030436376971,-0.6439318363832902
4.004400440044004,-0.4586695985038803
4.037770443711038,-0.31487647302054445
4.071140447378071,-0.23222582602270947
4.104510451045105,-0.1940785563901967
4.137880454712137,-0.1561620025765997
4.171250458379171,-0.06777330761568551
4.204620462046204,0.10314307353170425
4.237990465713238,0.3520110521309667
4.271360469380271,0.6350579443645757
4.304730473047305,0.8837651324225341
4.338100476714338,1.0301770435675655
4.3714704803813715,1.0319657918188232
4.404840484048405,0.8865760390261239
4.438210487715438,0.6293524737786806
4.471580491382471,0.3182659034261277
4.5049504950495045,0.01357076212150434
4.538320498716538,-0.23838849691670527
4.571690502383571,-0.41187355152472727
4.605060506050605,-0.4994717591891931
4.638430509717638,-0.505679446173835
4.671800513384672,-0.4418034249489256
4.705170517051705,-0.32486710440097294
4.738540520718738,-0.17929818386540908
4.771910524385771,-0.037676876596874735
4.805280528052805,0.06290128730162786
4.838650531719838,0.08962767023325459
4.872020535386872,0.02531747372529562
4.905390539053905,-0.12259608785372826
4.938760542720939,-0.3201517165786779
4.972130546387972,-0.5142339851352394
5.005500550055006,-0.6476189742795099
5.038870553722038,-0.6767317412533533
5.072240557389072,-0.5857783136772756
5.105610561056105,-0.39208663348746187
5.138980564723139,-0.1406700580452694
5.172350568390172,0.11010117827850498
5.2057205720572055,0.30674932734921945
5.239090575724239,0.4166771133414478
5.272460579391272,0.436727072542678
5.305830583058306,0.3919033927638949
5.3392005867253385,0.3252363644923353
5.372570590392372,0.28252296179590064
5.405940594059405,0.29692787291814526
5.439310597726439,0.37803430302807733
5.472680601393472,0.5083710514038854
5.506050605060506,0.648362352821965
5.539420608727539,0.7484597438639572
5.572790612394573,0.765114224848529
5.606160616061606,0.6756261424025329
5.63953061972864,0.48658335457666047
5.672900623395672,0.2323231275126889
5.706270627062706,-0.03652413426930253
5.739640630729739,-0.2702323949693479
5.773010634396773,-0.4361270643243083
5.806380638063806,-0.5272142249069656
5.83975064173084,-0.56011124557263
5.873120645397873,-0.5638848968882502
5.9064906490649065,-0.5654091652875443
5.93986065273194,-0.5780940171834448
5.9732306563989725,-0.5986881992795873
6.006600660066006,-0.6124941630288839
6.0399706637330395,-0.6031270545071639
6.073340667400073,-0.5611427601158525
6.106710671067106,-0.4872695706455445
6.14008067473414,-0.3895736659157392
6.173450678401173,-0.27746509001661035
6.206820682068207,-0.15694430844810472
6.24019068573524,-0.030153857461545006
6.273560689402273,0.10090141120455315
6.306930693069306,0.22959904464515035
6.34030069673634,0.34292676134798694
6.373670700403373,0.4249107743824814
6.407040704070407,0.464077454256512
6.44041070773744,0.46088247085960987
6.473780711404474,0.4304173860018647
6.507150715071507,0.3978529829435227
6.540520718738541,0.38794878831371843
6.573890722405573,0.4134542074164652
6.607260726072607,0.4682642808055366
6.64063072973964,0.5289319252019054
6.6740007334066735,0.5637380831092784
6.707370737073707,0.5446567353091577
6.7407407407407405,0.4566517667869447
6.774110744407774,0.3011559200697477
6.807480748074807,0.09428175419257451
6.840850751741841,-0.13745795004024372
6.8742207554088735,-0.361658697835294
6.907590759075907,-0.5446469813894801
6.94096076274294,-0.6575003389339722
6.974330766409974,-0.6838388614913622
7.007700770077007,-0.6271399200660843
7.041070773744041,-0.5132934058402271
7.074440777411074,-0.38484404815242584
7.107810781078108,-0.28711025348193664
7.141180784745141,-0.25107112082909805
7.174550788412174,-0.28056834637897976
7.207920792079207,-0.35008731255679254
7.241290795746241,-0.414657986079323
7.274660799413274,-0.42777260083985
7.308030803080308,-0.35960166759479806
7.341400806747341,-0.20790720791652384
7.3747708104143745,0.00239288474197686
7.408140814081408,0.2299693937885394
7.4415108177484415,0.4328861826771627
7.474880821415475,0.5826225345199658
7.5082508250825075,0.6708940714143167
7.541620828749541,0.7073956233166434
7.5749908324165744,0.7106214479962353
7.608360836083608,0.6967510220389758
7.641730839750641,0.6720472377829715
7.675100843417675,0.6320876014991064
7.708470847084708,0.5674269434009708
7.741840850751742,0.4718819340068773
7.775210854418775,0.34842222351476443
7.808580858085808,0.20934190979628467
7.841950861752841,0.07090864721688389
7.875320865419875,-0.05414584336983145
7.908690869086908,-0.1619986818600243
7.942060872753942,-0.25831205300584975
7.975430876420975,-0.35423089827304927
8.008800880088009,-0.4602302631289827
8.042170883755041,-0.5806653551536964
8.075540887422076,-0.7108093585207538
8.108910891089108,-0.8367588517404108
8.142280894756142,-0.9377779904939764
8.175650898423175,-0.9905244434246088
8.20902090209021,-0.9746260868469461
8.242390905757242,-0.8787879449599263
8.275760909424275,-0.7060146636051453
8.309130913091309,-0.4760654931691051
8.342500916758341,-0.22342690420072286
8.375870920425376,0.009852654103361575
8.409240924092408,0.18535024475241768
8.442610927759443,0.2804682835634031
8.475980931426475,0.2974196819668054
8.50935093509351,0.26495768870719116
8.542720938760542,0.23073838288077209
8.576090942427575,0.24553459308585418
8.60946094609461,0.3441274225281889
8.642830949761642,0.5299734713012628
8.676200953428676,0.7703096254277422
8.709570957095709,1.0048879730992257
8.742940960762743,1.166142237673743
8.776310964429776,1.2034988967087277
8.80968096809681,1.102162200751373
8.843050971763843,0.8884442914796837
8.876420975430875,0.6191677286160876
8.90979097909791,0.35953298900185005
8.943160982764942,0.1588845158483414
8.976530986431976,0.03452068797648669
9.009900990099009,-0.030272296600970743
9.043270993766043,-0.07437385779264584
9.076640997433076,-0.13950547725016352
9.11001100110011,-0.2522898967339888
9.143381004767143,-0.41482999839986023
9.176751008434175,-0.6062295169084506
9.21012101210121,-0.7923257055562527
9.243491015768242,-0.9378597491042453
9.276861019435277,-1.0156576698143434
9.31023102310231,-1.0105041724199082
9.343601026769344,-0.9190873573444501
9.376971030436376,-0.7492649948602425
9.41034103410341,-0.5208492322589248
9.443711037770443,-0.26706561458737943
9.477081041437476,-0.03318837985786896
9.51045104510451,0.1311907205411554
9.543821048771543,0.18668208517649806
9.577191052438577,0.12110337476274967
9.61056105610561,-0.03884462912504524
9.643931059772644,-0.22887415378031142
9.677301063439677,-0.364479464698341
9.710671067106711,-0.3702146638379234
9.744041070773743,-0.21009744548295503
9.777411074440776,0.0940663536288902
9.81078107810781,0.4659640837785861
9.844151081774843,0.8003938568019391
9.877521085441877,1.0018118498264352
9.91089108910891,1.0198587782071145
9.944261092775944,0.8665330272766884
9.977631096442977,0.6076150232859779
10.011001100110011,0.3326161755850288
10.044371103777044,0.11727980083886279
10.077741107444076,-0.004334351288217333
10.11111111111111,-0.0463665364044774
10.144481114778143,-0.055172584525063746
10.177851118445178,-0.08046094626280435
10.21122112211221,-0.14858649732701207
10.244591125779245,-0.2507467536224874
10.277961129446277,-0.35045856370398804
10.311331133113312,-0.4048219141657168
10.344701136780344,-0.38771930364512946
10.378071140447377,-0.30314625152549757
10.411441144114411,-0.1827667503193202
10.444811147781444,-0.07007227645584622
10.478181151448478,0.00016782115169574425
10.51155115511551,0.01706853822010557
10.544921158782545,-0.003088069965223535
10.578291162449577,-0.025765873081652384
10.611661166116612,-0.014214778675482521
10.645031169783644,0.05467109053314081
10.678401173450677,0.1807837684316732
10.711771177117711,0.34036904789879896
10.745141180784744,0.4940748801888214
10.778511184451778,0.6002266689338367
10.81188118811881,0.6287105139516158
10.845251191785845,0.5707175640417013
10.878621195452878,0.440823263792579
10.911991199119912,0.2704923617438751
10.945361202786945,0.09554618625261456
10.978731206453979,-0.057014702633388675
11.012101210121012,-0.17685784150612163
11.045471213788044,-0.26935235617348
11.078841217455079,-0.34691259999389146
11.112211221122111,-0.4180318341271779
11.145581224789145,-0.4806965059423383
11.178951228456178,-0.5242141317836048
11.212321232123212,-0.5382441644528713
11.245691235790245,-0.5230953583554232
11.27906123945728,-0.4941106469404274
11.312431243124312,-0.47615400721698486
11.345801246791344,-0.4901230881484471
11.379171250458379,-0.5386366249208508
11.412541254125411,-0.5994820484751643
11.445911257792446,-0.6319770182928942
11.479281261459478,-0.5946468470111033
11.512651265126513,-0.46602666607714455
11.546021268793545,-0.25769512222945534
11.57939127246058,-0.011798295695479438
11.612761276127612,0.21685607962905595
11.646131279794645,0.38561769674890073
11.67950128346168,0.48296130004189686
11.712871287128712,0.5314785736281502
11.746241290795746,0.5731308400273969
11.779611294462779,0.6445623900669527
11.812981298129813,0.7557114035321081
11.846351301796846,0.8831721867250099
11.87972130546388,0.9816894475841945
11.913091309130913,1.007283498355922
11.946461312797945,0.9393469438160175
11.97983131646498,0.7900460187093358
12.013201320132012,0.5968145100400202
12.046571323799046,0.4032087956308927
12.079941327466079,0.23934360542273594
12.113311331133113,0.11224122128893864
12.146681334800146,0.009648860459709852
12.18005133846718,-0.08727866033336515
12.213421342134213,-0.19147367949332042
12.246791345801245,-0.3049808798017733
12.28016134946828,-0.4227060485918304
12.313531353135312,-0.5398646393461554
12.346901356802347,-0.6559968818019887
12.38027136046938,-0.771650522678299
12.413641364136414,-0.880022164330866
12.447011367803446,-0.9606213402159578
12.48038137147048,-0.9819023421135271
12.513751375137513,-0.9144909617530639
12.547121378804546,-0.749234625367908
12.58049138247158,-0.5095134027514813
12.613861386138613,-0.24852000249506587
12.647231389805647,-0.02960840570780569
12.68060139347268,0.10234279744774334
12.713971397139714,0.1439251394228072
12.747341400806746,0.1368892490394271
12.78071140447378,0.1479825162693354
12.814081408140813,0.23335311258462552
12.847451411807846,0.40558102349951763
12.88082141547488,0.621698078539597
12.914191419141913,0.8004312472182239
12.947561422808947,0.8613346109346497
12.98093142647598,0.7660271382496263
13.014301430143014,0.5396919930250419
13.047671433810047,0.260924468462932
13.081041437477081,0.02473001114925376
13.114411441144114,-0.10219689698110514
13.147781444811146,-0.11075969657996637
13.18115144847818,-0.04864297452848474
13.214521452145213,0.009014093112867692
13.247891455812248,0.0008157108909109501
13.28126145947928,-0.090027257638658
13.314631463146315,-0.23061175084887361
13.348001466813347,-0.3595990996226854
13.381371470480381,-0.42117340295099076
13.414741474147414,-0.39255374146636696
13.448111477814447,-0.29152305386456234
13.481481481481481,-0.16285157459881155
13.514851485148514,-0.0538605791817177
13.548221488815548,0.006574740338612602
13.58159149248258,0.01569398975833066
13.614961496149615,-0.00971311553517926
13.648331499816647,-0.047269415799068286
13.681701503483682,-0.08107367762635034
13.715071507150714,-0.10567876103913124
13.748441510817747,-0.12166456708511993
13.781811514484781,-0.1274287770507026
13.815181518151814,-0.11344424093404198
13.848551521818848,-0.06327588721947597
13.88192152548588,0.038462294264663084
13.915291529152915,0.1951554632219438
13.948661532819948,0.3903493186507595
13.982031536486982,0.588188685491408
14.015401540154015,0.7434420225240976
14.048771543821047,0.8173634665211749
14.082141547488082,0.7920686770919646
14.115511551155114,0.6762907782533042
14.148881554822148,0.49965472989569293
14.182251558489181,0.298740552201687
14.215621562156215,0.10258148413528839
14.248991565823248,-0.07487041607625475
14.282361569490282,-0.23237432204544564
14.315731573157315,-0.37240785961191464
14.349101576824348,-0.49272236576651735
14.382471580491382,-0.5846653464165668
14.415841584158414,-0.6393259875342266
14.449211587825449,-0.6566646374741822
14.482581591492481,-0.6502436383443276
14.515951595159516,-0.6428579720725108
14.549321598826548,-0.6545318761422901
14.582691602493583,-0.6897922421813827
14.616061606160615,-0.7321207873184927
14.649431609827648,-0.7493812322541695
14.682801613494682,-0.7076091734600719
14.716171617161715,-0.5859881039188557
14.749541620828749,-0.385735413172397
14.782911624495782,-0.1295173376649378
14.816281628162816,0.14694834422898143
14.849651631829849,0.4062952650381196
14.883021635496883,0.6191283018127238
14.916391639163916,0.7693391047113826
14.94976164283095,0.8551106501325214
14.983131646497982,0.8868593806140744
15.016501650165015,0.8832229465639179
15.04987165383205,0.8655964241564359
15.083241657499082,0.8516486816048127
15.116611661166116,0.848964262146155
15.149981664833149,0.8508652524410986
15.183351668500183,0.8366644553244973
15.216721672167216,0.7775268956020831
15.25009167583425,0.6469559225072481
15.283461679501283,0.43256098425433
15.316831683168315,0.1444002137043955
15.35020168683535,-0.18423376534717129
15.383571690502382,-0.5050226769743941
15.416941694169417,-0.769333432819346
15.45031169783645,-0.9435707553983791
15.483681701503484,-1.0184678303266914
15.517051705170516,-1.0082229593939345
15.55042170883755,-0.9404426964494742
15.583791712504583,-0.8426046063383945
15.617161716171616,-0.7322977906054094
15.65053171983865,-0.6157488945010132
15.683901723505683,-0.49375702022005935
15.717271727172717,-0.3695891175851878
15.75064173083975,-0.2525909494275216
15.784011734506784,-0.15473139790732884
15.817381738173816,-0.08265549917471961
15.85075174184085,-0.031373365342470004
15.884121745507883,0.015102661653797436
15.917491749174916,0.07560439623811506
15.95086175284195,0.16095257869417495
15.984231756508983,0.26736690063714363
16.017601760176017,0.37842702188294014
16.05097176384305,0.47424078078339915
16.084341767510082,0.5418611723902672
16.117711771177117,0.5805111671534318
16.15108177484415,0.5989249997569395
16.184451778511182,0.6073112594862311
16.217821782178216,0.6095603947867723
16.25119178584525,0.6005380428085366
16.284561789512285,0.5695554455402276
16.317931793179316,0.5071535164928627
16.35130179684635,0.41073371938976266
16.384671800513384,0.2859908719729171
16.41804180418042,0.14415200219560081
16.45141180784745,-0.002516460083827036
16.484781811514484,-0.14403432931019375
16.51815181518152,-0.27342337169782355
16.55152181884855,-0.38543438063978097
16.584891822515583,-0.4751582273896476
16.618261826182618,-0.5381367776908919
16.651631829849652,-0.5721523016949905
16.685001833516683,-0.579321078970957
16.718371837183717,-0.5665670705649571
16.75174184085075,-0.5434411225608113
16.785111844517782,-0.5180119327779308
16.818481848184817,-0.4929939682651719
16.85185185185185,-0.46441637893602467
16.885221855518886,-0.4238571809902564
16.918591859185916,-0.3633070887212802
16.95196186285295,-0.2801756747182963
16.985331866519985,-0.1796752574918621
17.01870187018702,-0.0730667477848406
17.05207187385405,0.027511578855806896
17.085441877521085,0.1148737892858738
17.11881188118812,0.1899401401810783
17.15218188485515,0.26029247885054735
17.185551888522184,0.3348989073674801
17.21892189218922,0.41810983630534065
17.252291895856253,0.5064814569864049
17.285661899523284,0.5902072131272795
17.319031903190318,0.6580572638747999
17.352401906857352,0.70260125414867
