Time (s),Filtered Signal
0.0,0.05599740235688629
0.033370165745856356,0.019965431173979864
0.06674033149171271,0.00944246261144183
0.10011049723756907,0.037680077002263064
0.13348066298342542,0.09852750606806392
0.16685082872928178,0.16933458204822321
0.20022099447513814,0.2216428678492963
0.2335911602209945,0.23425283316126605
0.26696132596685085,0.2022535000725291
0.30033149171270723,0.13792770445532646
0.33370165745856356,0.06381877813132494
0.3670718232044199,0.002224917363448974
0.4004419889502763,-0.03323867448329899
0.43381215469613266,-0.040262849695589804
0.467182320441989,-0.02475091691734143
0.5005524861878453,0.0045672975628640805
0.5339226519337017,0.039637444899541484
0.5672928176795581,0.07267408214582007
0.6006629834254145,0.09329256492484936
0.6340331491712707,0.08697381318068353
0.6674033149171271,0.03817104733175463
0.7007734806629835,-0.06180380464743443
0.7341436464088398,-0.2058761610916115
0.7675138121546962,-0.3670777894593803
0.8008839779005525,-0.5034977159557286
0.8342541436464089,-0.5720621266139033
0.8676243093922653,-0.5456725503771993
0.9009944751381216,-0.42546838537150145
0.934364640883978,-0.24160561138249895
0.9677348066298344,-0.041424763805243674
1.0011049723756906,0.12962764781655195
1.0344751381215471,0.2450345176384534
1.0678453038674034,0.30381090951576917
1.1012154696132597,0.3236808604229439
1.1345856353591162,0.32497600620612455
1.1679558011049724,0.31453945464087346
1.201325966850829,0.27919505163866315
1.2346961325966852,0.1933069535384972
1.2680662983425415,0.0369891207191179
1.301436464088398,-0.18512074911321186
1.3348066298342542,-0.4359622597208776
1.3681767955801105,-0.655211293502309
1.401546961325967,-0.7823064125671219
1.4349171270718233,-0.7818921392355912
1.4682872928176796,-0.6580830088307358
1.501657458563536,-0.4495859116869436
1.5350276243093923,-0.20822695894941531
1.5683977900552488,0.027146015534615774
1.601767955801105,0.24665446799757335
1.6351381215469614,0.46629138725242053
1.6685082872928179,0.7078471680089637
1.7018784530386741,0.9739725806831727
1.7352486187845306,1.2335143128967963
1.768618784530387,1.4265621708661111
1.8019889502762432,1.487652989863434
1.8353591160220997,1.375644910468256
1.868729281767956,1.0952914456873117
1.9020994475138122,0.6999120352286633
1.9354696132596687,0.27388780173740235
1.968839779005525,-0.09700743655859007
2.0022099447513813,-0.3544894888392927
2.0355801104972375,-0.48405754682309365
2.0689502762430942,-0.513080161910308
2.1023204419889505,-0.4932055953256519
2.135690607734807,-0.47604215535377487
2.169060773480663,-0.4929817141554401
2.2024309392265193,-0.546961882669249
2.235801104972376,-0.6177812534889595
2.2691712707182323,-0.6765102087205003
2.3025414364640886,-0.7013432833456494
2.335911602209945,-0.6878996834260896
2.369281767955801,-0.6504822814954712
2.402651933701658,-0.6150237865545054
2.436022099447514,-0.6074520691394981
2.4693922651933704,-0.6421755004269234
2.5027624309392267,-0.7146586861158813
2.536132596685083,-0.8004739518885304
2.5695027624309392,-0.8614098723357909
2.602872928176796,-0.8573666878219424
2.636243093922652,-0.7608769702367426
2.6696132596685085,-0.5694947751715683
2.7029834254143648,-0.3108357596004055
2.736353591160221,-0.03663232020757821
2.7697237569060777,0.19405308237379956
2.803093922651934,0.3375059002697988
2.8364640883977903,0.385357893095203
2.8698342541436466,0.37303173732065087
2.903204419889503,0.3715114776979559
2.936574585635359,0.46384688668786234
2.969944751381216,0.7142578162962644
3.003314917127072,1.141047163928028
3.0366850828729284,1.7031233481453307
3.0700552486187846,2.3045363034549973
3.103425414364641,2.8148600840569458
3.1367955801104976,3.0987168234359865
3.170165745856354,3.046824343186409
3.20353591160221,2.6027298987869116
3.2369060773480665,1.781371567475454
3.2702762430939227,0.6759548511933248
3.3036464088397794,-0.5510685389422749
3.3370165745856357,-1.6961711006393358
3.370386740331492,-2.560308938635091
3.4037569060773483,-3.001764302261818
3.4371270718232045,-2.978913908881572
3.4704972375690613,-2.5649652853432037
3.5038674033149175,-1.9253282569998162
3.537237569060774,-1.2632344452171138
3.57060773480663,-0.7532627874329193
3.6039779005524863,-0.4881843196548864
3.6373480662983426,-0.45881878874159965
3.6707182320441993,-0.5722286514352991
3.7040883977900556,-0.6976861357766211
3.737458563535912,-0.7198447018983386
3.770828729281768,-0.5783021760964568
3.8041988950276244,-0.2810826587023948
3.837569060773481,0.10842559039455973
3.8709392265193374,0.5015294734764267
3.9043093922651937,0.8173990902253594
3.93767955801105,1.0072522051671422
3.9710497237569062,1.0632310719473008
4.0044198895027625,1.012191495690336
4.037790055248619,0.8993823019477987
4.071160220994475,0.7689776183333029
4.104530386740332,0.648091834603469
4.1379005524861885,0.539234960187598
4.171270718232044,0.4237171288268257
4.204640883977901,0.27527321418804235
4.238011049723757,0.07927717701238705
4.271381215469614,-0.15054582162122873
4.30475138121547,-0.36695626092411626
4.338121546961326,-0.5012713571623497
4.371491712707183,-0.49084611078090196
4.404861878453039,-0.3114641804405571
4.438232044198895,0.0009707780791684169
4.471602209944752,0.35277736195897025
4.504972375690608,0.6222996349145198
4.538342541436465,0.7071940264106328
4.5717127071823205,0.5690461969042498
4.605082872928177,0.25401534443423385
4.638453038674034,-0.1223507706254431
4.67182320441989,-0.42180984961122253
4.7051933701657465,-0.5420189069800293
4.738563535911602,-0.4606597233217402
4.771933701657459,-0.2443022806491201
4.805303867403316,-0.017042575527416563
4.8386740331491715,0.09716488065985009
4.872044198895028,0.03169705764843576
4.905414364640884,-0.19305053222245228
4.938784530386741,-0.4814775289483337
4.972154696132597,-0.7098526232124299
5.005524861878453,-0.7850419349281342
5.03889502762431,-0.685806184260524
5.072265193370166,-0.46700253567897504
5.105635359116023,-0.22645431894112142
5.1390055248618784,-0.05332645689709337
5.172375690607735,0.014593601184282488
5.205745856353592,0.003542975249456789
5.239116022099448,-0.01770804763003654
5.272486187845304,0.0206748813096657
5.30585635359116,0.15174814216770868
5.339226519337017,0.3572582681638813
5.372596685082874,0.5818200070948933
5.4059668508287295,0.7650985873508626
5.439337016574586,0.872423805181128
5.472707182320442,0.9071034005991059
5.506077348066299,0.8997636058405156
5.5394475138121555,0.8836361527323338
5.572817679558011,0.871775967669703
5.606187845303868,0.8492225994922058
5.639558011049724,0.7829806136609778
5.672928176795581,0.6422754993474368
5.706298342541437,0.4169865576552655
5.739668508287293,0.12509706343747123
5.77303867403315,-0.19277883492813427
5.806408839779006,-0.48734551554228644
5.839779005524862,-0.716314997025971
5.873149171270718,-0.8565863112508723
5.906519337016575,-0.9102939665729856
5.939889502762432,-0.9037474816021643
5.9732596685082875,-0.8790593124429292
6.006629834254144,-0.8796949409409925
6.04,-0.9338894355309009
6.073370165745857,-1.042309510226303
6.1067403314917135,-1.176031727626221
6.140110497237569,-1.2869356447751341
6.173480662983426,-1.3267497756480566
6.206850828729282,-1.266506377226434
6.240220994475139,-1.1075761297355022
6.273591160220995,-0.8791189541148081
6.306961325966851,-0.6229461456234622
6.340331491712708,-0.37259932189019357
6.373701657458564,-0.13630863037067684
6.40707182320442,0.10785441023671931
6.440441988950277,0.40130486887260913
6.473812154696133,0.7820733609874615
6.50718232044199,1.258807656793372
6.5405524861878455,1.7932925998519833
6.573922651933702,2.3011190148644487
6.607292817679559,2.6735723187956455
6.640662983425415,2.8146740878489256
6.674033149171271,2.679273399075898
6.707403314917127,2.2952339084279
6.740773480662984,1.7575575577530207
6.774143646408841,1.1938241716083053
6.8075138121546965,0.7139856515939021
6.840883977900553,0.3666365192884808
6.874254143646409,0.12291425877759779
6.907624309392266,-0.10271668139622814
6.9409944751381225,-0.40336896815241824
6.974364640883978,-0.8257799582007115
7.007734806629835,-1.3387095278338188
7.041104972375691,-1.8406280107113668
7.074475138121548,-2.203881373794829
7.107845303867403,-2.33342270628813
7.14121546961326,-2.210275537640649
7.174585635359117,-1.897943093070671
7.207955801104973,-1.5097827199351124
7.241325966850829,-1.1557858705291748
7.274696132596685,-0.8967959797169366
7.308066298342542,-0.7281359550539931
7.341436464088399,-0.597324323537866
7.3748066298342545,-0.44248889074264924
7.408176795580111,-0.2291469261558375
7.441546961325967,0.03303188292864087
7.474917127071824,0.29883976358205144
7.5082872928176805,0.5130706998445571
7.541657458563536,0.6374492544621734
7.575027624309393,0.6656881472922717
7.608397790055249,0.6220693020394028
7.641767955801106,0.5479961192314179
7.675138121546962,0.4854127554712247
7.708508287292818,0.46456181782079226
7.741878453038675,0.49873868810246064
7.775248618784531,0.5843991276137275
7.808618784530387,0.7036925941396788
7.841988950276244,0.8279786517704515
7.8753591160221,0.9229054712278227
7.908729281767957,0.956002907239257
7.9420994475138125,0.906014088426318
7.975469613259669,0.7708208609017788
8.008839779005525,0.5699265171688356
8.042209944751383,0.3391657746770963
8.075580110497238,0.11890726644119005
8.108950276243094,-0.05955524300679338
8.14232044198895,-0.18349459338324925
8.175690607734808,-0.25993968145297996
8.209060773480664,-0.30825647220527924
8.24243093922652,-0.347924903201642
8.275801104972377,-0.38764943700251786
8.309171270718233,-0.4212874871975118
8.342541436464089,-0.43261913177056455
8.375911602209946,-0.40634072729028503
8.409281767955802,-0.3392484189203627
8.442651933701658,-0.24531728397456373
8.476022099447514,-0.15157042763204284
8.509392265193371,-0.086628472039443
8.542762430939227,-0.0679179081396488
8.576132596685083,-0.09441375172238799
8.60950276243094,-0.1489037781926568
8.642872928176796,-0.20853196203530533
8.676243093922652,-0.2576024243030838
8.709613259668508,-0.29504121117976057
8.742983425414366,-0.331698839072201
8.776353591160222,-0.3786114520414804
8.809723756906077,-0.43321475079842825
8.843093922651935,-0.4727559857125655
8.87646408839779,-0.46093649355584887
8.909834254143647,-0.36639140633660544
8.943204419889504,-0.18397956103430305
8.97657458563536,0.05335403391304871
9.009944751381216,0.28074469080421016
9.043314917127072,0.4252341833337344
9.07668508287293,0.4373557476542066
9.110055248618785,0.31574323141605704
9.143425414364641,0.11255666058511152
9.176795580110499,-0.08393330338784362
9.210165745856354,-0.1830319433888571
9.24353591160221,-0.12793333501027854
9.276906077348068,0.08000287589443482
9.310276243093924,0.3787001865195619
9.34364640883978,0.665767715703959
9.377016574585635,0.834610727307995
9.410386740331493,0.8134700907217557
9.443756906077349,0.5935578870358574
9.477127071823205,0.23589882161683334
9.510497237569062,-0.14668007617868853
9.543867403314918,-0.42756010647419945
9.577237569060774,-0.5118500825203317
9.610607734806631,-0.3727295627507876
9.643977900552487,-0.06353501032686315
9.677348066298343,0.3013191123259364
9.710718232044199,0.590813489675957
9.744088397790057,0.7093353232023573
9.777458563535912,0.6332159894713795
9.810828729281768,0.41460364768195374
9.844198895027626,0.1507717089475555
9.877569060773482,-0.06565540769628495
9.910939226519337,-0.19016217890562698
9.944309392265193,-0.2415850127433041
9.97767955801105,-0.2825331570146846
10.011049723756907,-0.3770349806801769
10.044419889502763,-0.5491453833710321
10.07779005524862,-0.764798982414227
10.111160220994476,-0.9459358413148777
10.144530386740332,-1.0085621380158003
10.17790055248619,-0.9043628135167809
10.211270718232045,-0.6447129693198048
10.244640883977901,-0.2960693660167166
10.278011049723757,0.04923654636680945
10.311381215469615,0.3109579343582017
10.34475138121547,0.44907460246135905
10.378121546961326,0.47057143877267466
10.411491712707184,0.41539228619268087
10.44486187845304,0.3321831371394448
10.478232044198895,0.2573220698939163
10.511602209944753,0.20603240212881038
10.544972375690609,0.17612354321438478
10.578342541436465,0.15841363967825342
10.61171270718232,0.14628242804376576
10.645082872928178,0.13962996553094
10.678453038674034,0.14294283051206044
10.71182320441989,0.1603239207802293
10.745193370165747,0.19099061796159847
10.778563535911603,0.22744900308961594
10.811933701657459,0.2567106945405052
10.845303867403315,0.2636662309621336
10.878674033149172,0.23537442042281695
10.912044198895028,0.1651967935226887
10.945414364640884,0.05586983545958413
10.978784530386742,-0.07943554736149507
11.012154696132598,-0.21899272390860944
11.045524861878453,-0.33767564470669204
11.078895027624311,-0.4143784246439192
11.112265193370167,-0.4390520387887713
11.145635359116023,-0.41591749736550615
11.179005524861878,-0.3604978245482264
11.212375690607736,-0.2910902795946182
11.245745856353592,-0.21875421753501803
11.279116022099448,-0.14160371421012485
11.312486187845305,-0.04760497170359936
11.345856353591161,0.07447020089693598
11.379226519337017,0.22145606147770727
11.412596685082875,0.3678064146335858
11.44596685082873,0.46969639541402725
11.479337016574586,0.4818309736233256
11.512707182320442,0.38033244570135033
11.5460773480663,0.18035251764411486
11.579447513812156,-0.06208320046711809
11.612817679558011,-0.2676679622439699
11.646187845303869,-0.3647404542190672
11.679558011049725,-0.3198477128061436
11.71292817679558,-0.1532618626398493
11.746298342541436,0.06859610251698241
11.779668508287294,0.26081660690873965
11.81303867403315,0.35497346677668845
11.846408839779006,0.32523936979562534
11.879779005524863,0.19415487040833176
11.91314917127072,0.016816881622402146
11.946519337016575,-0.14721470361932673
11.979889502762433,-0.2595179149098247
12.013259668508288,-0.31340159237552223
12.046629834254144,-0.32567575877276855
12.08,-0.31631165741464806
12.113370165745858,-0.2894164530714725
12.146740331491714,-0.2280808476989951
12.18011049723757,-0.10741180531843922
12.213480662983427,0.08123968695027961
12.246850828729283,0.30982457125283297
12.280220994475139,0.511548345261355
12.313591160220996,0.6026621865341992
12.346961325966852,0.5201088766691961
12.380331491712708,0.2569204281479396
12.413701657458564,-0.1235255536975701
12.447071823204421,-0.5038751107031093
12.480441988950277,-0.7545523353431359
12.513812154696133,-0.7833389163295122
12.54718232044199,-0.5714439395446099
12.580552486187846,-0.18093595369051987
12.613922651933702,0.26889753494028823
12.64729281767956,0.6456752667746335
12.680662983425416,0.8502499733635905
12.714033149171271,0.84733878223785
12.747403314917127,0.6700981757148
12.780773480662985,0.3992865734251549
12.81414364640884,0.12745771156688707
12.847513812154697,-0.07649990788959594
12.880883977900554,-0.1887012993962243
12.91425414364641,-0.23053353486258685
12.947624309392266,-0.24994648279325302
12.980994475138122,-0.29340187949044555
13.01436464088398,-0.38126832068454625
13.047734806629835,-0.49716349153352246
13.081104972375691,-0.595200809543507
13.114475138121549,-0.6212351280818449
13.147845303867404,-0.5384505790622216
13.18121546961326,-0.34632173494549656
13.214585635359118,-0.0852683395684835
13.247955801104974,0.17468416748099333
13.28132596685083,0.35697677356885227
13.314696132596685,0.40525560009722067
13.348066298342543,0.30475968339283727
13.381436464088399,0.09092344701428667
13.414806629834255,-0.1586396260041462
13.448176795580112,-0.3474687517418644
13.481546961325968,-0.3919861330297775
13.514917127071824,-0.25073887924435956
13.548287292817681,0.059666069119028324
13.581657458563537,0.46784408524190924
13.615027624309393,0.8683532352626365
13.648397790055249,1.1516271902211592
13.681767955801106,1.2329383453685578
13.715138121546962,1.072885129889903
13.748508287292818,0.6864230694299147
13.781878453038676,0.14065204959476116
13.815248618784532,-0.45759874491176755
13.848618784530387,-0.9833853064351484
13.881988950276245,-1.3221870438743417
13.9153591160221,-1.3998922717403948
13.948729281767957,-1.2053824843046734
13.982099447513813,-0.7963439949763604
14.01546961325967,-0.28331878755202233
14.048839779005526,0.20454084190931066
14.082209944751382,0.5599889901443367
14.11558011049724,0.728771445789289
14.148950276243095,0.7194390392229402
14.182320441988951,0.5896672791659997
14.215690607734807,0.41703366102153877
14.249060773480664,0.2677419135424151
14.28243093922652,0.17561892679330776
14.315801104972376,0.13753786353714426
14.349171270718234,0.12395306850634431
14.38254143646409,0.09781443321672242
14.415911602209945,0.03331453280954679
14.449281767955803,-0.07255125748807664
14.482651933701659,-0.19905136239589377
14.516022099447515,-0.31072480714210565
14.54939226519337,-0.37224749188992123
14.582762430939228,-0.36328959362489627
14.616132596685084,-0.287696989310949
14.64950276243094,-0.17337089313988813
14.682872928176797,-0.06248724822662581
14.716243093922653,0.0047361365108143
14.749613259668509,0.006733371744238417
14.782983425414367,-0.0491749295160764
14.816353591160222,-0.12823398315557813
14.849723756906078,-0.18232695602389296
14.883093922651934,-0.17195360056545506
14.916464088397792,-0.08681449314219149
14.949834254143648,0.04520900319524199
14.983204419889503,0.16681339815810398
15.016574585635361,0.2159946637951273
15.049944751381217,0.15667668981729263
15.083314917127073,0.0007959361710873934
15.116685082872928,-0.1902426209920098
15.150055248618786,-0.3279663137286888
15.183425414364642,-0.33475809248434657
15.216795580110498,-0.18046309323520054
15.250165745856355,0.09984343724706773
15.283535911602211,0.4163574902494651
15.316906077348067,0.6595884630130947
15.350276243093925,0.7445361778666891
15.38364640883978,0.6442994779970167
15.417016574585636,0.39858705541922
15.450386740331492,0.09449729282168323
15.48375690607735,-0.17046145681450176
15.517127071823205,-0.3259215648852768
15.550497237569061,-0.3508833717015446
15.583867403314919,-0.27325654913975994
15.617237569060775,-0.1503202074632847
15.65060773480663,-0.04149130000257443
15.683977900552488,0.013967490162944166
15.717348066298344,0.0064702209982074954
15.7507182320442,-0.04768978958414402
15.784088397790056,-0.11836749394401207
15.817458563535913,-0.1749990476216746
15.85082872928177,-0.19639700335336902
15.884198895027625,-0.17507347929501502
15.917569060773483,-0.11679554186845728
15.950939226519338,-0.037044337642530595
15.984309392265194,0.044141176720140715
16.01767955801105,0.10783848223943795
16.051049723756908,0.1413252294918887
16.084419889502765,0.1412539132544349
16.11779005524862,0.11382335362134507
16.151160220994477,0.07185589165242334
16.18453038674033,0.030068859915761685
16.21790055248619,0.0006593106266542543
16.251270718232046,-0.009101117746107975
16.2846408839779,0.0029571915317645105
16.318011049723758,0.034738335781826404
16.351381215469615,0.08032152872655558
16.38475138121547,0.12986050048388065
16.418121546961327,0.17037266301775514
16.451491712707185,0.18906510834473794
16.48486187845304,0.17899973296593835
16.518232044198896,0.14414640851551336
16.551602209944754,0.09957044654584953
16.584972375690608,0.06438499942117559
16.618342541436466,0.04965844365726967
16.651712707182323,0.04788552954231137
16.685082872928177,0.03155726708116942
16.718453038674035,-0.035652919803480274
16.751823204419892,-0.17875085365193016
16.785193370165747,-0.39217872232718937
16.818563535911604,-0.6325070695334147
16.851933701657458,-0.8290505678063713
16.885303867403316,-0.9095078119130245
16.918674033149173,-0.8297316794106406
16.952044198895027,-0.5939884583319391
16.985414364640885,-0.25609305447152664
17.018784530386743,0.09943401764336203
17.052154696132597,0.38795851755218175
17.085524861878454,0.5538206031889427
17.118895027624312,0.585909804248605
17.152265193370166,0.514360087223415
17.185635359116024,0.39171501602517034
17.21900552486188,0.26856881045847797
17.252375690607735,0.17525330753223886
17.285745856353593,0.11709548267842812
17.31911602209945,0.08335726166430217
17.352486187845304,0.06303615325284928
