Frequency (Hz),Amplitude
0.0,2.162859587560585
0.01978021978021978,2.163518981325978
0.03956043956043956,2.1654933954652718
0.05934065934065934,2.168771572722372
0.07912087912087912,2.1733348971474835
0.0989010989010989,2.179157609043389
0.11868131868131868,2.1862070975808408
0.13846153846153844,2.1944442632881795
0.15824175824175823,2.203823941081838
0.17802197802197803,2.214295373405622
0.1978021978021978,2.2258027224121997
0.21758241758241756,2.2382856099423645
0.23736263736263735,2.2516796743025225
0.2571428571428572,2.265917133451214
0.2769230769230769,2.2809273451116434
0.2967032967032967,2.2966373554487767
0.31648351648351647,2.3129724292088465
0.3362637362637363,2.3298565555396102
0.35604395604395606,2.3472129250271334
0.3758241758241758,2.364964374743915
0.3956043956043956,2.383033799263568
0.4153846153846154,2.401344526629857
0.4351648351648351,2.419820659156881
0.45494505494505494,2.4383873796757256
0.4747252747252747,2.4569712244334783
0.4945054945054945,2.4755003243015317
0.5142857142857143,2.4939046162737406
0.5340659340659341,2.512116027447446
0.5538461538461538,2.5300686337973883
0.5736263736263736,2.547698796090729
0.5934065934065934,2.5649452752674184
0.6131868131868132,2.5817493295369647
0.6329670329670329,2.598054795334493
0.6527472527472528,2.6138081541459206
0.6725274725274726,2.6289585870636722
0.6923076923076923,2.6434580187780843
0.7120879120879121,2.6572611525513095
0.7318681318681318,2.67032549756445
0.7516483516483516,2.6826113898787884
0.7714285714285715,2.6940820081095733
0.7912087912087912,2.7047033847784867
0.810989010989011,2.7144444141883013
0.8307692307692308,2.7232768575518835
0.8505494505494506,2.7311753460059696
0.8703296703296702,2.7381173820492566
0.8901098901098901,2.744083339862177
0.9098901098901099,2.749056464892575
0.9296703296703297,2.753022873025912
0.9494505494505494,2.7559715495997223
0.9692307692307692,2.757894348469062
0.989010989010989,2.758785991281431
1.0087912087912088,2.7586440670751444
1.0285714285714287,2.757469032273365
1.0483516483516484,2.7552642111062604
1.0681318681318681,2.752035796454461
1.087912087912088,2.7477928510677323
1.1076923076923075,2.7425473090724086
1.1274725274725275,2.7363139776382903
1.1472527472527472,2.7291105386300147
1.1670329670329669,2.7209575500179177
1.1868131868131868,2.7118784467681394
1.2065934065934065,2.701899540870442
1.2263736263736265,2.6910500200937184
1.2461538461538462,2.679361944982575
1.2659340659340659,2.666870243522751
1.2857142857142858,2.6536127028080094
1.3054945054945055,2.6396299569355133
1.3252747252747252,2.62496547024059
1.3450549450549452,2.6096655148550525
1.3648351648351649,2.593779141436258
1.3846153846153846,2.577358141767986
1.4043956043956045,2.5604570017807524
1.4241758241758242,2.5431328433807012
1.443956043956044,2.525445353316854
1.4637362637362636,2.507456697161027
1.4835164835164834,2.489231416329349
1.5032967032967033,2.470836305947901
1.523076923076923,2.4523402712663627
1.542857142857143,2.4338141602654826
1.5626373626373626,2.415330570099415
1.5824175824175823,2.3969636250777793
1.6021978021978023,2.378788724041268
1.621978021978022,2.360882255234968
1.6417582417582417,2.343321277151951
1.6615384615384616,2.3261831643209443
1.6813186813186813,2.309545217657169
1.7010989010989013,2.293484239791426
1.720879120879121,2.278076076738616
1.7406593406593405,2.2633951283533253
1.7604395604395604,2.249513831226334
1.7802197802197801,2.236502118968755
1.7999999999999998,2.224426866164022
1.8197802197802198,2.2133513235830513
1.8395604395604395,2.2033345534850417
1.8593406593406594,2.1944308748876358
1.879120879120879,2.186689329505632
1.8989010989010988,2.1801531795491087
1.9186813186813187,2.174859448673241
1.9384615384615385,2.1708385170331157
1.9582417582417584,2.168113780592595
1.978021978021978,2.166701383569552
1.9978021978021978,2.166610031207414
2.0175824175824175,2.167840888011026
2.0373626373626372,2.170387564269518
2.0571428571428574,2.1742361912259938
2.076923076923077,2.1793655827728315
2.096703296703297,2.1857474791817615
2.1164835164835165,2.193346866241011
2.1362637362637362,2.2021223613695806
2.1560439560439564,2.2120266568866875
2.175824175824176,2.2230070096772097
2.195604395604396,2.235005766024237
2.215384615384615,2.247960910359678
2.2351648351648348,2.261806627070011
2.254945054945055,2.2764738652238066
2.2747252747252746,2.2918908970854504
2.2945054945054943,2.307983862465531
2.314285714285714,2.324677292253588
2.3340659340659338,2.341894605811284
2.353846153846154,2.3595585782114763
2.3736263736263736,2.3775917745410307
2.3934065934065933,2.395916949606531
2.413186813186813,2.4144574123676543
2.4329670329670328,2.433137355260715
2.452747252747253,2.4518821492616927
2.4725274725274726,2.4706186060784794
2.4923076923076923,2.4892752092665704
2.512087912087912,2.507782316344683
2.5318681318681318,2.5260723341629063
2.5516483516483515,2.544079869862791
2.5714285714285716,2.5617418597824577
2.5912087912087913,2.5789976786158832
2.610989010989011,2.5957892310481117
2.6307692307692307,2.612061027969016
2.6505494505494505,2.62776024922829
2.6703296703296706,2.642836794741625
2.6901098901098903,2.6572433255999606
2.70989010989011,2.6709352966752467
2.7296703296703297,2.6838709820615225
2.7494505494505495,2.6960114945422977
2.769230769230769,2.7073208001360536
2.7890109890109893,2.717765728642445
2.808791208791209,2.727315980992998
2.8285714285714287,2.735944134101998
2.8483516483516484,2.743625643815375
2.8681318681318677,2.7503388464675558
2.887912087912088,2.756064959477415
2.9076923076923076,2.7607880813438834
2.9274725274725273,2.764495191338724
2.947252747252747,2.76717614913733
2.9670329670329667,2.768823694577142
2.986813186813187,2.7694334476862648
3.0065934065934066,2.76900390908178
3.0263736263736263,2.7675364607959088
3.046153846153846,2.7650353675489128
3.0659340659340657,2.7615077784480997
3.085714285714286,2.756963729052946
3.1054945054945056,2.7514161437047076
3.1252747252747253,2.744880837975211
3.145054945054945,2.7373765210419654
3.1648351648351647,2.7289247977446687
3.184615384615385,2.7195501700203875
3.2043956043956046,2.7092800373505743
3.2241758241758243,2.6981446957808846
3.243956043956044,2.686177334994445
3.2637362637362637,2.673414032829222
3.2835164835164834,2.6598937465301686
3.3032967032967036,2.6456582999162723
3.3230769230769233,2.6307523655210066
3.342857142857143,2.615223440632461
3.3626373626373627,2.5991218160170924
3.3824175824175824,2.5825005359596838
3.4021978021978025,2.5654153480939232
3.4219780219780223,2.547924641336095
3.441758241758242,2.5300893700726017
3.4615384615384617,2.5119729625963343
3.481318681318681,2.493641211643974
3.501098901098901,2.475162144765379
3.520879120879121,2.4566058721677373
3.5406593406593405,2.4380444096336027
3.5604395604395602,2.419551474127953
3.58021978021978,2.4012022498003893
3.5999999999999996,2.3830731222718633
3.61978021978022,2.3652413793872116
3.6395604395604395,2.34778487703266
3.659340659340659,2.330781669174168
3.679120879120879,2.314309601979492
3.6989010989010986,2.2984458727472767
3.718681318681319,2.2832665553782756
3.7384615384615385,2.2688460952720884
3.758241758241758,2.2552567777933987
3.7780219780219784,2.2425681757860034
3.7978021978021976,2.230846582969123
3.8175824175824173,2.2201544413651146
3.8373626373626375,2.2105497721058236
3.8571428571428568,2.2020856199660046
3.876923076923077,2.1948095226949142
3.896703296703296,2.1887630165853165
3.916483516483517,2.1839811896696304
3.936263736263736,2.1804922934236997
3.956043956043956,2.178317422873042
3.9758241758241755,2.177470273550667
3.9956043956043956,2.1779569818963234
4.015384615384615,2.1797760534952406
4.035164835164835,2.182918381134384
4.054945054945055,2.1873673521312034
4.0747252747252745,2.193099041896528
4.094505494505494,2.2000824883598575
4.114285714285715,2.2082800398288533
4.134065934065934,2.217647767170709
4.153846153846154,2.228135929956061
4.173626373626373,2.2396894854301297
4.193406593406594,2.2522486288717913
4.213186813186813,2.2657493540403575
4.232967032967033,2.2801240229400364
4.252747252747253,2.295301934983876
4.2725274725274724,2.311209886732656
4.292307692307692,2.327772714638905
4.312087912087913,2.344913814562551
4.331868131868132,2.362555633174011
4.351648351648352,2.380620127663184
4.371428571428571,2.3990291913835087
4.391208791208792,2.417705044147708
4.410989010989011,2.4365705868344802
4.43076923076923,2.455549720756383
4.450549450549451,2.4745676328774127
4.4703296703296695,2.4935510484617542
4.49010989010989,2.5124284530957186
4.50989010989011,2.53113028626679
4.52967032967033,2.5495891088251557
4.549450549450549,2.567739746709802
4.569230769230769,2.585519413310503
4.589010989010989,2.602867812773567
4.608791208791209,2.6197272264561473
4.628571428571428,2.6360425846039837
4.648351648351649,2.651761525179253
4.6681318681318675,2.6668344416074907
4.687912087912088,2.681214521051673
4.707692307692308,2.694857774661951
4.7274725274725276,2.707723061095334
4.747252747252747,2.7197721044532903
4.767032967032967,2.7309695076479317
4.786813186813187,2.7412827620809743
4.806593406593407,2.750682254403571
4.826373626373626,2.759141271020153
4.846153846153847,2.766636000904265
4.8659340659340655,2.773145537209385
4.885714285714286,2.7786518780816545
4.905494505494506,2.7831399270130253
4.9252747252747255,2.786597493012775
4.945054945054945,2.7890152908199872
4.964835164835165,2.790386941330372
4.984615384615385,2.790708972364675
5.004395604395604,2.7899808198636187
5.024175824175824,2.7882048295536532
5.043956043956045,2.7853862590884066
5.0637362637362635,2.781533280631082
5.083516483516483,2.776656983802889
5.103296703296703,2.7707713788798345
5.123076923076923,2.7638934000750384
5.142857142857143,2.756042908694094
5.162637362637362,2.7472426958964538
5.182417582417583,2.737518484734959
5.2021978021978015,2.726898931078117
5.221978021978022,2.7154156229431976
5.241758241758242,2.703103077683536
5.2615384615384615,2.689998736378145
5.281318681318681,2.676142954666182
5.301098901098901,2.6615789891519794
5.320879120879121,2.64635297837858
5.340659340659341,2.6305139172286247
5.36043956043956,2.614113623462403
5.380219780219781,2.5972066949452683
5.3999999999999995,2.579850455952387
5.41978021978022,2.5621048907721597
5.43956043956044,2.5440325626644595
5.4593406593406595,2.525698516073175
5.479120879120879,2.5071701598511007
5.498901098901099,2.4885171291402983
5.518681318681319,2.469811123472292
5.538461538461538,2.4511257186253457
5.558241758241758,2.4325361498142564
5.578021978021979,2.4141190639093977
5.5978021978021975,2.395952238603026
5.617582417582418,2.3781142667800026
5.637362637362637,2.360684204823062
5.6571428571428575,2.3437411842029516
5.676923076923077,2.3273639864805156
5.696703296703297,2.311630582782305
5.716483516483517,2.2966176398978435
5.736263736263735,2.2823999963665353
5.756043956043956,2.2690501132457532
5.775824175824176,2.2566375056347097
5.795604395604395,2.2452281624131
5.815384615384615,2.234883962970055
5.835164835164835,2.2256621008676896
5.854945054945055,2.217614525320701
5.874725274725275,2.2107874119958546
5.894505494505494,2.2052206748689986
5.914285714285715,2.200947530663422
5.934065934065933,2.1979941266982532
5.953846153846154,2.1963792417927603
5.973626373626374,2.196114068230515
5.993406593406593,2.197202080747598
6.013186813186813,2.199638996163428
6.032967032967033,2.203412824738695
6.052747252747253,2.208504011754781
6.072527472527473,2.214885665299572
6.092307692307692,2.222523863946896
6.112087912087913,2.2313780360429507
6.131868131868131,2.2414014007503216
6.151648351648352,2.252541459903796
6.171428571428572,2.2647405291230758
6.191208791208791,2.2779362964951013
6.210989010989011,2.2920623974430026
6.230769230769231,2.3070489950786657
6.2505494505494505,2.3228233563144487
6.270329670329671,2.3393104152043707
6.29010989010989,2.356433316311769
6.309890109890111,2.374113932282248
6.329670329670329,2.392273351169585
6.349450549450549,2.410832330363404
6.36923076923077,2.429711715159439
6.3890109890109885,2.448832821068375
6.408791208791209,2.4681177798620926
6.428571428571428,2.487489850101258
6.4483516483516485,2.5068736934798284
6.468131868131868,2.5261956187688495
6.487912087912088,2.545383795458956
6.507692307692308,2.5643684394035726
6.527472527472527,2.583081972871404
6.547252747252747,2.6014591614438913
6.567032967032967,2.6194372301577253
6.5868131868131865,2.6369559612087783
6.606593406593407,2.653957775415545
6.626373626373626,2.6703877994977665
6.6461538461538465,2.6861939210694596
6.665934065934065,2.701326833082006
6.685714285714286,2.7157400692882905
6.705494505494506,2.7293900321378555
6.725274725274725,2.7422360143582623
6.745054945054945,2.7542402153322834
6.764835164835165,2.7653677532447802
6.7846153846153845,2.775586673848638
6.804395604395605,2.784867956585333
6.824175824175824,2.7931855186931
6.8439560439560445,2.8005162178431875
6.863736263736263,2.8068398537620975
6.883516483516484,2.812139169223721
6.903296703296704,2.8163998507292822
6.923076923076923,2.819610529133973
6.942857142857143,2.821762780425573
6.962637362637362,2.8228511268122993
6.9824175824175825,2.822873038231995
7.002197802197802,2.8218289343529506
7.021978021978022,2.8197221870963625
7.041758241758242,2.8165591236707312
7.061538461538461,2.8123490300684035
7.081318681318681,2.807104154933162
7.101098901098901,2.8008397136638012
7.1208791208791204,2.7935738925712106
7.140659340659341,2.785327852854606
7.16043956043956,2.776125734104873
7.1802197802197805,2.7659946569787253
7.199999999999999,2.754964724615322
7.21978021978022,2.743069022286126
7.23956043956044,2.730343614678197
7.259340659340659,2.7168275401101156
7.279120879120879,2.702562800867331
7.298901098901099,2.6875943487197644
7.318681318681318,2.6719700645492876
7.338461538461539,2.6557407308673153
7.358241758241758,2.6389599958465033
7.3780219780219785,2.621684327324488
7.397802197802197,2.6039729550671415
7.417582417582418,2.58588779940571
7.437362637362638,2.567493384193451
7.457142857142857,2.5488567318686908
7.476923076923077,2.530047238272119
7.496703296703297,2.511136524756721
7.516483516483516,2.4921982650623047
7.536263736263736,2.47330798441689
7.556043956043957,2.454542828391808
7.575824175824176,2.4359812991926058
7.595604395604395,2.417702957333431
7.615384615384615,2.399788087035184
7.635164835164835,2.382317324224331
7.654945054945055,2.3653712467020083
7.674725274725275,2.349029926909441
7.694505494505494,2.3333724487344556
7.7142857142857135,2.31847639097553
7.734065934065935,2.304417281380324
7.753846153846154,2.291268026570053
7.7736263736263735,2.279098324597924
7.793406593406592,2.2679740683047034
7.813186813186814,2.257956748951436
7.832967032967034,2.249102870742967
7.852747252747252,2.241463387718758
7.872527472527472,2.2350831749961806
7.892307692307693,2.2300005464331
7.912087912087912,2.2262468303793517
7.931868131868132,2.2238460142847503
7.951648351648351,2.2228144675315704
7.971428571428572,2.2231607500032777
7.991208791208791,2.224885511665753
8.010989010989011,2.227981485927909
8.03076923076923,2.232433576894195
8.05054945054945,2.238219037963263
8.07032967032967,2.2453077367053362
8.09010989010989,2.2536624986953213
8.10989010989011,2.263239521097382
8.129670329670331,2.2739888453664188
8.149450549450549,2.2858548774972314
8.169230769230769,2.298776943821153
8.189010989010988,2.312689870398568
8.20879120879121,2.3275245745336286
8.22857142857143,2.3432086577727835
8.248351648351647,2.3596669908593135
8.268131868131867,2.3768222824142087
8.287912087912087,2.394595624514459
8.307692307692308,2.4129070097677627
8.327472527472528,2.4316758158713094
8.347252747252746,2.45082125494169
8.367032967032966,2.4702627860759594
8.386813186813187,2.489920490626619
8.406593406593407,2.5097154105356303
8.426373626373627,2.529569850771978
8.446153846153845,2.549407647462069
8.465934065934066,2.569154403702654
8.485714285714286,2.58873769531971
8.505494505494505,2.6080872489997984
8.525274725274725,2.627135095292241
8.545054945054945,2.6458156989775823
8.564835164835165,2.6640660692374416
8.584615384615384,2.681825851956961
8.604395604395604,2.6990374063563816
8.624175824175826,2.7156458679942554
8.643956043956043,2.7315992000189584
8.663736263736263,2.746848234375499
8.683516483516483,2.7613467045062388
8.703296703296704,2.775051270920532
8.723076923076924,2.7879215408532736
8.742857142857142,2.7999200830866724
8.762637362637362,2.811012438875268
8.782417582417583,2.8211671297909837
8.802197802197803,2.8303556631936257
8.821978021978023,2.838552535931343
8.84175824175824,2.8457352367856115
8.86153846153846,2.851884248094702
8.881318681318682,2.856983046917674
8.901098901098901,2.8610181060367452
8.920879120879121,2.863978895038527
8.940659340659339,2.865857881662343
8.96043956043956,2.8666505335567045
8.98021978021978,2.8663553205407575
9.0,2.864973717425962
9.01978021978022,2.8625102074128406
9.03956043956044,2.858972286037638
9.05934065934066,2.854370465602664
9.079120879120879,2.8487182799813735
9.098901098901099,2.842032289643525
9.11868131868132,2.834332086695859
9.138461538461538,2.8256402996789323
9.158241758241758,2.8159825977994326
9.178021978021977,2.8053876942087776
9.197802197802199,2.793887347862056
9.217582417582419,2.7815163634044056
9.237362637362637,2.7683125884356765
9.257142857142856,2.754316907395514
9.276923076923078,2.7395732311915246
9.296703296703297,2.724128481560665
9.316483516483517,2.7080325690099194
9.336263736263735,2.69133836302659
9.356043956043957,2.6741016530826065
9.375824175824176,2.6563810987831453
9.395604395604396,2.638238167331305
9.415384615384616,2.619737056301359
9.435164835164835,2.600944599539883
9.454945054945055,2.5819301538544006
9.474725274725275,2.562765464012569
9.494505494505495,2.5435245034737393
9.514285714285714,2.5242832882221795
9.534065934065934,2.5051196610836914
9.553846153846154,2.4861130440023613
9.573626373626373,2.4673441559502574
9.593406593406593,2.4488946944595362
9.613186813186815,2.4308469792215934
9.632967032967032,2.4132835568074635
9.652747252747252,2.3962867663394207
9.672527472527472,2.379938266890117
9.692307692307693,2.3643185284991888
9.712087912087913,2.349506289962755
9.731868131868131,2.3355779879398515
9.75164835164835,2.3226071633894216
9.771428571428572,2.3106638528427355
9.791208791208792,2.2998139734582668
9.810989010989012,2.290118712114701
9.83076923076923,2.281633929883202
9.850549450549451,2.2744095939912827
9.87032967032967,2.2684892497637197
9.89010989010989,2.263909544932229
9.90989010989011,2.260699818100217
9.92967032967033,2.258881762017052
9.94945054945055,2.25846917067857
9.96923076923077,2.259467777185152
9.989010989010989,2.2618751868465377
10.008791208791209,2.2656809073462374
10.028571428571428,2.270866475006693
10.048351648351648,2.2774056734786914
10.068131868131868,2.2852648386581396
10.08791208791209,2.294403241437072
10.107692307692307,2.3047735381247505
10.127472527472527,2.316322277095393
10.147252747252747,2.3289904494627387
10.167032967032966,2.342714071342028
10.186813186813188,2.357424785501039
10.206593406593406,2.3730504708595297
10.226373626373626,2.389515849291756
10.246153846153845,2.4067430804295746
10.265934065934067,2.4246523365641344
10.285714285714286,2.4431623512163267
10.305494505494504,2.4621909364159436
10.325274725274724,2.4816554651340783
10.345054945054946,2.5014733166070324
10.364835164835165,2.521562283439809
10.384615384615385,2.541840940364972
10.404395604395603,2.5622289753516863
10.424175824175824,2.5826474844120635
10.443956043956044,2.6030192319481786
10.463736263736264,2.623268878836971
10.483516483516484,2.643323180679922
10.503296703296703,2.663111158768493
10.523076923076923,2.6825642463530235
10.542857142857143,2.7016164127708455
10.562637362637362,2.7202042679041414
10.582417582417584,2.7382671493143835
10.602197802197802,2.755747194250077
10.621978021978022,2.7725893985581034
10.641758241758241,2.788741664354943
10.661538461538463,2.804154838137813
10.681318681318682,2.818782740843944
10.7010989010989,2.832582191200117
