Time (s),Filtered Signal
0.0,0.011619396668957088
0.0334075723830735,-0.03847875615177202
0.066815144766147,-0.08010411471513335
0.1002227171492205,-0.10588178361108298
0.133630289532294,-0.11097250094396907
0.1670378619153675,-0.09458952588666948
0.200445434298441,-0.06096095275130737
0.23385300668151449,-0.01891668141537838
0.267260579064588,0.020273973805986608
0.3006681514476615,0.046327971915155544
0.334075723830735,0.053378428980951076
0.3674832962138085,0.04195840332001993
0.400890868596882,0.01864133156303458
0.4342984409799555,-0.006535349202556067
0.46770601336302897,-0.02377535924643659
0.5011135857461025,-0.026844493858805937
0.534521158129176,-0.014770466262737739
0.5679287305122495,0.008531414229724714
0.601336302895323,0.036274825720996336
0.6347438752783965,0.06143852455488369
0.66815144766147,0.07891503901311046
0.7015590200445435,0.08645883201540175
0.734966592427617,0.08436441254761227
0.7683741648106905,0.07437804234784803
0.801781737193764,0.058580721066235415
0.8351893095768375,0.03879295935991653
0.868596881959911,0.01659754956943346
0.9020044543429845,-0.006344443073210926
0.9354120267260579,-0.02814006404219491
0.9688195991091315,-0.046920575916722176
1.002227171492205,-0.06138734018985414
1.0356347438752784,-0.07127372152588729
1.069042316258352,-0.07738165619870065
1.1024498886414256,-0.08113165201383572
1.135857461024499,-0.08388413449984228
1.1692650334075725,-0.0864237883291116
1.202672605790646,-0.08886235780769261
1.2360801781737194,-0.09091616403244691
1.269487750556793,-0.09226825607334593
1.3028953229398665,-0.09270223486846303
1.33630289532294,-0.09190389719492353
1.3697104677060135,-0.0891144653784662
1.403118040089087,-0.08298020715862635
1.4365256124721606,-0.07185925408563207
1.469933184855234,-0.05455923074827934
1.5033407572383075,-0.031161765742225525
1.536748329621381,-0.003442735016845766
1.5701559020044544,0.025465814891261162
1.603563474387528,0.052146522200407365
1.6369710467706016,0.07424204634562064
1.670378619153675,0.0913791498054251
1.7037861915367485,0.10510594276051631
1.737193763919822,0.11775578971379276
1.7706013363028954,0.13075021512966514
1.804008908685969,0.14323955741030023
1.8374164810690425,0.15190637250166697
1.8708240534521159,0.1522162423834772
1.9042316258351895,0.14065101092657079
1.937639198218263,0.11688862916054601
1.9710467706013366,0.08481141531191498
2.00445434298441,0.0516983605490973
2.0378619153674835,0.025778470305281787
2.071269487750557,0.013107312832178556
2.1046770601336307,0.015101924499610122
2.138084632516704,0.02784141568442183
2.1714922048997773,0.04350308362189156
2.204899777282851,0.05338501165049836
2.2383073496659245,0.051277255375235906
2.271714922048998,0.03579084051532876
2.3051224944320716,0.01070329078187288
2.338530066815145,-0.01676915102374391
2.3719376391982183,-0.03898730646743499
2.405345211581292,-0.05089564708168944
2.4387527839643655,-0.051792537917249644
2.472160356347439,-0.0452379891573261
2.5055679287305126,-0.03731025043291842
2.538975501113586,-0.034103622076231396
2.5723830734966593,-0.03958551724992986
2.605790645879733,-0.054636666313236985
2.6391982182628064,-0.07746945430537161
2.67260579064588,-0.1049780985305644
2.7060133630289536,-0.13421300294034705
2.739420935412027,-0.16322422091511246
2.7728285077951007,-0.19092655682967652
2.806236080178174,-0.21619828223558474
2.8396436525612474,-0.2368775163145779
2.873051224944321,-0.24944343614256229
2.9064587973273945,-0.24986670181664902
2.939866369710468,-0.2354757868988483
2.9732739420935417,-0.20699310083584838
3.006681514476615,-0.16952029434913357
3.0400890868596884,-0.13148685523208278
3.073496659242762,-0.10144780009624486
3.1069042316258355,-0.08380704047990821
3.140311804008909,-0.07547548038188272
3.1737193763919826,-0.06555806811921627
3.207126948775056,-0.03911648505370455
3.2405345211581293,0.015872955907505877
3.273942093541203,0.10124786403253042
3.3073496659242765,0.2049503663460553
3.34075723830735,0.30389610607496587
3.3741648106904236,0.3736614556142236
3.407572383073497,0.4015311249168576
3.4409799554565703,0.39663647743131963
3.474387527839644,0.39080108938767066
3.5077951002227175,0.4270691011243963
3.541202672605791,0.538743019387104
3.5746102449888646,0.7274867986712463
3.608017817371938,0.9515058036001164
3.6414253897550113,1.131968211050277
3.674832962138085,1.1781654736740395
3.7082405345211584,1.0226683438886484
3.7416481069042318,0.651624081198059
3.7750556792873056,0.11607765871249494
3.808463251670379,-0.4818304470356221
3.8418708240534527,-1.0224060049254042
3.875278396436526,-1.4072016487560572
3.9086859688195994,-1.586805227754452
3.942093541202673,-1.5676057362465767
3.9755011135857465,-1.3980343409008607
4.00890868596882,-1.1436741557391088
4.042316258351893,-0.8636153814720828
4.075723830734967,-0.5970107245935078
4.109131403118041,-0.3619355765548491
4.142538975501114,-0.16253854023094558
4.1759465478841875,0.002061289997662047
4.209354120267261,0.1322728472793831
4.242761692650334,0.22748619794527866
4.276169265033408,0.2886886295379856
4.309576837416482,0.32102321064650946
4.342984409799555,0.3338521308907965
4.3763919821826285,0.33796209437810104
4.409799554565702,0.3415170271814245
4.443207126948775,0.34714263298332554
4.476614699331849,0.35183492699355434
4.510022271714923,0.34974931353523003
4.543429844097996,0.33631503439651195
4.5768374164810695,0.3114078153946832
4.610244988864143,0.27985429859215266
4.643652561247216,0.24901522248483773
4.67706013363029,0.22479422488678136
4.710467706013364,0.20828395317607049
4.743875278396437,0.19493146801608566
4.77728285077951,0.17676652139792864
4.810690423162584,0.14661154372601412
4.844097995545657,0.10214030094774697
4.877505567928731,0.04770878511634564
4.910913140311805,-0.00700667911800107
4.944320712694878,-0.05094989974232472
4.977728285077951,-0.07634109253894607
5.011135857461025,-0.08187220726008458
5.044543429844098,-0.07300748494352007
5.077951002227172,-0.0593583986416944
5.111358574610246,-0.050464046153241175
5.144766146993319,-0.05197656901557504
5.178173719376392,-0.06393780660863889
5.211581291759466,-0.08173854556819082
5.244988864142539,-0.099044848248495
5.278396436525613,-0.11110090334752366
5.311804008908687,-0.11677566277221894
5.34521158129176,-0.11848260279993832
5.378619153674833,-0.12023898048988774
5.412026726057907,-0.1250437333283555
5.445434298440981,-0.13299190809770847
5.478841870824054,-0.14104261352349623
5.512249443207128,-0.14444591702850612
5.545657015590201,-0.13901865579109207
5.579064587973274,-0.12312977071009248
5.612472160356348,-0.0985007595193936
5.645879732739422,-0.06954482884789848
5.679287305122495,-0.0416254900412503
5.712694877505569,-0.019027729485332757
5.746102449888642,-0.0034781308797104185
5.779510022271715,0.006233607425760413
5.812917594654789,0.013444706737010247
5.846325167037863,0.022002694111134487
5.879732739420936,0.034531501067053
5.91314031180401,0.051297122162075534
5.946547884187083,0.07011001756205917
5.979955456570156,0.08722227102508211
6.01336302895323,0.09872596548679473
6.046770601336304,0.10177735190735364
6.080178173719377,0.095167272913626
6.1135857461024505,0.07921410240311692
6.146993318485524,0.055375026171931366
6.180400890868597,0.0260634711197109
6.213808463251671,-0.005151729095148177
6.247216035634745,-0.033285917204318255
6.280623608017818,-0.052231440656962204
6.3140311804008915,-0.05603314328611847
6.347438752783965,-0.0409645057633853
6.380846325167038,-0.007559779290717708
6.414253897550112,0.03850130221149868
6.447661469933186,0.08738585825391368
6.481069042316259,0.1278553821281633
6.5144766146993325,0.1507670887540484
6.547884187082406,0.1519020206906011
6.581291759465479,0.13296401360016952
6.614699331848553,0.10043341624584771
6.648106904231627,0.06293261835275515
6.6815144766147,0.028354509272269738
6.7149220489977735,0.0019190551631700953
6.748329621380847,-0.014344403064155947
6.78173719376392,-0.020996314414978134
6.815144766146994,-0.020218293706593515
6.848552338530068,-0.015095918952025883
6.881959910913141,-0.009265905378492154
6.915367483296214,-0.006595875607397847
6.948775055679288,-0.010516644546056953
6.982182628062361,-0.022978464105079685
7.015590200445435,-0.04345927162041226
7.048997772828509,-0.06865871110456193
7.082405345211582,-0.09329507004088405
7.115812917594655,-0.11188827417708824
7.149220489977729,-0.12085539621523464
7.182628062360802,-0.11997485484797922
7.216035634743876,-0.11246040820910007
7.24944320712695,-0.10347883858545984
7.282850779510023,-0.09769440023310323
7.316258351893096,-0.0969665757881336
7.34966592427617,-0.09935360846017151
7.383073496659243,-0.09999926735114915
7.416481069042317,-0.09354532930636886
7.449888641425391,-0.0768981674340703
7.4832962138084635,-0.05094455811510226
7.516703786191537,-0.020313036037188193
7.550111358574611,0.008745201622657052
7.583518930957685,0.03134098290365731
7.616926503340758,0.04634676353246632
7.650334075723832,0.057017640133657274
7.683741648106905,0.06944817083084738
7.717149220489978,0.08947074326389416
7.750556792873052,0.11934856708568482
7.783964365256126,0.1557922661768771
7.817371937639199,0.19033282568815996
7.850779510022273,0.21209821307543006
7.884187082405346,0.2119770536112865
7.917594654788419,0.18648052289725356
7.951002227171493,0.13965022622032672
7.984409799554567,0.08211553966537397
8.01781737193764,0.027566690317679783
8.051224944320714,-0.01201876038270446
8.084632516703786,-0.03053829127720069
8.118040089086861,-0.029704073711210335
8.151447661469934,-0.018042539613386834
8.184855233853007,-0.007394462899298562
8.218262806236082,-0.008305358268542333
8.251670378619155,-0.026072854528903056
8.285077951002227,-0.05890118153956928
8.318485523385302,-0.09875576896798602
8.351893095768375,-0.13446880376207831
8.385300668151448,-0.1558320017995421
8.418708240534523,-0.15712685576199875
8.452115812917596,-0.13885559904148506
8.485523385300668,-0.10717699082266442
8.518930957683743,-0.07140626016468922
8.552338530066816,-0.040596198635839804
8.585746102449889,-0.02047433475278033
8.619153674832964,-0.011816065143519917
8.652561247216036,-0.010771824554567789
8.68596881959911,-0.01093376644924618
8.719376391982184,-0.006279823016834372
8.752783964365257,0.006191239950233976
8.78619153674833,0.02518951677684399
8.819599109131405,0.04573561990013243
8.853006681514477,0.06137904910289755
8.88641425389755,0.06710046208829035
8.919821826280625,0.06165135542915753
8.953229398663698,0.04828268246247073
8.98663697104677,0.03347228673127981
9.020044543429846,0.024128737449269286
9.053452115812918,0.024457498487339416
9.086859688195991,0.03389185974993878
9.120267260579066,0.047083766402734775
9.153674832962139,0.05606906730585497
9.187082405345212,0.05374523648744541
9.220489977728286,0.03716471023625175
9.25389755011136,0.009155179538617757
9.287305122494432,-0.02254206605026856
9.320712694877507,-0.048342651835044846
9.35412026726058,-0.06080995183028395
9.387527839643653,-0.05780396444497366
9.420935412026727,-0.04335226042751833
9.4543429844098,-0.02582077411917083
9.487750556792873,-0.014196206331719929
9.521158129175948,-0.01414373935327725
9.55456570155902,-0.025560623355875087
9.587973273942094,-0.04261539745817831
9.621380846325168,-0.05614923704742006
9.654788418708241,-0.05736390044929577
9.688195991091314,-0.04130792105039936
9.721603563474389,-0.008866691813381294
9.755011135857462,0.0334136235509071
9.788418708240535,0.07554632089855276
9.82182628062361,0.10753088317225758
9.855233853006682,0.12271612595784079
9.888641425389755,0.11983604261010715
9.92204899777283,0.10294036042139257
9.955456570155903,0.07926569091375703
9.988864142538976,0.05594802445906727
10.02227171492205,0.03700351554578733
10.055679287305123,0.021940111206755326
10.089086859688196,0.0066684069798491384
10.12249443207127,-0.013697104876047507
10.155902004454344,-0.04152808266748369
10.189309576837417,-0.07458587792102016
10.222717149220491,-0.10630771604191179
10.256124721603564,-0.1284269369409657
10.289532293986637,-0.13464607747365326
10.322939866369712,-0.12352933743206161
10.356347438752785,-0.09921260220405198
10.389755011135858,-0.06967044232001028
10.423162583518932,-0.04346906837350612
10.456570155902005,-0.02654227884423187
10.489977728285078,-0.02031626323024917
10.523385300668153,-0.021719434234397168
10.556792873051226,-0.024753099040474697
10.590200445434299,-0.022798579954573846
10.623608017817373,-0.010814209716730866
10.657015590200446,0.013145107548595866
10.69042316258352,0.04733091758837926
10.723830734966594,0.08664646756087037
10.757238307349667,0.12381014247982808
10.790645879732741,0.15108556128561101
10.824053452115814,0.1622007406411104
10.857461024498887,0.15399901869531063
10.890868596881962,0.1273834388067598
10.924276169265035,0.08725475097348788
10.957683741648108,0.04138501780542621
10.991091314031182,-0.0015361357175169839
11.024498886414255,-0.03417930312917538
11.057906458797328,-0.0525296717980199
11.091314031180403,-0.05691323401861917
11.124721603563476,-0.05172445820877614
11.158129175946549,-0.04385761653711107
11.191536748329623,-0.04026395934800428
11.224944320712696,-0.0454093834415451
11.25835189309577,-0.05955643965167512
11.291759465478844,-0.0786135354112053
11.325167037861917,-0.09574757880869857
11.35857461024499,-0.10419509098180388
11.391982182628064,-0.10007392933038148
11.425389755011137,-0.08387577616331585
11.45879732739421,-0.059881036916074624
11.492204899777285,-0.03377351052408631
11.525612472160358,-0.009711004580018981
11.55902004454343,0.011536064735908997
11.592427616926505,0.032292302338084146
11.625835189309578,0.05562491358612637
11.659242761692651,0.08223585470059278
11.692650334075726,0.10845755133902017
11.726057906458799,0.12674154686864916
11.759465478841872,0.12872299216722236
11.792873051224946,0.10947984572925266
11.82628062360802,0.07080276646683516
11.859688195991092,0.021642697726925664
11.893095768374167,-0.02473379886463588
11.92650334075724,-0.055697384676999924
11.959910913140313,-0.0640778237170522
11.993318485523387,-0.05070225287052308
12.02672605790646,-0.023627480165179144
12.060133630289533,0.005418231102160396
12.093541202672608,0.025700428942572937
12.12694877505568,0.031267448177245076
12.160356347438753,0.02246467135380538
12.193763919821828,0.004860542964702125
12.227171492204901,-0.013674102883362281
12.260579064587974,-0.026380152973752114
12.293986636971049,-0.03015226630809538
12.327394209354122,-0.026333692472724515
12.360801781737194,-0.019631327107770203
12.39420935412027,-0.015729209227551316
12.427616926503342,-0.018626906781103517
12.461024498886415,-0.028784352072101883
12.49443207126949,-0.04280841449985024
12.527839643652563,-0.054791339753078566
12.561247216035635,-0.05873928516751229
12.59465478841871,-0.05108112860838729
12.628062360801783,-0.03222081789387197
12.661469933184856,-0.006512238201145347
12.69487750556793,0.019289614522424253
12.728285077951004,0.038423405403226675
12.761692650334076,0.04639131684070162
12.795100222717151,0.04227556585737339
12.828507795100224,0.02873718236636995
12.861915367483297,0.010868423629865122
12.895322939866372,-0.005559773956005634
12.928730512249444,-0.01581842026987687
12.962138084632517,-0.017410730912003448
12.995545657015592,-0.01048375661405158
13.028953229398665,0.0025365636518737992
13.062360801781738,0.01788814162098831
13.095768374164813,0.03166489405124937
13.129175946547885,0.04088250681253603
13.162583518930958,0.04410274947322941
13.195991091314033,0.041473855542772796
13.229398663697106,0.034276614245776424
13.262806236080179,0.024258823569544778
13.296213808463254,0.01309922148400322
13.329621380846326,0.0022270030135594547
13.3630289532294,-0.007019716454099559
13.396436525612474,-0.013159194594105814
13.429844097995547,-0.014611652125926189
13.46325167037862,-0.010225805251841608
13.496659242761694,-0.00013172263440923768
13.530066815144767,0.013579993438416692
13.56347438752784,0.0269330055678474
13.596881959910915,0.03516629365775137
13.630289532293988,0.03455791365347183
13.66369710467706,0.0241450444467128
13.697104677060135,0.00638799339784273
13.730512249443208,-0.013745465701530783
13.763919821826281,-0.03097497779187149
13.797327394209356,-0.042103456280795336
13.830734966592429,-0.047302494944678246
13.864142538975502,-0.04951759555488277
13.897550111358576,-0.05228957795613349
13.93095768374165,-0.0572462782795446
13.964365256124722,-0.06274901016046348
13.997772828507797,-0.06450651974416059
14.03118040089087,-0.05780598019445228
14.064587973273943,-0.040086504680086336
14.097995545657017,-0.012458370778267265
14.13140311804009,0.020521918075973606
14.164810690423163,0.05247850902094907
14.198218262806238,0.07721903230351905
14.23162583518931,0.09013549261779902
14.265033407572384,0.08866351277988173
14.298440979955458,0.0721634123866437
14.331848552338531,0.04184527475491013
14.365256124721604,0.0010401652710527876
14.398663697104679,-0.04447050029807375
14.432071269487752,-0.0867197073258759
14.465478841870825,-0.11689256057719911
14.4988864142539,-0.12759134707525951
14.532293986636972,-0.11521438005923633
14.565701559020045,-0.08136816288030385
14.59910913140312,-0.03256420709619485
14.632516703786193,0.02177941467605084
14.665924276169266,0.07222122224261578
14.69933184855234,0.11186350864156146
14.732739420935413,0.13760576477827027
14.766146993318486,0.14975572410135046
14.79955456570156,0.15044977384987426
14.832962138084634,0.14183840269422576
14.866369710467707,0.12498738453008296
14.899777282850781,0.09995757394085289
14.933184855233854,0.06682633713293559
14.966592427616927,0.02688587973531407
15.0,-0.016808341627844604
