Time (s),Filtered Signal
0.0,0.01860397493389148
0.033370165745856356,-0.009282619714123438
0.06674033149171271,-0.04433036120628966
0.10011049723756907,-0.08876616663289438
0.13348066298342542,-0.1380314764666844
0.16685082872928178,-0.18217257835361397
0.20022099447513814,-0.21014336314328455
0.2335911602209945,-0.21488532654542536
0.26696132596685085,-0.19670283214734022
0.30033149171270723,-0.16333953194338932
0.33370165745856356,-0.12678859714915286
0.3670718232044199,-0.09840774207385825
0.4004419889502763,-0.08462245473053123
0.43381215469613266,-0.08508995710987112
0.467182320441989,-0.09392222418528609
0.5005524861878453,-0.1030919198753149
0.5339226519337017,-0.10620138739313063
0.5672928176795581,-0.10082051658584848
0.6006629834254145,-0.088516271342983
0.6340331491712707,-0.072952154443696
0.6674033149171271,-0.057328591720021464
0.7007734806629835,-0.042543944002552854
0.7341436464088398,-0.026868160164902167
0.7675138121546962,-0.007091587667942114
0.8008839779005525,0.01950771290685626
0.8342541436464089,0.05326323904592391
0.8676243093922653,0.09107910262313546
0.9009944751381216,0.12675449799802085
0.934364640883978,0.15275079113882248
0.9677348066298344,0.16294261802823162
1.0011049723756906,0.15537533228992131
1.0344751381215471,0.13379040759817273
1.0678453038674034,0.10692877070671442
1.1012154696132597,0.0854511394302805
1.1345856353591162,0.07746796366558248
1.1679558011049724,0.08459443635109029
1.201325966850829,0.10054796350746836
1.2346961325966852,0.11334164087782687
1.2680662983425415,0.11044383113987441
1.301436464088398,0.08470551794341737
1.3348066298342542,0.03828177607235348
1.3681767955801105,-0.017416634980218778
1.401546961325967,-0.06587026294522386
1.4349171270718233,-0.09189250422901521
1.4682872928176796,-0.08751544823087988
1.501657458563536,-0.054820397915673016
1.5350276243093923,-0.004738246661496394
1.5683977900552488,0.04728159640608431
1.601767955801105,0.08658875212733438
1.6351381215469614,0.10344948951467045
1.6685082872928179,0.09479210666355206
1.7018784530386741,0.06372953992360932
1.7352486187845306,0.01782378755761499
1.768618784530387,-0.032960343678526315
1.8019889502762432,-0.07820025125609208
1.8353591160220997,-0.10889796708950945
1.868729281767956,-0.11933208979121065
1.9020994475138122,-0.10856000311734183
1.9354696132596687,-0.08097365110851296
1.968839779005525,-0.04543538149600293
2.0022099447513813,-0.013021584551154403
2.0355801104972375,0.006024114340366175
2.0689502762430942,0.005193598331302129
2.1023204419889505,-0.016436625266923906
2.135690607734807,-0.054007984490328585
2.169060773480663,-0.09845633179192388
2.2024309392265193,-0.1394400131755312
2.235801104972376,-0.16869292711801329
2.2691712707182323,-0.18259052229367378
2.3025414364640886,-0.18285248526692507
2.335911602209945,-0.17494993249653215
2.369281767955801,-0.16478180007727533
2.402651933701658,-0.15512656194382002
2.436022099447514,-0.1437445629856341
2.4693922651933704,-0.12443918298618387
2.5027624309392267,-0.0909395656368537
2.536132596685083,-0.04173859095748277
2.5695027624309392,0.01703709454879584
2.602872928176796,0.07318733854893021
2.636243093922652,0.11474748317822
2.6696132596685085,0.13837921082384264
2.7029834254143648,0.15497822798557495
2.736353591160221,0.1878378061337437
2.7697237569060777,0.26188620381679156
2.803093922651934,0.3875511036001856
2.8364640883977903,0.5471281191823134
2.8698342541436466,0.692339576333272
2.903204419889503,0.7576940794748551
2.936574585635359,0.686552853549923
2.969944751381216,0.459193295091155
3.003314917127072,0.10906216523305427
3.0366850828729284,-0.2826133141191884
3.0700552486187846,-0.6138647328593316
3.103425414364641,-0.7998375462107549
3.1367955801104976,-0.8046648473374335
3.170165745856354,-0.6529658138377675
3.20353591160221,-0.41624059358349685
3.2369060773480665,-0.18128161034975512
3.2702762430939227,-0.015642208531177176
3.3036464088397794,0.0545734592590589
3.3370165745856357,0.04640219608191303
3.370386740331492,0.0032899707432755922
3.4037569060773483,-0.029792218742230897
3.4371270718232045,-0.026818537676991955
3.4704972375690613,0.011811431444471457
3.5038674033149175,0.06587598652101045
3.537237569060774,0.1102784460794542
3.57060773480663,0.12959887454661445
3.6039779005524863,0.12514949112379684
3.6373480662983426,0.11217266948821793
3.6707182320441993,0.10994036579721846
3.7040883977900556,0.1305680401934294
3.737458563535912,0.17223023922577915
3.770828729281768,0.21967449153268262
3.8041988950276244,0.25115667137671643
3.837569060773481,0.24806673769244095
3.8709392265193374,0.20275763053042792
3.9043093922651937,0.1214288022778796
3.93767955801105,0.021386178448927512
3.9710497237569062,-0.07565116161894381
4.0044198895027625,-0.15120659379026233
4.037790055248619,-0.19567573697948917
4.071160220994475,-0.21004977089142032
4.104530386740332,-0.2035436453371857
4.1379005524861885,-0.1885674067963029
4.171270718232044,-0.17542038994438047
4.204640883977901,-0.16896675356542604
4.238011049723757,-0.16843413083632758
4.271381215469614,-0.16990513092251813
4.30475138121547,-0.16982124168770568
4.338121546961326,-0.16750097805069575
4.371491712707183,-0.16539794587823764
4.404861878453039,-0.1671464319659194
4.438232044198895,-0.17463500184965425
4.471602209944752,-0.1858136070562129
4.504972375690608,-0.19450550527066085
4.538342541436465,-0.19244977940897212
4.5717127071823205,-0.17268738086611726
4.605082872928177,-0.13274058985456771
4.638453038674034,-0.07609934784027546
4.67182320441989,-0.011271141214899949
4.7051933701657465,0.05126042171799154
4.738563535911602,0.10287941657193045
4.771933701657459,0.1398374226457286
4.805303867403316,0.1641725390592226
4.8386740331491715,0.1822947503852016
4.872044198895028,0.20205378750228065
4.905414364640884,0.22972106667324957
4.938784530386741,0.2681788082785841
4.972154696132597,0.31681994474937564
5.005524861878453,0.37267912398189545
5.03889502762431,0.4317081796219864
5.072265193370166,0.4892442590602739
5.105635359116023,0.5395245551101918
5.1390055248618784,0.5750700809182706
5.172375690607735,0.5872149222426085
5.205745856353592,0.5685649914152352
5.239116022099448,0.5168634016658817
5.272486187845304,0.4383238333923081
5.30585635359116,0.3479092572039853
5.339226519337017,0.2649288273091705
5.372596685082874,0.20460628504203568
5.4059668508287295,0.16897685680439722
5.439337016574586,0.14208913238473495
5.472707182320442,0.09368505142734661
5.506077348066299,-0.008025755374187267
5.5394475138121555,-0.17898440682376718
5.572817679558011,-0.4058959140638187
5.606187845303868,-0.6457907707116469
5.639558011049724,-0.8426652686561198
5.672928176795581,-0.9565719940167624
5.706298342541437,-0.9918092194028767
5.739668508287293,-1.0073203573325842
5.77303867403315,-1.0976635867070204
5.806408839779006,-1.3464091434312835
5.839779005524862,-1.7700297611491649
5.873149171270718,-2.2806270272101923
5.906519337016575,-2.6927491525628966
5.939889502762432,-2.78164961973409
5.9732596685082875,-2.3745115597080884
6.006629834254144,-1.4354760123975614
6.04,-0.10239295223187443
6.073370165745857,1.3475429132371644
6.1067403314917135,2.5927051160260453
6.140110497237569,3.3816527516158787
6.173480662983426,3.616376518098629
6.206850828729282,3.3689870390775125
6.240220994475139,2.8298137196524564
6.273591160220995,2.2169469483416115
6.306961325966851,1.6915898583590614
6.340331491712708,1.3146532589978952
6.373701657458564,1.0552980485425054
6.40707182320442,0.8363193138282827
6.440441988950277,0.5873933959459825
6.473812154696133,0.27998532546700894
6.50718232044199,-0.06749523375706709
6.5405524861878455,-0.40874612264305915
6.573922651933702,-0.6970869298021152
6.607292817679559,-0.9057649758075268
6.640662983425415,-1.0332028507461968
6.674033149171271,-1.0950175699584133
6.707403314917127,-1.110806780720506
6.740773480662984,-1.094126959505372
6.774143646408841,-1.050039981904677
6.8075138121546965,-0.9792826458278237
6.840883977900553,-0.8845841846495213
6.874254143646409,-0.7743725595232878
6.907624309392266,-0.6615639804259484
6.9409944751381225,-0.5585040889528653
6.974364640883978,-0.4714376902853682
7.007734806629835,-0.39799874043712635
7.041104972375691,-0.32931170776468555
7.074475138121548,-0.25560159773490104
7.107845303867403,-0.17224136836250564
7.14121546961326,-0.08293444181914437
7.174585635359117,0.0017223383301261052
7.207955801104973,0.06959955665356257
7.241325966850829,0.11356449105648969
7.274696132596685,0.13579412053120932
7.308066298342542,0.14757237843816762
7.341436464088399,0.1645024396415763
7.3748066298342545,0.19933158621941852
7.408176795580111,0.2557840182798884
7.441546961325967,0.3263445801302578
7.474917127071824,0.395056645901947
7.5082872928176805,0.44402154169027375
7.541657458563536,0.46059557103322846
7.575027624309393,0.44209047509137267
7.608397790055249,0.39611405671177174
7.641767955801106,0.3367797834516318
7.675138121546962,0.2787897492774739
7.708508287292818,0.23206639596804332
7.741878453038675,0.1990402592027768
7.775248618784531,0.17534737932829147
7.808618784530387,0.15323488736287252
7.841988950276244,0.1259779697686014
7.8753591160221,0.09135804101019254
7.908729281767957,0.05275306491377302
7.9420994475138125,0.01743673266203917
7.975469613259669,-0.007116721051942865
8.008839779005525,-0.01724423610124891
8.042209944751383,-0.015559405603985154
8.075580110497238,-0.0106251751260878
8.108950276243094,-0.013775919840877147
8.14232044198895,-0.034311325446414596
8.175690607734808,-0.07510472104942187
8.209060773480664,-0.1306296404684913
8.24243093922652,-0.1884590194363181
8.275801104972377,-0.23379636365730452
8.309171270718233,-0.2552088383746612
8.342541436464089,-0.2490971573762102
8.375911602209946,-0.22089552707487167
8.409281767955802,-0.1824017638678686
8.442651933701658,-0.14639795417708143
8.476022099447514,-0.12102645924297634
8.509392265193371,-0.10657401417856105
8.542762430939227,-0.09622172849772741
8.576132596685083,-0.0804115057314981
8.60950276243094,-0.052679290937590086
8.642872928176796,-0.014019683745920114
8.676243093922652,0.02651192604495542
8.709613259668508,0.055478523177659604
8.742983425414366,0.0614672653186843
8.776353591160222,0.041253915293768664
8.809723756906077,0.002663755942050483
8.843093922651935,-0.037602391588275746
8.87646408839779,-0.060646491405826695
8.909834254143647,-0.05378649101179831
8.943204419889504,-0.016804689005118188
8.97657458563536,0.0371699889900539
9.009944751381216,0.08694316322006568
9.043314917127072,0.11247099079095522
9.07668508287293,0.10370987151736065
9.110055248618785,0.06487009800632666
9.143425414364641,0.012111604397619307
9.176795580110499,-0.034004455881877574
9.210165745856354,-0.057479070983753926
9.24353591160221,-0.05298079941818006
9.276906077348068,-0.026558784878451994
9.310276243093924,0.008731102635161992
9.34364640883978,0.039601004584160944
9.377016574585635,0.05823986920282036
9.410386740331493,0.0644840355480372
9.443756906077349,0.06401362018722127
9.477127071823205,0.06408630944162923
9.510497237569062,0.0692678984463253
9.543867403314918,0.07926608514650839
9.577237569060774,0.08966494223245766
9.610607734806631,0.09482929280430237
9.643977900552487,0.09125051645308611
9.677348066298343,0.07955556815407744
9.710718232044199,0.06421986667883857
9.744088397790057,0.051227064128731514
9.777458563535912,0.04490031497245083
9.810828729281768,0.04547201476307274
9.844198895027626,0.04858163255899675
9.877569060773482,0.0470115017413252
9.910939226519337,0.03396280682498756
9.944309392265193,0.006437561479836194
9.97767955801105,-0.03285393121035926
10.011049723756907,-0.07607163830821922
10.044419889502763,-0.11321359692815598
10.07779005524862,-0.1362067335102284
10.111160220994476,-0.14221639811510517
10.144530386740332,-0.13455292464092347
10.17790055248619,-0.12068767321392872
10.211270718232045,-0.10833828194358328
10.244640883977901,-0.10159806115233896
10.278011049723757,-0.09910732672548779
10.311381215469615,-0.09522884500063673
10.34475138121547,-0.08359349304062068
10.378121546961326,-0.06107121391713628
10.411491712707184,-0.029953544724543046
10.44486187845304,0.002881796001682295
10.478232044198895,0.029345022879805942
10.511602209944753,0.04413454690346907
10.544972375690609,0.0471490928771308
10.578342541436465,0.043084279618781376
10.61171270718232,0.0386246229659981
10.645082872928178,0.03893199414638131
10.678453038674034,0.04535441854687651
10.71182320441989,0.055409142408434434
10.745193370165747,0.0647393273880439
10.778563535911603,0.0697150005235224
10.811933701657459,0.06917374633494885
10.845303867403315,0.06447018346835626
10.878674033149172,0.058062467925178995
10.912044198895028,0.0516845912190422
10.945414364640884,0.045290606341134056
10.978784530386742,0.03737439071363447
11.012154696132598,0.02635065393480385
11.045524861878453,0.012013009313431385
11.078895027624311,-0.0039141350011290274
11.112265193370167,-0.01846212410195414
11.145635359116023,-0.028835746607354
11.179005524861878,-0.03361111378662225
11.212375690607736,-0.03300531048462924
11.245745856353592,-0.028229013897128657
11.279116022099448,-0.020586053583713224
11.312486187845305,-0.011098658031174215
11.345856353591161,-0.0009538731303723357
11.379226519337017,0.007644103822407996
11.412596685082875,0.011059689414763684
11.44596685082873,0.004948079055252938
11.479337016574586,-0.013827517341897157
11.512707182320442,-0.04480772158081314
11.5460773480663,-0.08232030622577577
11.579447513812156,-0.11583268744931612
11.612817679558011,-0.1327745965186967
11.646187845303869,-0.12317814864099164
11.679558011049725,-0.08436054555907682
11.71292817679558,-0.023409519946623755
11.746298342541436,0.04414924028765834
11.779668508287294,0.09952180543506683
11.81303867403315,0.1277859410626551
11.846408839779006,0.12394104612118971
11.879779005524863,0.09502159074896985
11.91314917127072,0.057072706735817644
11.946519337016575,0.028145320808456525
11.979889502762433,0.020416401326341045
12.013259668508288,0.035083650171498296
12.046629834254144,0.06245417486726531
12.08,0.087142931425641
12.113370165745858,0.09573422578961693
12.146740331491714,0.0830015701235223
12.18011049723757,0.053579473965049584
12.213480662983427,0.018464688790641077
12.246850828729283,-0.011469801659519944
12.280220994475139,-0.031222594128656293
12.313591160220996,-0.04352563599977128
12.346961325966852,-0.05598665000099169
12.380331491712708,-0.07536711827738352
12.413701657458564,-0.10240199538289446
12.447071823204421,-0.13018235423909622
12.480441988950277,-0.147095269883814
12.513812154696133,-0.1427942785708999
12.54718232044199,-0.11401154719773285
12.580552486187846,-0.06708055826389989
12.613922651933702,-0.015758929951200377
12.64729281767956,0.02460941001944025
12.680662983425416,0.04368103567927109
12.714033149171271,0.040208610204104184
12.747403314917127,0.021743383042210355
12.780773480662985,0.00030504986271542975
12.81414364640884,-0.013619372055379567
12.847513812154697,-0.01566125106731663
12.880883977900554,-0.008545178637092981
12.91425414364641,0.0007431447997945134
12.947624309392266,0.0057725009253330765
12.980994475138122,0.004683722891067081
13.01436464088398,0.0012141912737590453
13.047734806629835,0.002292753997349291
13.081104972375691,0.013695332531908652
13.114475138121549,0.03628137780399136
13.147845303867404,0.06493095098199893
13.18121546961326,0.09075136927914648
13.214585635359118,0.10532681822471926
13.247955801104974,0.10473654705836094
13.28132596685083,0.0912827102119536
13.314696132596685,0.07213382175251026
13.348066298342543,0.05565421674821029
13.381436464088399,0.04725017085612469
13.414806629834255,0.04669490671388685
13.448176795580112,0.04817120198252524
13.481546961325968,0.04308166495081903
13.514917127071824,0.02448197733527704
13.548287292817681,-0.008802449766616696
13.581657458563537,-0.050386359461241106
13.615027624309393,-0.08805763023402906
13.648397790055249,-0.10870526939291121
13.681767955801106,-0.10446878904894454
13.715138121546962,-0.07719990276952322
13.748508287292818,-0.03874545940014555
13.781878453038676,-0.006350883656819355
13.815248618784532,0.005097589966980188
13.848618784530387,-0.009567226229512938
13.881988950276245,-0.04259047101014552
13.9153591160221,-0.07625271555011197
13.948729281767957,-0.09099405195376416
13.982099447513813,-0.07496085281137482
14.01546961325967,-0.030253125966662145
14.048839779005526,0.027380304971013524
14.082209944751382,0.07539735757285539
14.11558011049724,0.09454415271718439
14.148950276243095,0.07725288880526078
14.182320441988951,0.030439362894728882
14.215690607734807,-0.02826027733952151
14.249060773480664,-0.07852323248855571
14.28243093922652,-0.10553479349783011
14.315801104972376,-0.10466434685053805
14.349171270718234,-0.08115233535734667
14.38254143646409,-0.045947557960577694
14.415911602209945,-0.010410533921106526
14.449281767955803,0.017529101737982042
14.482651933701659,0.03461208350687715
14.516022099447515,0.04139605544021813
14.54939226519337,0.040671693333374115
14.582762430939228,0.03623264498643367
14.616132596685084,0.03216513223695816
14.64950276243094,0.03212204742860372
14.682872928176797,0.03812941293253973
14.716243093922653,0.049216082557784244
14.749613259668509,0.060871671149692816
14.782983425414367,0.06631204677930642
14.816353591160222,0.05959204547912864
14.849723756906078,0.039285427071590974
14.883093922651934,0.010658764915077118
14.916464088397792,-0.015334385268072917
14.949834254143648,-0.02636904881823781
14.983204419889503,-0.014610481736783271
15.016574585635361,0.018783727195360346
15.049944751381217,0.06305318384955821
15.083314917127073,0.10181639107906813
15.116685082872928,0.11996949573684844
15.150055248618786,0.11020818521825705
15.183425414364642,0.07596554704663894
15.216795580110498,0.029363126543911485
15.250165745856355,-0.014680414072058872
15.283535911602211,-0.04515569568294919
15.316906077348067,-0.0592368710956803
15.350276243093925,-0.06232719053409748
15.38364640883978,-0.06427930348150979
15.417016574585636,-0.07392861440678972
15.450386740331492,-0.09456971528584929
15.48375690607735,-0.12224946407423067
15.517127071823205,-0.14733347838000743
15.550497237569061,-0.1584553662031304
15.583867403314919,-0.1471745070632617
15.617237569060775,-0.11158557364273021
15.65060773480663,-0.05761125956793854
15.683977900552488,0.002472349845448273
15.717348066298344,0.053826725698435204
15.7507182320442,0.0839405233606742
15.784088397790056,0.08696488952857231
15.817458563535913,0.06590162359930898
15.85082872928177,0.031679304734596986
15.884198895027625,-0.0007676165770304255
15.917569060773483,-0.018119236003763917
15.950939226519338,-0.013891297864591381
15.984309392265194,0.008867925035879912
16.01767955801105,0.03868253821764631
16.051049723756908,0.06037135067899473
16.084419889502765,0.06165895128395345
16.11779005524862,0.038958865327110126
16.151160220994477,-0.0003000201832764186
16.18453038674033,-0.04013175808972525
16.21790055248619,-0.06248281530574821
16.251270718232046,-0.05506229050168552
16.2846408839779,-0.017029635935898936
16.318011049723758,0.04009396626682305
16.351381215469615,0.09678467009238044
16.38475138121547,0.13325617837998818
16.418121546961327,0.13722686392765795
16.451491712707185,0.10846566142198517
16.48486187845304,0.05839595484968106
16.518232044198896,0.00519189482759632
16.551602209944754,-0.03340219578613353
16.584972375690608,-0.04657690235506228
16.618342541436466,-0.03386469045215293
16.651712707182323,-0.0044480921061788425
16.685082872928177,0.026991158177569058
16.718453038674035,0.046047744397052975
16.751823204419892,0.043792474522680404
16.785193370165747,0.019654108632680203
16.818563535911604,-0.018778941729212503
16.851933701657458,-0.058716403482292234
16.885303867403316,-0.08673094136820995
16.918674033149173,-0.09338812865053715
16.952044198895027,-0.07647499591545427
16.985414364640885,-0.04181617322697612
17.018784530386743,-0.0013849890772106067
17.052154696132597,0.030737185100836933
17.085524861878454,0.043225607679083775
