Time (s),Filtered Signal
0.0,-0.10831020186246565
0.033370165745856356,-0.1544393992430821
0.06674033149171271,-0.18632944531932388
0.10011049723756907,-0.19717962677655285
0.13348066298342542,-0.18916814853669617
0.16685082872928178,-0.17101650651522687
0.20022099447513814,-0.1520634137491681
0.2335911602209945,-0.13655579134976892
0.26696132596685085,-0.12162662439296713
0.30033149171270723,-0.10007884720258312
0.33370165745856356,-0.06610271327687252
0.3670718232044199,-0.02025385833955732
0.4004419889502763,0.02951997463083233
0.43381215469613266,0.0716110006330166
0.467182320441989,0.09716910162820844
0.5005524861878453,0.10548110371801386
0.5339226519337017,0.1051049448103679
0.5672928176795581,0.10990554885713538
0.6006629834254145,0.13196563705631004
0.6340331491712707,0.17504457173289475
0.6674033149171271,0.23189692220590305
0.7007734806629835,0.2866007890302472
0.7341436464088398,0.3203975027455041
0.7675138121546962,0.31799592067564125
0.8008839779005525,0.2717151560126991
0.8342541436464089,0.18278777028440354
0.8676243093922653,0.061108919364356536
0.9009944751381216,-0.07487031753050023
0.934364640883978,-0.19797163453779026
0.9677348066298344,-0.27401702834138414
1.0011049723756906,-0.2684882278977123
1.0344751381215471,-0.15900279374660056
1.0678453038674034,0.050071666459193864
1.1012154696132597,0.31865112033619103
1.1345856353591162,0.575559236339591
1.1679558011049724,0.7393426102496998
1.201325966850829,0.7490863244678034
1.2346961325966852,0.5917278489811955
1.2680662983425415,0.311456622727286
1.301436464088398,-0.006039851016299275
1.3348066298342542,-0.26945370699805304
1.3681767955801105,-0.42179834673265876
1.401546961325967,-0.4648417993420397
1.4349171270718233,-0.4550778658294724
1.4682872928176796,-0.4722008240855133
1.501657458563536,-0.5752094950960512
1.5350276243093923,-0.7680813600565389
1.5683977900552488,-0.9925359829783473
1.601767955801105,-1.1518627372574894
1.6351381215469614,-1.1542110846541052
1.6685082872928179,-0.9543216385085438
1.7018784530386741,-0.5741784227805808
1.7352486187845306,-0.09426757239963458
1.768618784530387,0.37832656921834823
1.8019889502762432,0.7486463800341912
1.8353591160220997,0.9621497598488936
1.868729281767956,1.0128598077486493
1.9020994475138122,0.9324759930824992
1.9354696132596687,0.7695223441886342
1.968839779005525,0.5694682542447219
2.0022099447513813,0.3632453664553099
2.0355801104972375,0.16593970155412469
2.0689502762430942,-0.017179071276372745
2.1023204419889505,-0.18222441890724378
2.135690607734807,-0.32047602000534475
2.169060773480663,-0.41713725218679437
2.2024309392265193,-0.4553589752799037
2.235801104972376,-0.4235717284506148
2.2691712707182323,-0.3227787180148502
2.3025414364640886,-0.17032155990567238
2.335911602209945,0.0021974282184917737
2.369281767955801,0.15697741578800595
2.402651933701658,0.2617162210763344
2.436022099447514,0.30073047131948744
2.4693922651933704,0.2809326512298814
2.5027624309392267,0.22965683779257876
2.536132596685083,0.18441836514636778
2.5695027624309392,0.17815634556698973
2.602872928176796,0.22578043305279952
2.636243093922652,0.3176936356454028
2.6696132596685085,0.42321349609369247
2.7029834254143648,0.5025839396789928
2.736353591160221,0.5225053550827892
2.7697237569060777,0.4686229591251394
2.803093922651934,0.349950566510724
2.8364640883977903,0.1940217397158018
2.8698342541436466,0.03571760117576403
2.903204419889503,-0.09491718070012499
2.936574585635359,-0.18108821017625193
2.969944751381216,-0.22185813651342431
3.003314917127072,-0.22986526143115538
3.0366850828729284,-0.22638233183330178
3.0700552486187846,-0.23530239458675245
3.103425414364641,-0.2764092444879428
3.1367955801104976,-0.35818100890723187
3.170165745856354,-0.4718253161342511
3.20353591160221,-0.5899295271074322
3.2369060773480665,-0.6729948599994937
3.2702762430939227,-0.684184867731651
3.3036464088397794,-0.6078750062057788
3.3370165745856357,-0.4636792799575035
3.370386740331492,-0.30725325067689735
3.4037569060773483,-0.21344892364025114
3.4371270718232045,-0.24510015297415186
3.4704972375690613,-0.41869234994289817
3.5038674033149175,-0.6825858923387114
3.537237569060774,-0.9213807269555025
3.57060773480663,-0.9908587156444095
3.6039779005524863,-0.7744187756350271
3.6373480662983426,-0.2396626279419131
3.6707182320441993,0.5306827790554046
3.7040883977900556,1.3519439045879516
3.737458563535912,1.9954035989055847
3.770828729281768,2.270710350700243
3.8041988950276244,2.0990353002580737
3.837569060773481,1.5447387685004357
3.8709392265193374,0.7904023795469505
3.9043093922651937,0.06516892904779932
3.93767955801105,-0.4426190972481403
3.9710497237569062,-0.6508066143812721
4.0044198895027625,-0.6001048924186037
4.037790055248619,-0.4183563451459754
4.071160220994475,-0.2523376158044389
4.104530386740332,-0.20000823962399122
4.1379005524861885,-0.2729615263614457
4.171270718232044,-0.40244046357867413
4.204640883977901,-0.48156028925862737
4.238011049723757,-0.42123300195784313
4.271381215469614,-0.19376415936318916
4.30475138121547,0.15380026714436604
4.338121546961326,0.5197601656798961
4.371491712707183,0.7900767120592084
4.404861878453039,0.8834647823741926
4.438232044198895,0.7803127274075886
4.471602209944752,0.5247312424795523
4.504972375690608,0.20116328716448117
4.538342541436465,-0.10223611828311623
4.5717127071823205,-0.3264306839528222
4.605082872928177,-0.456689269337791
4.638453038674034,-0.5157113202323039
4.67182320441989,-0.5411915299031562
4.7051933701657465,-0.5611884736098132
4.738563535911602,-0.5801639003920918
4.771933701657459,-0.5814322181462851
4.805303867403316,-0.5422969817837237
4.8386740331491715,-0.45166020219913544
4.872044198895028,-0.3196498752697017
4.905414364640884,-0.17437623259371623
4.938784530386741,-0.04868215907292725
4.972154696132597,0.03481018787122623
5.005524861878453,0.0717829407403556
5.03889502762431,0.07352333317154791
5.072265193370166,0.056162818149518345
5.105635359116023,0.029278365147654743
5.1390055248618784,-0.008618014194839986
5.172375690607735,-0.06467467515892873
5.205745856353592,-0.13981423701748097
5.239116022099448,-0.21840027377559204
5.272486187845304,-0.2673714306928309
5.30585635359116,-0.24769718012514963
5.339226519337017,-0.13368238781061606
5.372596685082874,0.06977837804555871
5.4059668508287295,0.3220960707556748
5.439337016574586,0.5585835813944234
5.472707182320442,0.7147357182690927
5.506077348066299,0.7521752770162937
5.5394475138121555,0.6737673092976799
5.572817679558011,0.5204845530192169
5.606187845303868,0.3516715694150999
5.639558011049724,0.21856576206311285
5.672928176795581,0.14391710189719464
5.706298342541437,0.11687387777322696
5.739668508287293,0.1041992790886435
5.77303867403315,0.07082343556575356
5.806408839779006,-0.0011656522910081619
5.839779005524862,-0.1041398330507249
5.873149171270718,-0.21011650621764277
5.906519337016575,-0.285617960263887
5.939889502762432,-0.30811370634490853
5.9732596685082875,-0.27609112962940674
6.006629834254144,-0.20863869463124549
6.04,-0.1356948460410185
6.073370165745857,-0.08422353419906402
6.1067403314917135,-0.06685141877512228
6.140110497237569,-0.07777760290835047
6.173480662983426,-0.09717959398626431
6.206850828729282,-0.10159363958503721
6.240220994475139,-0.07534830089826643
6.273591160220995,-0.01791350789033436
6.306961325966851,0.055998356423352776
6.340331491712708,0.12338708312350773
6.373701657458564,0.16348154128356418
6.40707182320442,0.16663297076597347
6.440441988950277,0.13722876190480662
6.473812154696133,0.08931113805539713
6.50718232044199,0.03735515199737085
6.5405524861878455,-0.012740609961701092
6.573922651933702,-0.06730681509384566
6.607292817679559,-0.14060623779785483
6.640662983425415,-0.2440769189883669
6.674033149171271,-0.37434610108861366
6.707403314917127,-0.5067444728907327
6.740773480662984,-0.5992282305039732
6.774143646408841,-0.6068912245809913
6.8075138121546965,-0.5016546887666766
6.840883977900553,-0.28814162848960384
6.874254143646409,-0.007428535373861219
6.907624309392266,0.2744975397051555
6.9409944751381225,0.4894797262764684
6.974364640883978,0.591395698453708
7.007734806629835,0.5712102549190389
7.041104972375691,0.4567238469324017
7.074475138121548,0.2982749407265632
7.107845303867403,0.14800389627185964
7.14121546961326,0.04231691119366838
7.174585635359117,-0.005767838311574823
7.207955801104973,-0.0035255048958559927
7.241325966850829,0.03098340921000531
7.274696132596685,0.0786130612544441
7.308066298342542,0.12467623714564256
7.341436464088399,0.15977795793000799
7.3748066298342545,0.17835158948903643
7.408176795580111,0.17766844079785743
7.441546961325967,0.15815972886007568
7.474917127071824,0.12368630311467368
7.5082872928176805,0.0799610330703604
7.541657458563536,0.03106431131899823
7.575027624309393,-0.023684588881015073
7.608397790055249,-0.08954236721007579
7.641767955801106,-0.17175961075593937
7.675138121546962,-0.26876507971055835
7.708508287292818,-0.3674609886018314
7.741878453038675,-0.4443309608795327
7.775248618784531,-0.47286816837196805
7.808618784530387,-0.4341459378662631
7.841988950276244,-0.32548673247353577
7.8753591160221,-0.16313710643536894
7.908729281767957,0.022153751654767493
7.9420994475138125,0.1945292193632452
7.975469613259669,0.3234195561962375
8.008839779005525,0.391091873070326
8.042209944751383,0.39519085050039965
8.075580110497238,0.34632520014926044
8.108950276243094,0.2625204249989341
8.14232044198895,0.16308194520852848
8.175690607734808,0.06403648823419668
8.209060773480664,-0.02379235477277509
8.24243093922652,-0.09430666830040828
8.275801104972377,-0.14442384976911468
8.309171270718233,-0.1725601952826483
8.342541436464089,-0.17828069904901309
8.375911602209946,-0.16318595099025268
8.409281767955802,-0.1322199286891207
8.442651933701658,-0.09416936554907376
8.476022099447514,-0.060422696217510584
8.509392265193371,-0.04193220501616917
8.542762430939227,-0.04531738939670101
8.576132596685083,-0.06963739894053009
8.60950276243094,-0.10528645229429234
8.642872928176796,-0.1358404224379445
8.676243093922652,-0.14278129703556666
8.709613259668508,-0.11203419220323013
8.742983425414366,-0.040290026575823895
8.776353591160222,0.06152949831466156
8.809723756906077,0.16999739457665286
8.843093922651935,0.2567419163954871
8.87646408839779,0.2997259700454497
8.909834254143647,0.29358023602699757
8.943204419889504,0.25366080467223967
8.97657458563536,0.21065795160501197
9.009944751381216,0.19691234960596168
9.043314917127072,0.23001446685734633
9.07668508287293,0.30136480732664267
9.110055248618785,0.3758072284162713
9.143425414364641,0.40372119601032397
9.176795580110499,0.34121844360516135
9.210165745856354,0.17005977476976178
9.24353591160221,-0.09144127034381735
9.276906077348068,-0.3916649914896474
9.310276243093924,-0.6622518447068503
9.34364640883978,-0.8414895848237264
9.377016574585635,-0.8951660461534093
9.410386740331493,-0.8266990793849629
9.443756906077349,-0.6729614396438075
9.477127071823205,-0.488206093504538
9.510497237569062,-0.323243662325457
9.543867403314918,-0.20846295725523498
9.577237569060774,-0.14685019810965255
9.610607734806631,-0.11814409395945544
9.643977900552487,-0.0902852359638082
9.677348066298343,-0.03197501877372645
9.710718232044199,0.07852654080323876
9.744088397790057,0.24954262165620017
9.777458563535912,0.47497111850976664
9.810828729281768,0.7335534311981081
9.844198895027626,0.9882757073196748
9.877569060773482,1.188787926455158
9.910939226519337,1.2803456360572625
9.944309392265193,1.219681763637643
9.97767955801105,0.9930319626005301
10.011049723756907,0.6278627561529233
10.044419889502763,0.1907341184273111
10.07779005524862,-0.23057185339102518
10.111160220994476,-0.5548727741647673
10.144530386740332,-0.734208604873774
10.17790055248619,-0.7680663814189838
10.211270718232045,-0.6993860591514628
10.244640883977901,-0.5945732394450205
10.278011049723757,-0.5164469762377963
10.311381215469615,-0.5013133895154289
10.34475138121547,-0.5485360439736786
10.378121546961326,-0.6249755960827367
10.411491712707184,-0.6806455057067649
10.44486187845304,-0.6684683342479277
10.478232044198895,-0.560946450545575
10.511602209944753,-0.35896602898243946
10.544972375690609,-0.0911685567907964
10.578342541436465,0.1949352993133138
10.61171270718232,0.44707916219244814
10.645082872928178,0.6234276581333746
10.678453038674034,0.7042292475627523
10.71182320441989,0.6959171575254864
10.745193370165747,0.6257509568629713
10.778563535911603,0.5285796216441045
10.811933701657459,0.43096159499215364
10.845303867403315,0.33980383553472404
10.878674033149172,0.24139542721052856
10.912044198895028,0.11221765147298961
10.945414364640884,-0.06297846002809888
10.978784530386742,-0.27473115518863267
11.012154696132598,-0.4833196381384185
11.045524861878453,-0.6289058784557381
11.078895027624311,-0.6545971051031971
11.112265193370167,-0.5326154374899326
11.145635359116023,-0.2810785705144382
11.179005524861878,0.03753919140267937
11.212375690607736,0.33680379827853657
11.245745856353592,0.5371241741350568
11.279116022099448,0.5936387806392605
11.312486187845305,0.509562311203952
11.345856353591161,0.3304594996057213
11.379226519337017,0.1235073624267925
11.412596685082875,-0.048310563306886246
11.44596685082873,-0.14631471978856048
11.479337016574586,-0.1636998865042802
11.512707182320442,-0.12001002661591746
11.5460773480663,-0.04758561639895084
11.579447513812156,0.022358959386026982
11.612817679558011,0.06767001930938753
11.646187845303869,0.0751648427281105
11.679558011049725,0.03559382251045571
11.71292817679558,-0.060120053937645225
11.746298342541436,-0.21799663767393293
11.779668508287294,-0.43099595374228933
11.81303867403315,-0.6677849349468993
11.846408839779006,-0.869787741700406
11.879779005524863,-0.9636100777213613
11.91314917127072,-0.8876484040716022
11.946519337016575,-0.6219547658648937
11.979889502762433,-0.20554845015654735
12.013259668508288,0.2705132329956154
12.046629834254144,0.6941164447250414
12.08,0.9737853675040269
12.113370165745858,1.0712498747796102
12.146740331491714,1.009459482450212
12.18011049723757,0.8536140897872182
12.213480662983427,0.6767874574552081
12.246850828729283,0.5286614633614717
12.280220994475139,0.42216638894297664
12.313591160220996,0.3413030233889206
12.346961325966852,0.26138615218068917
12.380331491712708,0.1674591545814911
12.413701657458564,0.06029356798677497
12.447071823204421,-0.050932514002575785
12.480441988950277,-0.16108171993454018
12.513812154696133,-0.2756772918916278
12.54718232044199,-0.4057134220012212
12.580552486187846,-0.5537197931956016
12.613922651933702,-0.7011107988762939
12.64729281767956,-0.8070989578613812
12.680662983425416,-0.8227580839234518
12.714033149171271,-0.7143743133914461
12.747403314917127,-0.4838869310053927
12.780773480662985,-0.17489720533174336
12.81414364640884,0.13994630066841088
12.847513812154697,0.38467172912332337
12.880883977900554,0.5067537161497897
12.91425414364641,0.49293747992889403
12.947624309392266,0.3683064092843541
12.980994475138122,0.18122292141476065
13.01436464088398,-0.017128842131243865
13.047734806629835,-0.188829435060725
13.081104972375691,-0.3149508900019767
13.114475138121549,-0.391040757691555
13.147845303867404,-0.41768980215033535
13.18121546961326,-0.3933332634404544
13.214585635359118,-0.3141386899628204
13.247955801104974,-0.18081542149258265
13.28132596685083,-0.00736859124443468
13.314696132596685,0.17491460827911712
13.348066298342543,0.32254286660255277
13.381436464088399,0.3931287970021442
13.414806629834255,0.3613057303346082
13.448176795580112,0.2299504358503207
13.481546961325968,0.03163771859255575
13.514917127071824,-0.18011615918377027
13.548287292817681,-0.3459594951004672
13.581657458563537,-0.41650039234942576
13.615027624309393,-0.36418859191653374
13.648397790055249,-0.18917210188492953
13.681767955801106,0.08093681770522843
13.715138121546962,0.39669036891995196
13.748508287292818,0.6970452756305199
13.781878453038676,0.9228901130655307
13.815248618784532,1.0312038988436927
13.848618784530387,1.0059354553235762
13.881988950276245,0.8617906872846627
13.9153591160221,0.6390694467772148
13.948729281767957,0.390795485085374
13.982099447513813,0.16626526491375854
14.01546961325967,-0.003371045220441964
14.048839779005526,-0.11238042313042286
14.082209944751382,-0.1779469385821682
14.11558011049724,-0.22910375110182196
14.148950276243095,-0.2919694342123177
14.182320441988951,-0.3777951320232249
14.215690607734807,-0.47884059940283613
14.249060773480664,-0.5731860634705952
14.28243093922652,-0.6354572517208904
14.315801104972376,-0.6482950615529856
14.349171270718234,-0.6099649522228126
14.38254143646409,-0.5357946227018138
14.415911602209945,-0.45353260834659526
14.449281767955803,-0.3942709547023775
14.482651933701659,-0.3813690374703625
14.516022099447515,-0.42037022801594426
14.54939226519337,-0.49328675905981356
14.582762430939228,-0.5602567306978917
14.616132596685084,-0.5698123408246683
14.64950276243094,-0.4759253320067439
14.682872928176797,-0.2566851234834811
14.716243093922653,0.0724647959623556
14.749613259668509,0.4572194554641888
14.782983425414367,0.8171418042499554
14.816353591160222,1.0695266947726825
14.849723756906078,1.1561819751342852
14.883093922651934,1.0628201372617754
14.916464088397792,0.8231178113367352
14.949834254143648,0.505659904908667
14.983204419889503,0.18924144406486865
15.016574585635361,-0.06313673202419148
15.049944751381217,-0.22119420718322585
15.083314917127073,-0.28958241363611825
15.116685082872928,-0.29679604527411946
15.150055248618786,-0.27793618239418655
15.183425414364642,-0.2600966840687728
15.216795580110498,-0.25613702234566377
15.250165745856355,-0.26698293092353065
15.283535911602211,-0.287758919232597
15.316906077348067,-0.31182592031065076
15.350276243093925,-0.3297114065270721
15.38364640883978,-0.3248517792192913
15.417016574585636,-0.27155139088795865
15.450386740331492,-0.14007072091135642
15.48375690607735,0.09058848117867989
15.517127071823205,0.4171156998663627
15.550497237569061,0.8015748351214863
15.583867403314919,1.1731112732697455
15.617237569060775,1.4434600776382245
15.65060773480663,1.5319628003724577
15.683977900552488,1.3915626673376615
15.717348066298344,1.0264684074266501
15.7507182320442,0.49483661594693196
15.784088397790056,-0.10519411401252683
15.817458563535913,-0.6620746670083211
15.85082872928177,-1.0813690770311235
15.884198895027625,-1.309869023488011
15.917569060773483,-1.3452182444122724
15.950939226519338,-1.2286941165613194
15.984309392265194,-1.0255613850743315
16.01767955801105,-0.8019687047716392
16.051049723756908,-0.6074601088247643
16.084419889502765,-0.46801788721665116
16.11779005524862,-0.38870940621786165
16.151160220994477,-0.36083059863298034
16.18453038674033,-0.36800952252106917
16.21790055248619,-0.38870885068791494
16.251270718232046,-0.3965735467071925
16.2846408839779,-0.3623195422037482
16.318011049723758,-0.2598920528669428
16.351381215469615,-0.07614971537565268
16.38475138121547,0.18026891461584502
16.418121546961327,0.4764238181657988
16.451491712707185,0.762092361534355
16.48486187845304,0.9847750962834659
16.518232044198896,1.1066802061305145
16.551602209944754,1.1162205739583229
16.584972375690608,1.0291105947205947
16.618342541436466,0.8793487082594802
16.651712707182323,0.705241947150747
16.685082872928177,0.5373864479272529
16.718453038674035,0.3933030090945897
16.751823204419892,0.27885978807415907
16.785193370165747,0.19274834367949417
16.818563535911604,0.12956742974063742
16.851933701657458,0.07969924693747789
16.885303867403316,0.027949992733761114
16.918674033149173,-0.04512116017388707
16.952044198895027,-0.15679419754628246
16.985414364640885,-0.312426239685173
17.018784530386743,-0.49785046531230176
17.052154696132597,-0.6799562910527407
17.085524861878454,-0.8177402371366203
17.118895027624312,-0.8800268989126941
17.152265193370166,-0.8612858709704391
17.185635359116024,-0.7866937135282669
17.21900552486188,-0.7024107026022204
17.252375690607735,-0.6545109604926952
17.285745856353593,-0.6660878115518641
