Frequency (Hz),Amplitude
0.0,0.6852301539184356
0.019867549668874173,0.6849021342976948
0.039735099337748346,0.6839183993546306
0.059602649006622516,0.6822799206259821
0.07947019867549669,0.6799883166060094
0.09933774834437085,0.6770458516533452
0.11920529801324503,0.6734554344755732
0.13907284768211922,0.6692206162070009
0.15894039735099338,0.6643455881002894
0.17880794701986755,0.6588351788587206
0.1986754966887417,0.6526948516422919
0.2185430463576159,0.6459307007892193
0.23841059602649006,0.6385494483033815
0.2582781456953642,0.6305584401700106
0.27814569536423844,0.6219656425752745
0.2980132450331126,0.6127796381227208
0.31788079470198677,0.6030096221602502
0.33774834437086093,0.5926653993577992
0.3576158940397351,0.581757380708847
0.3774834437086093,0.5702965811714104
0.3973509933774834,0.5582946182180216
0.4172185430463576,0.5457637116345266
0.4370860927152318,0.5327166849989154
0.45695364238410596,0.519166969391727
0.4768211920529801,0.5051286100494625
0.49668874172185434,0.49061627688689724
0.5165562913907285,0.47564528010412976
0.5364238410596026,0.46023159249182694
0.5562913907284769,0.4443918805975381
0.5761589403973509,0.42814354768622453
0.5960264900662252,0.4115047925201975
0.6158940397350993,0.3944946895548631
0.6357615894039735,0.3771332984391371
0.6556291390728477,0.35944181410908127
0.6754966887417219,0.3414427738909588
0.695364238410596,0.3231603459092456
0.7152317880794702,0.3046207354467418
0.7350993377483444,0.2858527656940072
0.7549668874172186,0.2668887217874363
0.7748344370860927,0.24776560166161396
0.7947019867549668,0.22852701171901013
0.8145695364238411,0.2092261135613776
0.8344370860927152,0.18993033684228472
0.8543046357615894,0.17072915736897884
0.8741721854304636,0.1517473733558606
0.8940397350993378,0.13316854370230127
0.9139072847682119,0.11527754978898695
0.9337748344370861,0.0985385050200396
0.9536423841059603,0.08372998947601103
0.9735099337748344,0.07212645872373269
0.9933774834437087,0.0655106119510289
1.0132450331125828,0.06544273989823585
1.033112582781457,0.07194362104790447
1.0529801324503312,0.08347384408552481
1.0728476821192052,0.0982452299339934
1.0927152317880795,0.11497195138490258
1.1125827814569538,0.13286718763825395
1.1324503311258278,0.15146196283511204
1.1523178807947019,0.170468624882353
1.1721854304635762,0.18970199741111046
1.1920529801324504,0.2090362914738226
1.2119205298013245,0.22838138700922028
1.2317880794701985,0.24766940649549518
1.2516556291390728,0.26684685437853944
1.271523178807947,0.28586985746238186
1.2913907284768211,0.3047011908177254
1.3112582781456954,0.32330836562394155
1.3311258278145695,0.3416623681165838
1.3509933774834437,0.3597368090971431
1.370860927152318,0.3775073390295216
1.390728476821192,0.39495123897241946
1.410596026490066,0.41204713039714197
1.4304635761589404,0.4287747669265351
1.4503311258278146,0.44511488349899336
1.4701986754966887,0.4610490864119955
1.4900662251655628,0.4765597728714094
1.5099337748344372,0.49163007210037296
1.5298013245033113,0.5062438023725657
1.5496688741721854,0.5203854399174092
1.5695364238410596,0.5340400967449861
1.5894039735099337,0.5471935052140656
1.609271523178808,0.5598320077198196
1.6291390728476822,0.5719425502778933
1.6490066225165563,0.5835126790733672
1.6688741721854303,0.5945305392589112
1.6887417218543048,0.6049848754470573
1.7086092715231789,0.6148650334628403
1.728476821192053,0.6241609630145923
1.7483443708609272,0.6328632210114423
1.7682119205298013,0.640962975310516
1.7880794701986755,0.6484520087188251
1.8079470198675496,0.6553227231087697
1.8278145695364238,0.661568143531952
1.847682119205298,0.667181922237491
1.8675496688741722,0.6721583425176855
1.8874172185430464,0.6764923223178498
1.9072847682119205,0.6801794175583438
1.9271523178807946,0.6832158251262207
1.9470198675496688,0.6855983855018492
1.9668874172185429,0.6873245849924519
1.9867549668874174,0.6883925575504453
2.0066225165562916,0.6888010861595181
2.0264900662251657,0.6885496037759322
2.0463576158940397,0.6876381938169197
2.066225165562914,0.686067590191919
2.086092715231788,0.6838391768763998
2.1059602649006623,0.680954987031959
2.1258278145695364,0.6774177016803098
2.1456953642384105,0.6732306479432532
2.165562913907285,0.668397796865255
2.185430463576159,0.6629237608406443
2.205298013245033,0.6568137906732315
2.2251655629139075,0.6500737723033665
2.2450331125827816,0.642710223245332
2.2649006622516556,0.6347302887881259
2.2847682119205297,0.6261417380243053
2.3046357615894038,0.6169529597864509
2.324503311258278,0.6071729585886337
2.3443708609271523,0.5968113506931543
2.364238410596027,0.5858783604511322
2.384105960264901,0.5743848171020259
2.403973509933775,0.5623421522635428
2.423841059602649,0.5497623984038406
2.443708609271523,0.5366581886664833
2.463576158940397,0.5230427585222607
2.4834437086092715,0.5089299498596646
2.5033112582781456,0.4943342183106397
2.52317880794702,0.47927064485868714
2.543046357615894,0.46375495311988874
2.562913907284768,0.4478035341631441
2.5827814569536423,0.43143348140375143
2.6026490066225163,0.41466263905360945
2.622516556291391,0.3975096689794824
2.642384105960265,0.3799941428230715
2.662251655629139,0.3621366692146657
2.6821192052980134,0.3439590704204037
2.7019867549668874,0.32548462972019643
2.7218543046357615,0.3067384417740554
2.741721854304636,0.28774791590198184
2.76158940397351,0.2685435113945671
2.781456953642384,0.24915983353388077
2.801324503311258,0.22963730568065965
2.821192052980132,0.21002478931909738
2.8410596026490067,0.1903838165725666
2.8609271523178808,0.17079566680834865
2.8807947019867552,0.15137365769254107
2.9006622516556293,0.13228537585788228
2.9205298013245033,0.11379448484273581
2.9403973509933774,0.09634143703318707
2.9602649006622515,0.08069626270690704
2.9801324503311255,0.0682010105857932
3.0,0.06089495823056414
3.0198675496688745,0.060719505675971557
3.0397350993377485,0.06773720959541944
3.0596026490066226,0.08006256922609592
3.0794701986754967,0.09563351278292452
3.0993377483443707,0.11307482006427333
3.119205298013245,0.1315951455790665
3.1390728476821192,0.15074233985759403
3.1589403973509933,0.17024636233328827
3.1788079470198674,0.18993599301418493
3.198675496688742,0.209695706637106
3.218543046357616,0.22944277850138176
3.23841059602649,0.24911465101361077
3.2582781456953644,0.2686616738257796
3.2781456953642385,0.28804276943476026
3.2980132450331126,0.307222754431646
3.3178807947019866,0.3261706324934195
3.3377483443708607,0.34485847701736727
3.3576158940397347,0.3632606824761952
3.3774834437086096,0.38135345267737286
3.3973509933774837,0.3991144449861576
3.4172185430463577,0.4165225194969819
3.437086092715232,0.43355756022623554
3.456953642384106,0.4502003466089595
3.47682119205298,0.4664324606889432
3.4966887417218544,0.48223621999309346
3.5165562913907285,0.4975946291176524
3.5364238410596025,0.5124913450938393
3.556291390728477,0.5269106529935441
3.576158940397351,0.5408374492012458
3.596026490066225,0.5542572304572723
3.615894039735099,0.5671560872609732
3.6357615894039736,0.5795207005710964
3.6556291390728477,0.5913383409948386
3.6754966887417218,0.6025968698444552
3.695364238410596,0.6132847415799272
3.7152317880794703,0.623391007261146
3.7350993377483444,0.6329053187125951
3.754966887417219,0.6418179331646124
3.774834437086093,0.6501197181822902
3.794701986754967,0.6578021567297209
3.814569536423841,0.6648573522461413
3.834437086092715,0.671278033633171
3.854304635761589,0.6770575600706111
3.8741721854304636,0.6821899255928732
3.8940397350993377,0.686669763369911
3.9139072847682117,0.6904923496464
3.9337748344370858,0.6936536073008812
3.9536423841059607,0.6961501089933982
3.9735099337748347,0.6979790798758765
3.993377483443709,0.6991383998445491
4.013245033112583,0.6996266053179383
4.033112582781457,0.6994428905279113
4.052980132450331,0.698587108314838
4.072847682119205,0.6970597704212405
4.0927152317880795,0.6948620472814501
4.112582781456953,0.691995767308038
4.132450331125828,0.6884634156789744
4.152317880794702,0.6842681326327582
4.172185430463576,0.6794137112825123
4.19205298013245,0.6739045949638578
4.211920529801325,0.6677458741359149
4.231788079470199,0.6609432828599404
4.251655629139073,0.6535031948860942
4.271523178807947,0.6454326193858336
4.291390728476821,0.6367391963763395
4.311258278145695,0.6274311918934226
4.33112582781457,0.6175174929827155
4.3509933774834435,0.6070076025947659
4.370860927152318,0.5959116344901391
4.390728476821192,0.5842403082862565
4.410596026490066,0.5720049448109482
4.43046357615894,0.559217461970284
4.450331125827815,0.5458903713943493
4.470198675496689,0.5320367761981037
4.490066225165563,0.5176703702926595
4.509933774834438,0.5028054398139895
4.529801324503311,0.48745686741533234
4.549668874172186,0.4716401404153804
4.569536423841059,0.4553713641364278
4.589403973509934,0.43866728224820206
4.6092715231788075,0.4215453066197341
4.629139072847682,0.40402356017653873
4.649006622516556,0.3861209377226933
4.66887417218543,0.3678571918758515
4.688741721854305,0.3492530545975787
4.708609271523179,0.3303304099871971
4.728476821192054,0.3111125422532414
4.748344370860927,0.29162449621225384
4.768211920529802,0.27189361015699864
4.788079470198675,0.25195031973449483
4.80794701986755,0.23182940066902794
4.827814569536423,0.21157194624473033
4.847682119205298,0.19122862257888965
4.867549668874172,0.17086524399652359
4.887417218543046,0.15057277188351434
4.9072847682119205,0.13048621925035378
4.927152317880794,0.11082255514176381
4.947019867549669,0.09196135419647691
4.966887417218543,0.0746234119147486
4.986754966887418,0.060245951804086546
5.006622516556291,0.05146504832990979
5.026490066225166,0.051295142657626275
5.04635761589404,0.05982300138784113
5.066225165562914,0.07408996341641307
5.086092715231788,0.0914162887317404
5.105960264900662,0.1103271893603622
5.125827814569536,0.1300828920041074
5.14569536423841,0.15029474468241036
5.1655629139072845,0.17074116358641842
5.185430463576159,0.1912845493394331
5.205298013245033,0.21183231670675862
5.225165562913908,0.23231750272936133
5.245033112582782,0.25268853220244425
5.264900662251656,0.27290352193473505
5.28476821192053,0.292926960948201
5.304635761589404,0.31272769696312247
5.324503311258278,0.3322776728945731
5.344370860927152,0.3515511107175123
5.364238410596027,0.37052397129554365
5.3841059602649,0.3891735895632803
5.403973509933775,0.4074784240947886
5.4238410596026485,0.4254178830442416
5.443708609271523,0.44297220214168614
5.463576158940397,0.460122358824173
5.483443708609272,0.4768500118591455
5.503311258278146,0.4931374592069831
5.52317880794702,0.5089676090926023
5.543046357615895,0.5243239607407733
5.562913907284768,0.5391905922389
5.582781456953643,0.5535521536874389
5.602649006622516,0.5673938642860178
5.622516556291391,0.5807015123495316
5.642384105960264,0.5934614574977319
5.662251655629139,0.6056606344426313
5.682119205298013,0.617286557931706
5.701986754966887,0.6283273285035541
5.7218543046357615,0.6387716387873241
5.741721854304636,0.6486087801333738
5.7615894039735105,0.657828649405938
5.781456953642384,0.6664217558016856
5.801324503311259,0.6743792275840376
5.821192052980132,0.6816928186434558
5.841059602649007,0.688354914809979
5.860927152317881,0.6943585398571803
5.880794701986755,0.6996973611470917
5.900662251655629,0.7043656948740245
5.920529801324503,0.7083585108723192
5.940397350993377,0.7116714369585447
5.960264900662251,0.7143007627837926
5.980132450331126,0.7162434431756282
6.0,0.7174971009529105
6.0198675496688745,0.7180600291997719
6.039735099337749,0.7179311929878223
6.059602649006623,0.7171102305381426
6.079470198675497,0.7155974538170142
6.099337748344371,0.713393848561435
6.119205298013245,0.7105010737327491
6.139072847682119,0.7069214603986451
6.158940397350993,0.702658010046157
6.178807947019867,0.6977143923303184
6.198675496688741,0.6920949422657486
6.218543046357616,0.6858046568709056
6.23841059602649,0.6788491912777087
6.258278145695365,0.6712348543227279
6.2781456953642385,0.6629686036398316
6.298013245033113,0.6540580402789304
6.317880794701987,0.6445114028809789
6.337748344370861,0.6343375614460433
6.357615894039735,0.6235460107397769
6.377483443708609,0.6121468633937277
6.397350993377484,0.6001508427683745
6.417218543046357,0.5875692756642653
6.437086092715232,0.5744140849884678
6.456953642384105,0.5606977825116081
6.47682119205298,0.5464334618880633
6.496688741721854,0.5316347921611506
6.516556291390729,0.5163160120420187
6.5364238410596025,0.5004919253412764
6.556291390728477,0.4841778980574094
6.5761589403973515,0.4673898577999086
6.596026490066225,0.4501442964710128
6.6158940397351,0.432458277482243
6.635761589403973,0.4143494492946611
6.655629139072848,0.3958360678302707
6.675496688741721,0.37693703144434576
6.695364238410596,0.3576719339030406
6.715231788079469,0.33806114356440564
6.735099337748344,0.31812592138678025
6.754966887417219,0.29788859769205916
6.774834437086093,0.27737284002504914
6.794701986754967,0.25660406625999
6.814569536423841,0.23561009688999204
6.8344370860927155,0.21442221618144863
6.854304635761589,0.19307696336761254
6.874172185430464,0.1716192958467204
6.894039735099337,0.15010849260877118
6.913907284768212,0.1286299452057679
6.933774834437086,0.10732076692793857
6.95364238410596,0.0864314755868281
6.973509933774834,0.0664940136028753
6.993377483443709,0.048835547305022035
7.013245033112583,0.037025431422109976
7.033112582781457,0.03722293295926987
7.052980132450331,0.049306345589561554
7.072847682119205,0.06712542588245402
7.0927152317880795,0.08720047487288464
7.112582781456954,0.10823912530891812
7.132450331125828,0.129721010827061
7.152317880794702,0.151399792986039
7.172185430463576,0.1731399231000162
7.19205298013245,0.19485650186822023
7.211920529801324,0.21649023342717413
7.231788079470198,0.23799586505871012
7.251655629139073,0.2593363879534455
7.271523178807947,0.2804799251975155
7.291390728476822,0.301397967684868
7.311258278145695,0.3220643283740401
7.33112582781457,0.34245449940825373
7.3509933774834435,0.36254524519705883
7.370860927152318,0.3823143389539613
7.390728476821192,0.401740389308099
7.410596026490066,0.420802725078949
7.430463576158941,0.4394813185349198
7.450331125827814,0.457756734659782
7.470198675496689,0.47561009831866663
7.490066225165562,0.49302307393507994
7.509933774834438,0.5099778540241062
7.52980132450331,0.52645715405648
7.549668874172186,0.5424442118783855
7.569536423841059,0.5579227904192569
7.589403973509934,0.5728771827685669
7.6092715231788075,0.5872922189460881
7.629139072847682,0.6011532738624403
7.649006622516557,0.6144462760902623
7.66887417218543,0.6271577171561864
7.6887417218543055,0.6392746611297118
7.708609271523178,0.6507847543339889
7.728476821192054,0.661676235040355
7.748344370860927,0.6719379430363386
7.768211920529802,0.681559328978184
7.788079470198675,0.6905304634554696
7.80794701986755,0.6988420457083593
7.827814569536423,0.7064854119481251
7.847682119205298,0.7134525432397898
7.8675496688741715,0.719736072912188
7.887417218543046,0.7253292934660922
7.907284768211921,0.730226162955464
7.927152317880795,0.7344213108205098
7.9470198675496695,0.7379100431541618
7.966887417218543,0.7406883473865289
7.986754966887418,0.7427528963737456
8.006622516556291,0.7441010518798887
8.026490066225167,0.7447308674423353
8.046357615894038,0.7446410906123697
8.066225165562914,0.7438311645645129
8.086092715231787,0.7423012290691452
8.105960264900663,0.7400521208244654
8.125827814569536,0.7370853731447268
8.14569536423841,0.7334032150031425
8.165562913907285,0.7290085694286699
8.185430463576159,0.7239050512571752
8.205298013245034,0.7180969642384503
8.225165562913906,0.7115892975016987
8.245033112582782,0.7043877213833093
8.264900662251655,0.696498582621787
8.28476821192053,0.68792889892618
8.304635761589404,0.6786863529255656
8.324503311258278,0.6687792855088198
8.344370860927151,0.6582166885655276
8.364238410596027,0.6470081971410306
8.3841059602649,0.6351640810208188
8.403973509933774,0.6226952357624
8.42384105960265,0.609613173196298
8.443708609271523,0.5959300114219178
8.463576158940398,0.5816584643297955
8.483443708609272,0.5668118306884884
8.503311258278146,0.5514039828438264
8.52317880794702,0.5354493550903959
8.543046357615895,0.518962931791598
8.562913907284768,0.5019602353475543
8.582781456953642,0.4844573141413521
8.602649006622515,0.46647073063889716
8.62251655629139,0.4480175498813116
8.642384105960264,0.4291153287020009
8.66225165562914,0.40978210613888555
8.682119205298013,0.3900363957212951
8.701986754966887,0.36989718063459387
8.721854304635762,0.3493839132766113
8.741721854304636,0.3285165215485965
8.76158940397351,0.307315425605369
8.781456953642383,0.28580157116695537
8.801324503311259,0.2639964897352573
8.821192052980132,0.24192240393859604
8.841059602649008,0.21960241157500707
8.86092715231788,0.19706081352125654
8.880794701986755,0.17432372013971956
8.90066225165563,0.1514202361892191
8.920529801324504,0.12838495873006495
8.940397350993377,0.10526381704422527
8.960264900662251,0.08212984242073373
8.980132450331126,0.05913577098346462
9.0,0.0367602244109206
9.019867549668875,0.017876236961129048
9.039735099337747,0.020221677020690308
9.059602649006623,0.04027656644442059
9.079470198675496,0.06291180367793822
9.099337748344372,0.08608212243444242
9.119205298013245,0.10940164399748147
9.139072847682119,0.13273721863212415
9.158940397350994,0.1560216052623066
9.178807947019868,0.17921080267429898
9.198675496688743,0.2022707387845832
9.218543046357615,0.22517221002102603
9.23841059602649,0.2478886765501096
9.258278145695364,0.2703952026827519
9.27814569536424,0.2926679098083391
9.298013245033111,0.3146836791622414
9.317880794701987,0.33641998498612913
9.33774834437086,0.3578547996462499
9.357615894039736,0.3789665403368023
9.37748344370861,0.3997340407553761
9.397350993377483,0.42013653825845587
9.417218543046358,0.4401536708636892
9.437086092715232,0.45976548064255685
9.456953642384107,0.4789524213182423
9.47682119205298,0.49769536864972563
9.496688741721854,0.5159756326574503
9.516556291390728,0.533774971047155
9.536423841059603,0.5510756033839602
9.556291390728477,0.56786022569837
9.57615894039735,0.584112025293472
9.596026490066224,0.5998146955824769
9.6158940397351,0.6149524508280672
9.635761589403973,0.6295100406843753
9.655629139072847,0.6434727644643674
9.675496688741722,0.6568264850705637
9.695364238410596,0.669557642538982
9.715231788079471,0.6816532671547586
9.735099337748345,0.6931009921046168
9.754966887417218,0.7038890656364699
9.774834437086092,0.7140063627005481
9.794701986754967,0.7234423960496202
9.814569536423841,0.732187326778715
9.834437086092716,0.7402319742866016
9.854304635761588,0.7475678256435285
9.874172185430464,0.754187044351086
9.894039735099337,0.7600824784814637
9.913907284768213,0.7652476681847945
9.933774834437086,0.7696768525541373
9.95364238410596,0.7733649758390445
9.973509933774835,0.7763076929992903
9.993377483443709,0.7785013745915226
10.013245033112582,0.7799431109824164
10.033112582781456,0.7806307158825889
10.052980132450331,0.7805627291968003
10.072847682119205,0.7797384191862261
10.09271523178808,0.7781577839399201
10.112582781456952,0.7758215521530253
10.132450331125828,0.7727311832103411
10.152317880794701,0.7688888665744946
10.172185430463577,0.7642975204789091
10.192052980132452,0.7589607899265075
10.211920529801324,0.7528830439960731
10.2317880794702,0.7460693724588443
10.251655629139073,0.7385255817091454
10.271523178807948,0.7302581900135163
10.29139072847682,0.7212744220840522
10.311258278145695,0.7115822029826374
10.331125827814569,0.7011901513640322
10.350993377483444,0.6901075720670032
10.370860927152318,0.6783444480643908
10.390728476821192,0.6659114317844711
10.410596026490065,0.6528198358182584
10.43046357615894,0.6390816230297159
10.450331125827816,0.6247093960887355
10.470198675496688,0.6097163864507689
10.490066225165563,0.5941164428113805
10.509933774834437,0.5779240190703029
10.529801324503312,0.5611541618477602
10.549668874172186,0.5438224976064161
10.56953642384106,0.5259452194473623
10.589403973509933,0.5075390736688744
