Time (s),Filtered Signal
0.0,0.007811310228056075
0.033370165745856356,0.21324746651819138
0.06674033149171271,0.3651718311543695
0.10011049723756907,0.42332434540599545
0.13348066298342542,0.3708915663078829
0.16685082872928178,0.2183251341813437
0.20022099447513814,-0.0001880791176306581
0.2335911602209945,-0.2366078008188249
0.26696132596685085,-0.4421795026725782
0.30033149171270723,-0.5796249928777759
0.33370165745856356,-0.6306826150715636
0.3670718232044199,-0.5972642026245545
0.4004419889502763,-0.4970051850806742
0.43381215469613266,-0.3558502766070573
0.467182320441989,-0.2007700875220711
0.5005524861878453,-0.05476726071488635
0.5339226519337017,0.06529521959345128
0.5672928176795581,0.14890879432610094
0.6006629834254145,0.19156220249282785
0.6340331491712707,0.19473340999187186
0.6674033149171271,0.16614232008011912
0.7007734806629835,0.1193484765730761
0.7341436464088398,0.07172655985878425
0.7675138121546962,0.04065952647053945
0.8008839779005525,0.03894145257979725
0.8342541436464089,0.07109155600121402
0.8676243093922653,0.13203089395666523
0.9009944751381216,0.20850560295703932
0.934364640883978,0.2824711571552886
0.9677348066298344,0.33513875912047675
1.0011049723756906,0.35073587441182247
1.0344751381215471,0.31974001105195543
1.0678453038674034,0.24162136610869978
1.1012154696132597,0.1266294417077289
1.1345856353591162,-0.004632136084970759
1.1679558011049724,-0.1251844191303994
1.201325966850829,-0.20927660777437485
1.2346961325966852,-0.24145943736485356
1.2680662983425415,-0.22318990736959846
1.301436464088398,-0.17318177041508678
1.3348066298342542,-0.12025883780661605
1.3681767955801105,-0.09127961698987774
1.401546961325967,-0.09962805244935283
1.4349171270718233,-0.13993276629761217
1.4682872928176796,-0.19172002333447621
1.501657458563536,-0.23009758380360118
1.5350276243093923,-0.23783951203350143
1.5683977900552488,-0.2125440625813208
1.601767955801105,-0.16535684964481873
1.6351381215469614,-0.11255440178515118
1.6685082872928179,-0.06532207137944127
1.7018784530386741,-0.023959390587619957
1.7352486187845306,0.02006119745665931
1.768618784530387,0.07562995560588792
1.8019889502762432,0.14260849585733584
1.8353591160220997,0.20773510013545884
1.868729281767956,0.2490122956106034
1.9020994475138122,0.24670365538668187
1.9354696132596687,0.19496514987032204
1.968839779005525,0.10742279624930946
2.0022099447513813,0.01314368821527588
2.0355801104972375,-0.05533700512186904
2.0689502762430942,-0.07593215657342614
2.1023204419889505,-0.04582615654634822
2.135690607734807,0.019044255959895732
2.169060773480663,0.09312202694848755
2.2024309392265193,0.15384535817881922
2.235801104972376,0.19113788473350043
2.2691712707182323,0.2092604096817725
2.3025414364640886,0.220879886222768
2.335911602209945,0.23737352870260714
2.369281767955801,0.26107511071829714
2.402651933701658,0.28358970159068647
2.436022099447514,0.2905470025580859
2.4693922651933704,0.2695268261400244
2.5027624309392267,0.2164522219632013
2.536132596685083,0.13712750089051645
2.5695027624309392,0.043701869229672674
2.602872928176796,-0.05131989973479256
2.636243093922652,-0.1399095400008653
2.6696132596685085,-0.21977058498416685
2.7029834254143648,-0.29202733972037465
2.736353591160221,-0.3575047134336699
2.7697237569060777,-0.41439490034770854
2.803093922651934,-0.45893816271802007
2.8364640883977903,-0.488524025044234
2.8698342541436466,-0.5047441535592255
2.903204419889503,-0.5136531249432775
2.936574585635359,-0.5221533364147266
2.969944751381216,-0.5321283721223301
3.003314917127072,-0.5360176288721056
3.0366850828729284,-0.5174512733182067
3.0700552486187846,-0.45803290955151693
3.103425414364641,-0.3476113837797327
3.1367955801104976,-0.19263416754130375
3.170165745856354,-0.01730344196161684
3.20353591160221,0.14442118928091566
3.2369060773480665,0.26301433685492104
3.2702762430939227,0.32700369443773636
3.3036464088397794,0.3488103950054978
3.3370165745856357,0.3590377122911951
3.370386740331492,0.39114595632361243
3.4037569060773483,0.46357253089261985
3.4371270718232045,0.5682223526234688
3.4704972375690613,0.6717448116885368
3.5038674033149175,0.7301183710900165
3.537237569060774,0.7104622576198526
3.57060773480663,0.6098696915031673
3.6039779005524863,0.46162439846518294
3.6373480662983426,0.32451430881587223
3.6707182320441993,0.25879740962557707
3.7040883977900556,0.2989525004777706
3.737458563535912,0.43532070295634845
3.770828729281768,0.6130468204003688
3.8041988950276244,0.7492427441110042
3.837569060773481,0.7617414932436539
3.8709392265193374,0.598573676558729
3.9043093922651937,0.25768455619971503
3.93767955801105,-0.209542115111833
3.9710497237569062,-0.7117680473933224
4.0044198895027625,-1.1437339269576237
4.037790055248619,-1.4166888157752504
4.071160220994475,-1.4837019578389126
4.104530386740332,-1.3517964282891533
4.1379005524861885,-1.0770126816071353
4.171270718232044,-0.7442887664388943
4.204640883977901,-0.43940304902231725
4.238011049723757,-0.22300207893738616
4.271381215469614,-0.11568206046605306
4.30475138121547,-0.09854691072452489
4.338121546961326,-0.12749630671538453
4.371491712707183,-0.15431386716988674
4.404861878453039,-0.14560384156625092
4.438232044198895,-0.0924819538410064
4.471602209944752,-0.008596785229648296
4.504972375690608,0.08074198319479362
4.538342541436465,0.15218389797325496
4.5717127071823205,0.19435015875194925
4.605082872928177,0.21055864798091078
4.638453038674034,0.21452072399549407
4.67182320441989,0.2223909444408971
4.7051933701657465,0.24545608457937285
4.738563535911602,0.28641480383197937
4.771933701657459,0.3398056108139075
4.805303867403316,0.3951860384583516
4.8386740331491715,0.44102201206449104
4.872044198895028,0.46779870157637626
4.905414364640884,0.4698521194208225
4.938784530386741,0.4460904567438708
4.972154696132597,0.3998516584048523
5.005524861878453,0.33789124141282767
5.03889502762431,0.2684100880275314
5.072265193370166,0.19841448283899085
5.105635359116023,0.13135576182697511
5.1390055248618784,0.0663277269224378
5.172375690607735,-0.0004074415415352942
5.205745856353592,-0.0720449138234025
5.239116022099448,-0.14772174839365526
5.272486187845304,-0.22087400156363282
5.30585635359116,-0.2805557231762487
5.339226519337017,-0.3151955031760994
5.372596685082874,-0.31696594787537413
5.4059668508287295,-0.28471746295145056
5.439337016574586,-0.22432873625192917
5.472707182320442,-0.1467234825357917
5.506077348066299,-0.06484165795574114
5.5394475138121555,0.009008381714014944
5.572817679558011,0.06468365586381986
5.606187845303868,0.09483624200427307
5.639558011049724,0.09536014960326751
5.672928176795581,0.06614102210037726
5.706298342541437,0.011873953916021363
5.739668508287293,-0.05785657409314065
5.77303867403315,-0.12995098337231015
5.806408839779006,-0.19060450405850243
5.839779005524862,-0.2286776836572367
5.873149171270718,-0.23837631493287612
5.906519337016575,-0.22030919803240973
5.939889502762432,-0.18073099955190755
5.9732596685082875,-0.12945798600713596
6.006629834254144,-0.07725910059846386
6.04,-0.033466892327417924
6.073370165745857,-0.004287476132667249
6.1067403314917135,0.008015083736312082
6.140110497237569,0.0051120888575305525
6.173480662983426,-0.008074354176123287
6.206850828729282,-0.0246038031180369
6.240220994475139,-0.03716503387196495
6.273591160220995,-0.03987182987061994
6.306961325966851,-0.029724257328822973
6.340331491712708,-0.00717966864672731
6.373701657458564,0.024450250289359692
6.40707182320442,0.060502821590392906
6.440441988950277,0.09660298894042132
6.473812154696133,0.12963198805117065
6.50718232044199,0.15771230968525315
6.5405524861878455,0.17957876545309814
6.573922651933702,0.19406876143764074
6.607292817679559,0.2002382892578567
6.640662983425415,0.1979919745932242
6.674033149171271,0.18860924392503625
6.707403314917127,0.174556471729704
6.740773480662984,0.15848928204596305
6.774143646408841,0.14197756794398214
6.8075138121546965,0.12476212414280945
6.840883977900553,0.10507552274027822
6.874254143646409,0.08091661517307396
6.907624309392266,0.05157632235105859
6.9409944751381225,0.018538699729530806
6.974364640883978,-0.014777649612267015
7.007734806629835,-0.04432598742582408
7.041104972375691,-0.06709909293995844
7.074475138121548,-0.08229610694858902
7.107845303867403,-0.0914432127983984
7.14121546961326,-0.09753393259373633
7.174585635359117,-0.1037794739150911
7.207955801104973,-0.1126635760349889
7.241325966850829,-0.1256235874764258
7.274696132596685,-0.14312153487842147
7.308066298342542,-0.16457794919840077
7.341436464088399,-0.18788257630839592
7.3748066298342545,-0.2088048306962108
7.408176795580111,-0.22109319359628865
7.441546961325967,-0.21790440529313979
7.474917127071824,-0.1943985029082763
7.5082872928176805,-0.15035933220862513
7.541657458563536,-0.09127065565304693
7.575027624309393,-0.02684783021628549
7.608397790055249,0.03259337190191922
7.641767955801106,0.08015336394241117
7.675138121546962,0.11450365011323478
7.708508287292818,0.13884206130621735
7.741878453038675,0.15718948919916584
7.775248618784531,0.17031256402103007
7.808618784530387,0.17400816374407516
7.841988950276244,0.16119999412400252
7.8753591160221,0.1269293059540108
7.908729281767957,0.07331939735551918
7.9420994475138125,0.01129798375312331
7.975469613259669,-0.04242247327079223
8.008839779005525,-0.0718821053353079
8.042209944751383,-0.0686439757919669
8.075580110497238,-0.035348822521381676
8.108950276243094,0.01564280951016603
8.14232044198895,0.06766403536254056
8.175690607734808,0.106453202781371
8.209060773480664,0.12507367983108983
8.24243093922652,0.12514210693150304
8.275801104972377,0.11436775706057582
8.309171270718233,0.10200716718151973
8.342541436464089,0.09446446813381304
8.375911602209946,0.09283144831802433
8.409281767955802,0.09306731110046221
8.442651933701658,0.08836042366685103
8.476022099447514,0.07246384375832535
8.509392265193371,0.04263064294205643
8.542762430939227,0.0010961466000454258
8.576132596685083,-0.04536811410175736
8.60950276243094,-0.087680932231196
8.642872928176796,-0.11776770638297855
8.676243093922652,-0.1318842948562562
8.709613259668508,-0.1327124042200722
8.742983425414366,-0.12919531307515347
8.776353591160222,-0.13372811456350864
8.809723756906077,-0.1573136209968745
8.843093922651935,-0.20430760335326148
8.87646408839779,-0.2689101078460818
8.909834254143647,-0.33521208695647725
8.943204419889504,-0.3813488354122753
8.97657458563536,-0.3865943952330855
9.009944751381216,-0.3388215475820409
9.043314917127072,-0.23936287632346592
9.07668508287293,-0.1032153738693148
9.110055248618785,0.04560446596531589
9.143425414364641,0.18174095624654737
9.176795580110499,0.28615442689794046
9.210165745856354,0.35077034072287644
9.24353591160221,0.378521414956128
9.276906077348068,0.379257918060976
9.310276243093924,0.36382841448368103
9.34364640883978,0.3393227718816209
9.377016574585635,0.30763916103904576
9.410386740331493,0.26759758199376643
9.443756906077349,0.2188387270179295
9.477127071823205,0.16484393150646423
9.510497237569062,0.11307878338830406
9.543867403314918,0.07205091499479963
9.577237569060774,0.046906360174786256
9.610607734806631,0.036050384581852384
9.643977900552487,0.030778816116618205
9.677348066298343,0.018406430692395597
9.710718232044199,-0.012316580860283116
9.744088397790057,-0.0658139251434747
9.777458563535912,-0.13670662871723868
9.810828729281768,-0.21069498204325984
9.844198895027626,-0.2691799581313912
9.877569060773482,-0.2959483876335128
9.910939226519337,-0.2833292306796021
9.944309392265193,-0.23534725464359757
9.97767955801105,-0.16653921428465482
10.011049723756907,-0.09681383963567894
10.044419889502763,-0.04432972089166787
10.07779005524862,-0.019162822363290727
10.111160220994476,-0.020191754183774734
10.144530386740332,-0.03629559706120168
10.17790055248619,-0.05122660255258622
10.211270718232045,-0.050135259866640414
10.244640883977901,-0.02523256451989513
10.278011049723757,0.021415490090811385
10.311381215469615,0.0787658538634054
10.34475138121547,0.13079122357030212
10.378121546961326,0.1619995303250817
10.411491712707184,0.16249465232697735
10.44486187845304,0.13089815949143271
10.478232044198895,0.07431378160333238
10.511602209944753,0.005611875155760478
10.544972375690609,-0.06077494486475776
10.578342541436465,-0.11297332159927007
10.61171270718232,-0.1444020851277609
10.645082872928178,-0.15452502192551784
10.678453038674034,-0.1477989285817209
10.71182320441989,-0.13146887208210753
10.745193370165747,-0.11296269425583721
10.778563535911603,-0.09752971294600857
10.811933701657459,-0.0866702016246591
10.845303867403315,-0.07784669523274551
10.878674033149172,-0.0657737907217911
10.912044198895028,-0.045064021426303
10.945414364640884,-0.013253950402486751
10.978784530386742,0.027310983252668383
11.012154696132598,0.0700598399500263
11.045524861878453,0.10746018628504994
11.078895027624311,0.13558664591244463
11.112265193370167,0.15747217274890793
11.145635359116023,0.1828677956146681
11.179005524861878,0.22367399536255977
11.212375690607736,0.2867252260910596
11.245745856353592,0.3674860303714196
11.279116022099448,0.44834577899630207
11.312486187845305,0.5032524963730983
11.345856353591161,0.5072683325964251
11.379226519337017,0.44691594993877876
11.412596685082875,0.3264494708020737
11.44596685082873,0.1669414965998834
11.479337016574586,-0.0015107167780511797
11.512707182320442,-0.15085925219277152
11.5460773480663,-0.2644038271280646
11.579447513812156,-0.34036909042576335
11.612817679558011,-0.38881042380975017
11.646187845303869,-0.4241060928617739
11.679558011049725,-0.4570398689356452
11.71292817679558,-0.4900287061951344
11.746298342541436,-0.5169486093866248
11.779668508287294,-0.5266346952485333
11.81303867403315,-0.5077833108231359
11.846408839779006,-0.45312616479075585
11.879779005524863,-0.3618427582899717
11.91314917127072,-0.24022851466578954
11.946519337016575,-0.10098213001862161
11.979889502762433,0.03875877165176694
12.013259668508288,0.1606671134961579
12.046629834254144,0.24940438769790707
12.08,0.29661134880596557
12.113370165745858,0.30314952887279356
12.146740331491714,0.27844436644896003
12.18011049723757,0.23696716557319958
12.213480662983427,0.1932043437764699
12.246850828729283,0.15716585048107815
12.280220994475139,0.13221505745423862
12.313591160220996,0.11590800605804885
12.346961325966852,0.10314216464596741
12.380331491712708,0.08988852530325914
12.413701657458564,0.07560532928449262
12.447071823204421,0.06319548388640875
12.480441988950277,0.05669187932546445
12.513812154696133,0.058061151977591395
12.54718232044199,0.06498994034555848
12.580552486187846,0.07101920906596054
12.613922651933702,0.06816997341161056
12.64729281767956,0.050859169551891535
12.680662983425416,0.019111510768010893
12.714033149171271,-0.020724479546641243
12.747403314917127,-0.05836408612037552
12.780773480662985,-0.08405000162211786
12.81414364640884,-0.09283563567772983
12.847513812154697,-0.08637103850903823
12.880883977900554,-0.07116194954601171
12.91425414364641,-0.05428042500904743
12.947624309392266,-0.039063973182773444
12.980994475138122,-0.023432853601304364
13.01436464088398,-0.0019179389506580207
13.047734806629835,0.029799917929543465
13.081104972375691,0.07067924177001719
13.114475138121549,0.11322153490847152
13.147845303867404,0.14650024508002032
13.18121546961326,0.1618428475747211
13.214585635359118,0.1579407402120187
13.247955801104974,0.14218599702526533
13.28132596685083,0.1269198084823189
13.314696132596685,0.12209336944267066
13.348066298342543,0.12810369157072468
13.381436464088399,0.13298669055002704
13.414806629834255,0.1163208477691358
13.448176795580112,0.058865490983458606
13.481546961325968,-0.04626677809723162
13.514917127071824,-0.18652199257426993
13.548287292817681,-0.33119611690509465
13.581657458563537,-0.4417120053269272
13.615027624309393,-0.48705577095645874
13.648397790055249,-0.4575411042825601
13.681767955801106,-0.37016590411349753
13.715138121546962,-0.2622891379206637
13.748508287292818,-0.17575955899398774
13.781878453038676,-0.1384141625914071
13.815248618784532,-0.15156691517537624
13.848618784530387,-0.18964809326566204
13.881988950276245,-0.21251055870584729
13.9153591160221,-0.1847630612728772
13.948729281767957,-0.09291423842946907
13.982099447513813,0.04794542726728564
14.01546961325967,0.20104075001379115
14.048839779005526,0.32470076674411463
14.082209944751382,0.39047887398947667
14.11558011049724,0.3937321799750858
14.148950276243095,0.3521410798075403
14.182320441988951,0.2941264339920306
14.215690607734807,0.24406979409113447
14.249060773480664,0.21209831467998755
14.28243093922652,0.1928967208592836
14.315801104972376,0.17278004123619256
14.349171270718234,0.14009942448231336
14.38254143646409,0.09298778875107507
14.415911602209945,0.04061202492229871
14.449281767955803,-0.0020540813042053624
14.482651933701659,-0.022554813453250395
14.516022099447515,-0.017737216406243313
14.54939226519337,0.004414566709639981
14.582762430939228,0.028492113160143714
14.616132596685084,0.0387052075200999
14.64950276243094,0.025632813297723957
14.682872928176797,-0.01038591412037306
14.716243093922653,-0.06029482819408066
14.749613259668509,-0.11063867929721473
14.782983425414367,-0.14870152610232992
14.816353591160222,-0.16617549557553857
14.849723756906078,-0.16034487051632798
14.883093922651934,-0.1332519233556543
14.916464088397792,-0.09013125408704865
14.949834254143648,-0.03822103568187436
14.983204419889503,0.013807024733281667
15.016574585635361,0.056414838157593884
15.049944751381217,0.08059244674662978
15.083314917127073,0.08030464628999913
15.116685082872928,0.05519681793664731
15.150055248618786,0.012082257341763096
15.183425414364642,-0.036044415665387707
15.216795580110498,-0.07362011150532809
15.250165745856355,-0.08756206193594569
15.283535911602211,-0.0717968463104672
15.316906077348067,-0.029553224487185056
15.350276243093925,0.02727789023235722
15.38364640883978,0.08127032390680719
15.417016574585636,0.11395965703867449
15.450386740331492,0.11054361639571493
15.48375690607735,0.0638914262940598
15.517127071823205,-0.022842218798951524
15.550497237569061,-0.1357196699778223
15.583867403314919,-0.25231597800565164
15.617237569060775,-0.34697050466174917
15.65060773480663,-0.39804519148101775
15.683977900552488,-0.3949378948965594
15.717348066298344,-0.34192437457363806
15.7507182320442,-0.256592210344585
15.784088397790056,-0.1627627365177659
15.817458563535913,-0.08052554159991974
15.85082872928177,-0.017875402905331208
15.884198895027625,0.031816952592403684
15.917569060773483,0.08486807132742766
15.950939226519338,0.15703884055523104
15.984309392265194,0.25311639701314026
16.01767955801105,0.3618425332195956
16.051049723756908,0.4591160092330592
16.084419889502765,0.5181234536066589
16.11779005524862,0.521421404715442
16.151160220994477,0.468977604636647
16.18453038674033,0.3782763040426544
16.21790055248619,0.2765927631735897
16.251270718232046,0.18930895824611135
16.2846408839779,0.1298160895286809
16.318011049723758,0.0954716118398312
16.351381215469615,0.0709877114901629
16.38475138121547,0.037143434725483565
16.418121546961327,-0.019525074494016144
16.451491712707185,-0.10047709645967637
16.48486187845304,-0.19484060339237602
16.518232044198896,-0.2845738458030873
16.551602209944754,-0.3522287867797015
16.584972375690608,-0.38754820135999296
16.618342541436466,-0.3901036100513086
16.651712707182323,-0.3673678373408652
16.685082872928177,-0.329825002559741
16.718453038674035,-0.28587568934096297
16.751823204419892,-0.23897298776608264
16.785193370165747,-0.1879887228079999
16.818563535911604,-0.13010935756828565
16.851933701657458,-0.06444091860538355
16.885303867403316,0.005604972456619358
16.918674033149173,0.0722766256091022
16.952044198895027,0.12574532771445454
16.985414364640885,0.15763395232237293
17.018784530386743,0.1643844637977868
17.052154696132597,0.14922889170008996
17.085524861878454,0.12204613188446967
17.118895027624312,0.09697312853974524
17.152265193370166,0.08821333997959857
17.185635359116024,0.10507711273959822
