Frequency (Hz),Amplitude
0.0,8.397119156209213
0.019867549668874173,8.395119674624475
0.039735099337748346,8.389126271015696
0.059602649006622516,8.37915407365211
0.07947019867549669,8.36522831240048
0.09933774834437085,8.34738434276258
0.11920529801324503,8.325667679340116
0.13907284768211922,8.300134038520158
0.15894039735099338,8.270849390087585
0.17880794701986755,8.237890017361392
0.1986754966887417,8.201342585315643
0.2185430463576159,8.16130421597449
0.23841059602649006,8.117882570158258
0.2582781456953642,8.07119593439692
0.27814569536423844,8.021373311507114
0.2980132450331126,7.968554512943424
0.31788079470198677,7.912890250571531
0.33774834437086093,7.854542224960202
0.3576158940397351,7.793683206641896
0.3774834437086093,7.730497106035935
0.3973509933774834,7.66517902685568
0.4172185430463576,7.597935296826346
0.4370860927152318,7.52898346841584
0.45695364238410596,7.458552281032061
0.4768211920529801,7.386881574773223
0.49668874172185434,7.314222144349137
0.5165562913907285,7.240835520254828
0.5364238410596026,7.166993662714688
0.5562913907284769,7.0929785523952065
0.5761589403973509,7.0190816604916195
0.5960264900662252,6.945603279644678
0.6158940397350993,6.87285169637904
0.6357615894039735,6.801142185544017
0.6556291390728477,6.730795807775872
0.6754966887417219,6.662137992501618
0.695364238410596,6.595496891687072
0.7152317880794702,6.531201493605951
0.7350993377483444,6.469579491544223
0.7549668874172186,6.410954909661982
0.7748344370860927,6.355645497216966
0.7947019867549668,6.303959912878189
0.8145695364238411,6.256194732617115
0.8344370860927152,6.212631327161601
0.8543046357615894,6.173532667535106
0.8741721854304636,6.139140128907393
0.8940397350993378,6.109670372852472
0.9139072847682119,6.08531239510058
0.9337748344370861,6.066224829011933
0.9536423841059603,6.052533593509654
0.9735099337748344,6.044329967632694
0.9933774834437087,6.041669162171173
1.0132450331125828,6.044569442474356
1.033112582781457,6.053011836397702
1.0529801324503312,6.066940438807233
1.0728476821192052,6.0862633006863245
1.0927152317880795,6.11085386838224
1.1125827814569538,6.140552918481597
1.1324503311258278,6.175170917534127
1.1523178807947019,6.21449072426529
1.1721854304635762,6.258270545463832
1.1920529801324504,6.306247055356475
1.2119205298013245,6.358138591522871
1.2317880794701985,6.413648347472154
1.2516556291390728,6.472467491925411
1.271523178807947,6.534278156578984
1.2913907284768211,6.598756246666062
1.3112582781456954,6.665574041117792
1.3311258278145695,6.7344025608566405
1.3509933774834437,6.804913694242081
1.370860927152318,6.876782077629603
1.390728476821192,6.949686736270313
1.410596026490066,7.023312496375917
1.4304635761589404,7.097351183212282
1.4503311258278146,7.171502622737045
1.4701986754966887,7.24547546577255
1.4900662251655628,7.318987854224421
1.5099337748344372,7.391767948630851
1.5298013245033113,7.463554335553471
1.5496688741721854,7.534096332164633
1.5695364238410596,7.603154203991408
1.5894039735099337,7.670499310254052
1.609271523178808,7.735914189676265
1.6291390728476822,7.799192598108446
1.6490066225165563,7.860139507840972
1.6688741721854303,7.918571077120332
1.6887417218543048,7.974314597135077
1.7086092715231789,8.027208422619484
1.728476821192053,8.077101891229999
1.7483443708609272,8.12385523598068
1.7682119205298013,8.167339494271793
1.7880794701986755,8.207436416400112
1.8079470198675496,8.24403837589192
1.8278145695364238,8.277048283539031
1.847682119205298,8.30637950663339
1.8675496688741722,8.331955794578578
1.8874172185430464,8.353711211796568
1.9072847682119205,8.371590078636677
1.9271523178807946,8.38554692082374
1.9470198675496688,8.39554642784683
1.9668874172185429,8.40156342058116
1.9867549668874174,8.40358282834959
2.0066225165562916,8.401599675559678
2.0264900662251657,8.395619077993741
2.0463576158940397,8.38565624877697
2.066225165562914,8.371736513998957
2.086092715231788,8.35389533791145
2.1059602649006623,8.332178357565907
2.1258278145695364,8.306641426683527
2.1456953642384105,8.277350668462775
2.165562913907285,8.244382536919543
2.185430463576159,8.207823886217582
2.205298013245033,8.167772047274527
2.2251655629139075,8.124334910715072
2.2450331125827816,8.077631014979529
2.2649006622516556,8.027789638074635
2.2847682119205297,7.974950891064767
2.3046357615894038,7.919265810935535
2.324503311258278,7.860896449907938
2.3443708609271523,7.800015957629137
2.364238410596027,7.736808651906116
2.384105960264901,7.6714700727702825
2.403973509933775,7.604207013660226
2.423841059602649,7.535237522379442
2.443708609271523,7.464790863230277
2.463576158940397,7.3931074303507325
2.4834437086092715,7.320438600806379
2.5033112582781456,7.247046514445461
2.52317880794702,7.1732037659577115
2.543046357615894,7.099192993052874
2.562913907284768,7.025306343281205
2.5827814569536423,6.951844800871763
2.6026490066225163,6.879117354206006
2.622516556291391,6.807439984346965
2.642384105960265,6.737134455602125
2.662251655629139,6.66852689062745
2.6821192052980134,6.601946115299377
2.7019867549668874,6.537721762702335
2.7218543046357615,6.476182131270897
2.741721854304636,6.417651799496043
2.76158940397351,6.362449008652722
2.781456953642384,6.310882835596244
2.801324503311258,6.263250189494894
2.821192052980132,6.21983267891259
2.8410596026490067,6.1808934082224045
2.8609271523178808,6.146673774039769
2.8807947019867552,6.117390342205516
2.9006622516556293,6.09323189277886
2.9205298013245033,6.074356723543674
2.9403973509933774,6.060890300914866
2.9602649006622515,6.052923340404894
2.9801324503311255,6.050510386952668
3.0,6.053668948888218
3.0198675496688745,6.062379219044913
3.0397350993377485,6.0765843938766295
3.0596026490066226,6.096191577999577
3.0794701986754967,6.121073239052824
3.0993377483443707,6.151069157752763
3.119205298013245,6.185988801817208
3.1390728476821192,6.225614040957654
3.1589403973509933,6.269702113806036
3.1788079470198674,6.3179887563972175
3.198675496688742,6.37019140519267
3.218543046357616,6.426012394809711
3.23841059602649,6.485142080632427
3.2582781456953644,6.547261828275866
3.2781456953642385,6.6120468244596635
3.2980132450331126,6.679168676349002
3.3178807947019866,6.748297778153044
3.3377483443708607,6.819105434243825
3.3576158940397347,6.891265736975546
3.3774834437086096,6.964457204619576
3.3973509933774837,7.038364190396377
3.4172185430463577,7.11267807759045
3.437086092715232,7.1870982783573085
3.456953642384106,7.261333055279595
3.47682119205298,7.335100185225951
3.4966887417218544,7.4081274848218595
3.5165562913907285,7.480153216052612
3.5364238410596025,7.550926389351162
3.556291390728477,7.6202069801209475
3.576158940397351,7.6877660731155
3.596026490066225,7.75338594753292
3.615894039735099,7.8168601141454435
3.6357615894039736,7.877993314319299
3.6556291390728477,7.936601489416688
3.6754966887417218,7.992511727826671
3.695364238410596,8.045562195754146
3.7152317880794703,8.095602056904681
3.7350993377483444,8.142491385336804
3.754966887417219,8.186101075001833
3.774834437086093,8.22631274884863
3.794701986754967,8.263018669824186
3.814569536423841,8.296121655641757
3.834437086092715,8.325534998805457
3.854304635761589,8.3511823930638
3.8741721854304636,8.372997867205884
3.8940397350993377,8.39092572690373
3.9139072847682117,8.404920505135271
3.9337748344370858,8.414946921587015
3.9536423841059607,8.420979851328154
3.9735099337748347,8.423004302961356
3.993377483443709,8.4210154063861
4.013245033112583,8.415018410251491
4.033112582781457,8.405028689123878
4.052980132450331,8.391071760344339
4.072847682119205,8.373183310498614
4.0927152317880795,8.351409231362787
4.112582781456953,8.32580566511563
4.132450331125828,8.296439058521383
4.152317880794702,8.263386225674683
4.172185430463576,8.226734418761312
4.19205298013245,8.186581406113666
4.211920529801325,8.143035556624836
4.231788079470199,8.096215929318353
4.251655629139073,8.046252366546922
4.271523178807947,7.993285588900186
4.291390728476821,7.937467289431624
4.311258278145695,7.87896022425514
4.33112582781457,7.81793829590367
4.3509933774834435,7.754586625075515
4.370860927152318,7.689101605507627
4.390728476821192,7.621690935705452
4.410596026490066,7.552573620118706
4.43046357615894,7.481979931086211
4.450331125827815,7.410151321487201
4.470198675496689,7.337340276551271
4.490066225165563,7.263810091723415
4.509933774834438,7.189834561904258
4.529801324503311,7.115697565852405
4.549668874172186,7.0416925281387925
4.569536423841059,6.968121739895798
4.589403973509934,6.895295518853163
4.6092715231788075,6.823531188970025
4.629139072847682,6.753151860555411
4.649006622516556,6.684484993336035
4.66887417218543,6.617860727699867
4.688741721854305,6.553609973529103
4.708609271523179,6.492062251806257
4.728476821192054,6.433543291637567
4.748344370860927,6.378372394485206
4.768211920529802,6.326859588092233
4.788079470198675,6.279302604502993
4.80794701986755,6.23598372921231
4.827814569536423,6.19716658110643
4.847682119205298,6.163092894592885
4.867549668874172,6.133979385142824
4.887417218543046,6.1100147863340855
4.9072847682119205,6.091357149409291
4.927152317880794,6.0781314945833715
4.947019867549669,6.07042789640398
4.966887417218543,6.068300073385003
4.986754966887418,6.071764535372712
5.006622516556291,6.080800321627858
5.026490066225166,6.09534933977382
5.04635761589404,6.115317292196044
5.066225165562914,6.1405751538880855
5.086092715231788,6.170961145721493
5.105960264900662,6.206283130978605
5.125827814569536,6.246321351622696
5.14569536423841,6.290831414595325
5.1655629139072845,6.33954743735227
5.185430463576159,6.39218526538354
5.205298013245033,6.448445681799615
5.225165562913908,6.50801753921426
5.245033112582782,6.570580756058119
5.264900662251656,6.6358091321198325
5.28476821192053,6.703372950660776
5.304635761589404,6.772941346204211
5.324503311258278,6.844184427571854
5.344370860927152,6.916775154641695
5.364238410596027,6.990390974509271
5.3841059602649,7.06471522826527
5.403973509933775,7.139438343571755
5.4238410596026485,7.214258830804591
5.443708609271523,7.288884101944385
5.463576158940397,7.363031131863242
5.483443708609272,7.436426981384595
5.503311258278146,7.508809200681189
5.52317880794702,7.579926130392249
5.543046357615895,7.649537116422945
5.562913907284768,7.717412652851203
5.582781456953643,7.783334465795423
5.602649006622516,7.847095549552731
5.622516556291391,7.908500164850056
5.642384105960264,7.967363807683919
5.662251655629139,8.023513155979806
5.682119205298013,8.076786000183418
5.701986754966887,8.127031162906562
5.7218543046357615,8.174108411883855
5.741721854304636,8.217888369747078
5.7615894039735105,8.25825242348236
5.781456953642384,8.29509263588994
5.801324503311259,8.32831166090937
5.821192052980132,8.35782266429042
5.841059602649007,8.383549250775788
5.860927152317881,8.405425398703377
5.880794701986755,8.42339540272747
5.900662251655629,8.437413825189164
5.920529801324503,8.44744545653283
5.940397350993377,8.453465285058215
5.960264900662251,8.455458476211609
5.980132450331126,8.45342036155135
6.0,8.447356437463613
6.0198675496688745,8.437282373653138
6.039735099337749,8.423224031383647
6.059602649006623,8.405217491388932
6.079470198675497,8.383309091317091
6.099337748344371,8.35755547249625
6.119205298013245,8.3280236357221
6.139072847682119,8.294791005654272
6.158940397350993,8.25794550326845
6.178807947019867,8.217585625633737
6.198675496688741,8.173820532066904
6.218543046357616,8.126770135444753
6.23841059602649,8.076565197126978
6.258278145695365,8.023347423544175
6.2781456953642385,7.967269562027941
6.298013245033113,7.908495492894286
6.317880794701987,7.847200314123661
6.337748344370861,7.783570414204234
6.357615894039735,7.71780352780772
6.377483443708609,7.650108767943919
6.397350993377484,7.5807066270865535
6.417218543046357,7.509828938480874
6.437086092715232,7.43771878744303
6.456953642384105,7.364630360958718
6.47682119205298,7.290828722318826
6.496688741721854,7.216589495938548
6.516556291390729,7.142198445963421
6.5364238410596025,7.067950930861775
6.556291390728477,6.994151215057754
6.5761589403973515,6.921111617917282
6.596026490066225,6.849151480238762
6.6158940397351,6.778595929019957
6.635761589403973,6.709774422891649
6.655629139072848,6.643019063451392
6.675496688741721,6.578662662007638
6.695364238410596,6.51703655712827
6.715231788079469,6.458468185976243
6.735099337748344,6.403278421706106
6.754966887417219,6.351778700033177
6.774834437086093,6.304267970148188
6.794701986754967,6.261029517902025
6.814569536423841,6.222327721903318
6.8344370860927155,6.188404814945384
6.854304635761589,6.159477732983838
6.874172185430464,6.135735140657364
6.894039735099337,6.117334725105455
6.913907284768212,6.104400847820896
6.933774834437086,6.097022637055832
6.95364238410596,6.095252590891674
6.973509933774834,6.099105743993131
6.993377483443709,6.108559430281384
7.013245033112583,6.1235536506706705
7.033112582781457,6.143992031264243
7.052980132450331,6.1697433347199375
7.072847682119205,6.20064346747374
7.0927152317880795,6.236497909456839
7.112582781456954,6.277084481731551
7.132450331125828,6.322156361495136
7.152317880794702,6.37144525305734
7.172185430463576,6.424664627170961
7.19205298013245,6.48151294865774
7.211920529801324,6.541676822613991
7.231788079470198,6.604834001542398
7.251655629139073,6.670656208530668
7.271523178807947,6.738811744220867
7.291390728476822,6.80896785710148
7.311258278145695,6.880792867130637
7.33112582781457,6.953958041580369
7.3509933774834435,7.028139229163176
7.370860927152318,7.103018263987963
7.390728476821192,7.178284154810896
7.410596026490066,7.2536340775821015
7.430463576158941,7.328774190655413
7.450331125827814,7.403420292451316
7.470198675496689,7.477298341054387
7.490066225165562,7.550144854384187
7.509933774834438,7.621707208367287
7.52980132450331,7.691743849100831
7.549668874172186,7.760024433443861
7.569536423841059,7.826329910889068
7.589403973509934,7.8904525580163565
7.6092715231788075,7.95219597535554
7.629139072847682,8.011375055116414
7.649006622516557,8.067815926997302
7.66887417218543,8.121355888164224
7.6887417218543055,8.171843322503207
7.708609271523178,8.219137613382788
7.728476821192054,8.263109053416288
7.748344370860927,8.303638754072042
7.768211920529802,8.34061855743771
7.788079470198675,8.373950951987991
7.80794701986755,8.403548993825513
7.827814569536423,8.42933623455115
7.847682119205298,8.451246656663914
7.8675496688741715,8.469224617182913
7.887417218543046,8.483224800016702
7.907284768211921,8.493212177472522
7.927152317880795,8.499161981191374
7.9470198675496695,8.501059682710569
7.966887417218543,8.498900983786202
7.986754966887418,8.492691816550346
8.006622516556291,8.482448353526058
8.026490066225167,8.468197027472607
8.046357615894038,8.44997456098078
8.066225165562914,8.42782800567669
8.086092715231787,8.401814790818959
8.105960264900663,8.372002780983495
8.125827814569536,8.33847034241492
8.14569536423841,8.301306417480584
8.165562913907285,8.260610606482544
8.185430463576159,8.216493255860026
8.205298013245034,8.169075551539711
8.225165562913906,8.11848961585546
8.245033112582782,8.06487860605383
8.264900662251655,8.0083968119149
8.28476821192053,7.949209749441308
8.304635761589404,7.887494246888486
8.324503311258278,7.823438518618055
8.344370860927151,7.75724222134314
8.364238410596027,7.689116486293659
8.3841059602649,7.61928391965652
8.403973509933774,7.547978562343469
8.42384105960265,7.475445798716986
8.443708609271523,7.401942202381391
8.463576158940398,7.3277353055561525
8.483443708609272,7.253103276939926
8.503311258278146,7.178334491418152
8.52317880794702,7.1037269735578015
8.543046357615895,7.029587695691489
8.562913907284768,6.956231710670152
8.582781456953642,6.883981099237594
8.602649006622515,6.813163712655703
8.62251655629139,6.744111692908194
8.642384105960264,6.6771597557602655
8.66225165562914,6.612643226362799
8.682119205298013,6.55089582313363
8.701986754966887,6.492247193421759
8.721854304635762,6.437020213948583
8.741721854304636,6.385528080061151
8.76158940397351,6.338071220081825
8.781456953642383,6.29493408395057
8.801324503311259,6.256381868180085
8.821192052980132,6.222657250953878
8.841059602649008,6.1939772209470565
8.86092715231788,6.170530090067206
8.880794701986755,6.152472782816957
8.90066225165563,6.139928492614543
8.920529801324504,6.132984787768265
8.940397350993377,6.131692236931391
8.960264900662251,6.136063606311235
8.980132450331126,6.146073659699885
9.0,6.161659568962091
9.019867549668875,6.18272191863578
9.039735099337747,6.209126265512096
9.059602649006623,6.24070519406904
9.079470198675496,6.277260792727828
9.099337748344372,6.318567464937651
9.119205298013245,6.36437498342963
9.139072847682119,6.414411695481596
9.158940397350994,6.4683877911522485
9.178807947019868,6.5259985543218395
9.198675496688743,6.586927526987404
9.218543046357615,6.650849529531231
9.23841059602649,6.717433492603791
9.258278145695364,6.786345068971878
9.27814569536424,6.857249005507085
9.298013245033111,6.929811265958476
9.317880794701987,7.0037009039961005
9.33774834437086,7.078591693124144
9.357615894039736,7.154163525476618
9.37748344370861,7.23010359535143
9.397350993377483,7.306107385799384
9.417218543046358,7.381879477882713
9.437086092715232,7.457134202577805
9.456953642384107,7.531596154936655
9.47682119205298,7.605000589234093
9.496688741721854,7.6770937125819785
9.516556291390728,7.747632893026481
9.536423841059603,7.816386796569638
9.556291390728477,7.883135465957614
9.57615894039735,7.947670352516448
9.596026490066224,8.00979431083551
9.6158940397351,8.069321564725714
9.635761589403973,8.126077651631126
9.655629139072847,8.179899351553404
9.675496688741722,8.230634605560223
9.695364238410596,8.278142428085335
9.715231788079471,8.322292816482447
9.735099337748345,8.36296666065692
9.754966887417218,8.400055655059418
9.774834437086092,8.433462214871874
9.794701986754967,8.463099397839112
9.814569536423841,8.488890832888302
9.834437086092716,8.510770656424752
9.854304635761588,8.52868345698654
9.874172185430464,8.542584228775768
9.894039735099337,8.552438334452066
9.913907284768213,8.558221477469596
9.933774834437086,8.559919684154703
9.95364238410596,8.55752929565346
9.973509933774835,8.551056969820907
9.993377483443709,8.540519693071621
10.013245033112582,8.525944802161597
10.033112582781456,8.507370015816228
10.052980132450331,8.484843476057886
10.072847682119205,8.458423799010943
10.09271523178808,8.428180134868217
10.112582781456952,8.394192236585234
10.132450331125828,8.356550536720992
10.152317880794701,8.315356231658093
10.172185430463577,8.270721372206317
10.192052980132452,8.222768959310033
10.211920529801324,8.171633043235843
10.2317880794702,8.117458824199646
10.251655629139073,8.060402751893118
10.271523178807948,8.000632620777957
10.29139072847682,7.938327657318695
10.311258278145695,7.873678594514641
10.331125827814569,7.806887728156405
10.350993377483444,7.738168948167121
10.370860927152318,7.667747737190002
10.390728476821192,7.595861127253712
10.410596026490065,7.522757603896811
10.43046357615894,7.448696945582266
10.450331125827816,7.373949984617409
10.470198675496688,7.298798274166758
10.490066225165563,7.223533644375941
10.509933774834437,7.148457629214699
10.529801324503312,7.073880744518704
10.549668874172186,7.000121597020745
10.56953642384106,6.927505804093789
10.589403973509933,6.856364704692183
10.609271523178808,6.7870338437981514
10.629139072847682,6.71985121578866
10.649006622516556,6.6551552567451235
10.66887417218543,6.593282582002932
10.688741721854305,6.534565473268765
10.70860927152318,6.47932912939606
10.728476821192054,6.427888706220572
10.748344370860927,6.380546183354084
10.7682119205298,6.337587108939716
10.788079470198676,6.2992772863095805
10.80794701986755,6.265859478300059
10.827814569536423,6.237550214604108
10.847682119205297,6.214536793890091
10.867549668874172,6.196974574513109
10.887417218543046,6.18498464474952
10.907284768211921,6.178651955227444
10.927152317880793,6.178023982700464
10.947019867549669,6.1831099761202495
