Frequency (Hz),Amplitude
0.0,1.6307250527988773
0.04,1.6298976501586662
0.08,1.6274162792430764
0.12,1.6232834502254172
0.16,1.6175033439228985
0.19999999999999998,1.6100818075922199
0.24,1.6010263490495882
0.27999999999999997,1.5903461291213614
0.32,1.578051952433191
0.36,1.5641562565474803
0.39999999999999997,1.5486730994606712
0.44,1.5316181454736049
0.48,1.5130086494502324
0.52,1.4928634394815608
0.5599999999999999,1.4712028979738112
0.6,1.4480489411816118
0.64,1.423424997209034
0.6799999999999999,1.3973559825035256
0.72,1.3698682768699586
0.76,1.3409896970344537
0.7999999999999999,1.3107494687904808
0.84,1.279178197762645
0.88,1.246307838827362
0.9199999999999999,1.212171664233726
0.96,1.1768042304733823
1.0,1.1402413439547754
1.04,1.1025200255461316
1.0799999999999998,1.063678474063105
1.1199999999999999,1.0237560287934013
1.1600000000000001,0.982793131173364
1.2,0.9408312857644362
1.24,0.8979130207257329
1.28,0.8540818480518727
1.3199999999999998,0.8093822239579735
1.3599999999999999,0.763859509971795
1.4,0.7175599355827806
1.44,0.6705305637831436
1.48,0.6228192616757703
1.52,0.574474679831869
1.5599999999999998,0.525546246906956
1.5999999999999999,0.4760841915837996
1.64,0.4261396155007406
1.68,0.3757646667026087
1.72,0.3250129259952715
1.76,0.2739402880930731
1.7999999999999998,0.2226071433408756
1.8399999999999999,0.1710846149487384
1.88,0.11947713895159563
1.92,0.06804803378818185
1.9599999999999997,0.019431600199423305
2.0,0.039172686527639396
2.0399999999999996,0.08998837659527505
2.08,0.1415716737033719
2.12,0.1931872314528795
2.1599999999999997,0.2446742737977552
2.2,0.2959477307938636
2.2399999999999998,0.3469422616567352
2.28,0.3975997059903935
2.3200000000000003,0.44786519127196267
2.36,0.4976856724595102
2.4,0.5470093170421916
2.44,0.5957852306784557
2.48,0.6439633357996336
2.5199999999999996,0.6914943248625022
2.56,0.7383296524513042
2.6,0.7844215486169641
2.6399999999999997,0.8297230442427113
2.68,0.8741880033615237
2.7199999999999998,0.9177711594988449
2.76,0.9604281542828542
2.8,1.002115577225693
2.84,1.0427910059669048
2.88,1.0824130465049102
2.92,1.1209413730882691
2.96,1.1583367675317355
2.9999999999999996,1.1945611577830872
3.04,1.2295776556076106
3.08,1.263350593285038
3.1199999999999997,1.2958455592334375
3.16,1.3270294324885343
3.1999999999999997,1.3568704159773965
3.2399999999999998,1.3853380685330845
3.28,1.4124033356030383
3.32,1.4380385786087122
3.36,1.4622176029179785
3.4,1.4849156843950777
3.44,1.5061095944959317
3.4799999999999995,1.5257776238790455
3.52,1.5438996045047662
3.5599999999999996,1.560456930197665
3.5999999999999996,1.5754325756490202
3.64,1.5888111138383076
3.6799999999999997,1.6005787318544622
3.7199999999999998,1.610723245099677
3.76,1.619234109860189
3.7999999999999994,1.6261024342304369
3.84,1.6313209873787424
3.88,1.6348842071443723
3.9199999999999995,1.6367882059577967
3.96,1.637030775077551
4.0,1.6356113871390117
4.04,1.6325311970121494
4.079999999999999,1.6277930409670298
4.12,1.6214014341477707
4.16,1.6133625663572704
4.199999999999999,1.6036842961569482
4.24,1.5923761432875296
4.28,1.5794492794186246
4.319999999999999,1.564916517236746
4.36,1.5487922978833877
4.4,1.5310926767563382
4.4399999999999995,1.5118353076896236
4.4799999999999995,1.4910394255293165
4.5200000000000005,1.4687258271243915
4.56,1.4449168507540224
4.6,1.419636354014909
4.640000000000001,1.3929096901945677
4.68,1.3647636831590686
4.72,1.335226600786764
4.76,1.3043281269825162
4.8,1.272099332311113
4.84,1.2385726432927604
4.88,1.2037818104094953
4.92,1.1677618748782672
4.96,1.130549134255809
5.0,1.0921811069526604
5.039999999999999,1.0526964957507243
5.08,1.0121351504419558
5.12,0.970538029739711
5.159999999999999,0.9279471626629437
5.2,0.8844056096667139
5.24,0.8399574239037979
5.279999999999999,0.7946476131761961
5.319999999999999,0.7485221034142316
5.36,0.7016277049801387
5.3999999999999995,0.6540120838731867
5.4399999999999995,0.6057237412853802
5.48,0.5568120074652386
5.52,0.507327060646418
5.56,0.45731999147371155
5.6,0.4068429541176336
5.64,0.3559494932691411
5.68,0.30469525792381696
5.72,0.25313965986347264
5.76,0.20135018953723074
5.8,0.1494158767976477
5.84,0.0975040230458348
5.879999999999999,0.04629854833848866
5.92,0.01638385797312186
5.96,0.062395294327350234
5.999999999999999,0.1140481700922566
6.04,0.16606262329403026
6.08,0.21805360559456688
6.119999999999999,0.26989174948564143
6.16,0.3214973254835962
6.2,0.3728058962744543
6.239999999999999,0.4237591755585317
6.279999999999999,0.47430189447625987
6.32,0.524380546060633
6.359999999999999,0.5739428315757328
6.3999999999999995,0.6229374049813929
6.44,0.6713137568359148
6.4799999999999995,0.719022168471508
6.52,0.7660137037145557
6.56,0.8122402215868476
6.6,0.857654401117903
6.64,0.9022097732820473
6.68,0.9458607571352563
6.72,0.9885626983682281
6.76,1.030271909149177
6.8,1.0709457085201934
6.84,1.1105424628503404
6.88,1.14902162599911
6.92,1.1863437789410516
6.959999999999999,1.2224706686662765
7.0,1.2573652462151308
7.04,1.2909917037347804
7.08,1.3233155104667838
7.119999999999999,1.3543034475896325
7.16,1.3839236418516276
7.199999999999999,1.412145597937638
7.239999999999999,1.4389402295200853
7.28,1.4642798889494235
7.32,1.48813839554393
7.359999999999999,1.5104910624418755
7.3999999999999995,1.5313147219825554
7.4399999999999995,1.5505877495851457
7.4799999999999995,1.5682900860969387
7.52,1.5844032585848247
7.5600000000000005,1.598910399545989
7.599999999999999,1.6117962645158144
7.64,1.623047248053148
7.68,1.6326513980847044
7.719999999999999,1.6405984285926483
7.76,1.6468797306308862
7.800000000000001,1.65148838165781
7.839999999999999,1.6544191531747037
7.88,1.6556685166612757
7.92,1.6552346478010889
7.959999999999999,1.6531174289920703
8.0,1.649318450138565
8.040000000000001,1.64384100772363
8.08,1.6366901021618552
8.12,1.6278724334350287
8.159999999999998,1.617396395014579
8.2,1.605272066076934
8.24,1.5915112020194466
8.28,1.5761272232867558
8.32,1.5591352025192249
8.36,1.5405518500371387
8.399999999999999,1.520395497676367
8.44,1.498686080993305
8.48,1.475445119859101
8.52,1.4506956974655865
8.56,1.4244624377675945
8.6,1.3967714813894743
8.639999999999999,1.3676504600261679
8.68,1.3371284693730945
8.72,1.3052360406228354
8.76,1.2720051105715813
8.8,1.237468990384147
8.84,1.2016623330739264
8.879999999999999,1.1646210997636945
8.92,1.1263825248061137
8.959999999999999,1.086985079860081
9.0,1.0464684370432016
9.040000000000001,1.0048734313147947
9.079999999999998,0.9622420222933149
9.12,0.918617255784888
9.16,0.874043225410204
9.2,0.8285650348868269
9.24,0.7822287617940388
9.280000000000001,0.7350814240846628
9.32,0.6871709513414412
9.36,0.6385461640416403
9.399999999999999,0.5892567663642312
9.44,0.5393533623198983
9.48,0.4888875133202243
9.52,0.43791187262918063
9.559999999999999,0.38648047069844493
9.6,0.3346493186204668
9.639999999999999,0.28247774701697925
9.68,0.230031664804771
9.72,0.17739274537260596
9.76,0.12469111057205368
9.8,0.07228106987783871
9.84,0.023375889505461264
9.879999999999999,0.039227313956622836
9.92,0.09057493090472316
9.959999999999999,0.14325037641821836
10.0,0.1960751121998357
10.04,0.24882002769813766
10.079999999999998,0.3013788012151139
10.12,0.3536766236708595
10.16,0.4056499372077237
10.2,0.45724017496671254
10.24,0.5083914064493947
10.280000000000001,0.5590493336660769
10.319999999999999,0.6091608295084852
10.36,0.6586737190910498
10.4,0.7075366795637984
10.44,0.7556992016508948
10.48,0.8031115850712721
10.52,0.8497249533186892
10.559999999999999,0.8954912798235468
10.6,0.9403634209122468
10.639999999999999,0.9842951528231927
10.68,1.0272412110795424
10.72,1.0691573311290858
10.76,1.110000289529317
10.799999999999999,1.1497279451849733
10.84,1.188299280290507
10.879999999999999,1.2256744407255005
10.92,1.261814775714008
10.96,1.2966828766022747
11.0,1.3302426146390645
11.04,1.3624591776644042
11.08,1.3932991056277688
11.12,1.4227303248683567
11.16,1.4507221810986928
11.2,1.4772454710397185
11.24,1.5022724726607346
11.28,1.5257769739821365
11.319999999999999,1.5477343004025645
11.36,1.5681213405153083
11.4,1.5869165703816541
11.44,1.6041000762314337
11.48,1.61965357556348
11.52,1.6335604366208267
11.559999999999999,1.6458056962177454
11.6,1.6563760758976398
11.64,1.6652599964029067
11.68,1.6724475904398561
11.72,1.6779307137235058
11.759999999999998,1.681702954289325
11.799999999999999,1.6837596400605035
11.84,1.6840978446615245
11.879999999999999,1.6827163914705092
11.92,1.6796158559047905
11.96,1.6747985659359126
11.999999999999998,1.6682686008323524
12.04,1.6600317881298694
12.08,1.650095698831555
12.12,1.6384696408412995
12.16,1.625164650636517
12.200000000000001,1.6101934831876894
12.239999999999998,1.5935706001344592
12.28,1.575312156229667
12.32,1.5554359840650467
12.36,1.533961577094097
12.4,1.5109100709697734
12.44,1.4863042232169985
12.479999999999999,1.4601683912619268
12.52,1.432528508842701
12.559999999999999,1.4034120608287441
12.6,1.3728480564785905
12.64,1.3408670011696866
12.68,1.3075008666367995
12.719999999999999,1.2727830597608292
12.76,1.2367483899544263
12.799999999999999,1.1994330351981721
12.84,1.1608745067894628
12.88,1.1211116128778924
12.92,1.0801844208766633
12.959999999999999,1.0381342188615283
12.999999999999998,0.9950034761000157
13.04,0.9508358028995899
13.08,0.9056759100316997
13.12,0.8595695680937537
13.16,0.812563567335181
13.2,0.7647056787389467
13.239999999999998,0.7160446175887081
13.28,0.6666300115034342
13.32,0.616512376253118
13.36,0.5657431051295135
13.4,0.5143744824041306
13.44,0.46245974112883864
13.479999999999999,0.41005320672840967
13.52,0.3572106178023415
13.559999999999999,0.3039898453915953
13.6,0.2504526140391851
13.64,0.19666915583980618
13.68,0.1427335829011585
13.719999999999999,0.08883558417128941
13.76,0.035979385046356345
13.799999999999999,0.024823065797776257
13.84,0.07660011573468824
13.88,0.13051896959546572
13.919999999999998,0.1846111645665122
13.959999999999999,0.23862919377924
14.0,0.29246739053009646
14.04,0.3460515361217258
14.08,0.39931781230411545
14.120000000000001,0.45220681305812777
14.16,0.5046614129514349
14.2,0.5566258973485276
14.239999999999998,0.6080455795428393
14.28,0.6588666296679765
14.32,0.7090360044641314
14.36,0.7585014285723995
14.399999999999999,0.8072114036295532
14.44,0.855115232985673
14.479999999999999,0.9021630554429175
14.52,0.9483058842616605
14.56,0.9934956492073804
14.6,1.0376852402650656
14.64,1.0808285521427423
14.68,1.1228805289821544
14.719999999999999,1.1637972088773165
14.76,1.2035357679172343
14.799999999999999,1.242054563544381
14.84,1.279313177070207
14.879999999999999,1.3152724552229935
14.919999999999998,1.3498945506266848
14.959999999999999,1.383142961126425
15.0,1.4149825678882932
15.04,1.4453796722102168
15.079999999999998,1.4743020309876274
15.120000000000001,1.501718890783278
15.159999999999998,1.52760102045483
15.199999999999998,1.551920742297694
15.24,1.5746519616636325
15.28,1.5957701950187242
15.319999999999999,1.6152525964065705
15.36,1.6330779822850767
15.399999999999999,1.6492268547075193
15.439999999999998,1.663681422820372
15.48,1.6764256226528316
15.52,1.687445135174585
15.559999999999999,1.6967274026006773
15.600000000000001,1.7042616429239517
15.639999999999999,1.7100388626576906
15.679999999999998,1.714051867772926
15.72,1.716295272816761
15.76,1.7167655081999256
15.799999999999999,1.715460825643829
15.84,1.712381301779218
15.879999999999999,1.7075288398901831
15.919999999999998,1.7009071697997693
15.96,1.692521845894682
16.0,1.6823802432889294
16.04,1.6704915521280068
16.080000000000002,1.6568667700370605
16.12,1.6415186927185037
16.16,1.624461902706377
16.200000000000003,1.6057127562865627
16.24,1.5852893685940184
16.279999999999998,1.563211596899939
16.319999999999997,1.5395010221035919
16.36,1.5141809284455559
16.4,1.4872762814608138
16.439999999999998,1.4588137041920883
16.48,1.4288214516854891
16.52,1.3973293837924863
16.56,1.3643689363039904
16.6,1.3299730904440998
16.64,1.2941763407528566
16.68,1.257014661389292
16.72,1.218525470887679
16.759999999999998,1.17874759540208
16.799999999999997,1.1377212304760072
16.84,1.0954879013762207
16.88,1.0520904220321754
16.919999999999998,1.0075728526250451
16.96,0.961980455873737
17.0,0.9153596520694737
17.04,0.8677579729159601
17.080000000000002,0.8192240142408013
17.12,0.7698073876557563
17.16,0.7195586712639638
17.2,0.668529359545824
17.24,0.6167718126151842
17.279999999999998,0.5643392051487843
17.32,0.5112854755101759
17.36,0.4576652760442596
17.4,0.40353392653506664
17.44,0.3489473752946954
17.48,0.29396217905307803
17.52,0.23863553364976378
17.56,0.18302546571973494
17.6,0.12719168394860722
17.64,0.07120073137525222
17.68,0.01524666210120282
17.72,0.04122045000988582
17.759999999999998,0.0973446169439619
17.799999999999997,0.15343777289919983
17.84,0.20941473915281966
17.88,0.26521289787855296
17.919999999999998,0.32077262969945075
17.96,0.37603523525112864
18.0,0.43094251597964817
18.04,0.4854366841185105
18.080000000000002,0.5394603649269205
18.12,0.5929566308135916
18.159999999999997,0.6458690480953848
18.2,0.6981417291972932
18.24,0.7497193872559764
18.279999999999998,0.8005473917061385
18.32,0.8505718241217672
18.36,0.8997395339042246
18.4,0.9479981935674295
18.44,0.9952963534526824
18.48,1.041583495750981
18.52,1.0868100877364617
18.560000000000002,1.1309276341302634
18.6,1.1738887285238229
18.64,1.2156471037970855
18.679999999999996,1.2561576814715187
18.72,1.2953766199412515
18.759999999999998,1.3332613615281135
18.799999999999997,1.369770678308649
18.84,1.4048647166628476
18.88,1.4385050404963746
18.919999999999998,1.4706546730892447
18.96,1.5012781375260646
19.0,1.5303414956638308
19.04,1.5578123855954549
19.080000000000002,1.5836600575683055
19.119999999999997,1.6078554083188488
19.159999999999997,1.6303710137859893
19.2,1.6511811601674409
19.24,1.6702618732849683
19.279999999999998,1.6875909462261591
19.32,1.7031479652320651
19.36,1.716914333801793
19.4,1.7288732949868832
19.44,1.7390099518502784
19.48,1.747311286066265
19.52,1.753766174639917
19.560000000000002,1.758365404726332
19.6,1.7611016865318145
19.639999999999997,1.7619696642813405
19.68,1.760965925238398
19.72,1.7580890067654162
19.759999999999998,1.7533394014150465
19.8,1.746719560044579
19.84,1.7382338929478944
19.88,1.727888769001585
19.919999999999998,1.7156925128237606
19.96,1.7016553999467339
20.0,1.6857896500065315
20.04,1.668109417954962
20.08,1.6486307833020417
20.119999999999997,1.6273717373992682
20.159999999999997,1.6043521687768574
20.2,1.579593846550728
20.24,1.5531204019181306
20.279999999999998,1.5249573077640937
20.32,1.4951318564044187
20.36,1.4636731354951964
20.4,1.430612002143606
20.44,1.3959810552605072
20.48,1.3598146062023815
20.52,1.3221486477589892
20.560000000000002,1.2830208215544556
20.599999999999998,1.242470383944601
20.639999999999997,1.2005381705133042
20.68,1.1572665592988676
20.72,1.1126994329205242
20.759999999999998,1.0668821398320405
20.8,1.0198614550128626
20.84,0.9716855405327992
20.88,0.9224039066196266
20.92,0.872067374163523
20.96,0.8207280400856766
21.0,0.7684392478194013
21.04,0.7152555665652337
21.08,0.6612327855002715
21.119999999999997,0.6064279338030759
21.159999999999997,0.5508993464787294
21.2,0.4947068147679356
21.24,0.43791190132696595
21.279999999999998,0.38057859920272924
21.32,0.32277477448351927
21.36,0.2645756157734182
21.4,0.20607311157089114
21.44,0.14740841984332992
21.48,0.08893283304757216
21.52,0.03310190253236364
21.56,0.03673857954799912
21.599999999999998,0.09328061452156558
21.639999999999997,0.15215199173002084
21.68,0.21134303586107372
21.72,0.27053087031203016
21.759999999999998,0.3295781199078627
21.8,0.3883919893001841
21.84,0.446894896157161
21.88,0.5050157092346674
21.92,0.5626865244023864
21.96,0.6198413095660026
22.0,0.6764152867847044
22.04,0.732344640491248
22.08,0.7875663832218904
22.119999999999997,0.8420183028797454
22.16,0.89563895459678
22.2,0.9483676780786129
22.24,1.0001446299998076
22.28,1.0509108254888493
22.32,1.10060818515567
22.36,1.149179585471115
22.4,1.1965689110985795
22.44,1.2427211082530978
22.48,1.2875822384573947
22.519999999999996,1.331099532250795
22.56,1.3732214425283533
22.599999999999998,1.413897697267936
22.639999999999997,1.4530793514576559
22.68,1.4907188380739522
22.72,1.5267700179872843
22.759999999999998,1.561188228691609
22.8,1.593930331768361
22.84,1.624954759006016
22.88,1.6542215571049992
22.92,1.6816924309042132
22.96,1.707330785070901
23.0,1.7311017642003792
23.04,1.7529722912760035
23.08,1.7729111044435675
23.119999999999997,1.790888792057708
23.16,1.8068778259610123
23.2,1.8208525929599375
23.24,1.8327894244645342
23.28,1.8426666242624365
23.32,1.8504644944008146
23.36,1.856165359153464
23.400000000000002,1.859753587054064
23.44,1.8612156109806257
23.479999999999997,1.860539946280574
23.519999999999996,1.857717206930888
23.56,1.852740119733339
23.599999999999998,1.8456035365509476
23.639999999999997,1.836304444599391
23.68,1.8248419748153286
23.72,1.8112174083338446
23.759999999999998,1.7954341811191918
23.8,1.7774978868076343
23.84,1.757416277839127
23.88,1.7351992649767618
23.92,1.7108589153408282
23.96,1.6844094491196553
23.999999999999996,1.6558672351649033
24.04,1.625250785737626
24.08,1.592580750748775
24.119999999999997,1.5578799119399083
24.16,1.5211731775869786
24.2,1.482487578495927
24.24,1.4418522663138742
24.28,1.3992985155343245
24.32,1.3548597310741377
24.36,1.308571464013986
24.400000000000002,1.2604714391293657
24.439999999999998,1.2105995993669036
24.479999999999997,1.1589981747148501
24.52,1.1057117864291017
24.56,1.050787603072559
24.599999999999998,0.9942755736300664
24.64,0.9362287774421199
24.68,0.8767039552275933
24.72,0.8157623284046641
24.759999999999998,0.7534708919667127
24.8,0.6899045142544552
24.84,0.6251494722259737
24.88,0.5593096746694686
24.92,0.49251823747718376
24.959999999999997,0.4249605436230782
24.999999999999996,0.3569243417589715
25.04,0.2889213976077122
25.08,0.22202885193390404
25.119999999999997,0.1590379908000155
25.16,0.10893893115369412
25.2,0.09690757319472582
25.24,0.1349042766058117
25.28,0.19644798088223017
25.32,0.2661417012802799
25.36,0.3393252148588832
25.4,0.41437443753928255
25.439999999999998,0.49057929268680206
25.479999999999997,0.5675635918583326
25.52,0.6450939415120245
25.56,0.723005733601344
25.599999999999998,0.8011706625352013
25.64,0.8794810226168117
25.68,0.9578415212463598
25.72,1.0361647476448965
25.76,1.1143685433214225
25.8,1.192374418750203
25.84,1.2701065733442285
25.880000000000003,1.3474912775734786
25.919999999999998,1.4244564801237334
25.959999999999997,1.500931559162668
25.999999999999996,1.5768471683372565
26.04,1.6521351464869727
26.08,1.7267284710760997
26.119999999999997,1.8005612421461774
26.16,1.8735686878888693
26.2,1.9456871857199851
26.24,2.016854294570832
26.28,2.0870087953471965
26.32,2.15609073735074
26.36,2.2240414890442293
26.4,2.2908037919562916
26.439999999999998,2.356321816817231
26.479999999999997,2.4205412212323614
26.52,2.4834092083568695
26.56,2.5448745861534126
26.599999999999998,2.604887826902063
26.64,2.6634011266994206
26.68,2.720368464735782
26.72,2.775745662180044
26.76,2.829490440534373
26.8,2.8815624793468375
26.84,2.9319234731917025
26.88,2.9805371878450044
26.919999999999998,3.0273695155981195
26.959999999999997,3.072388529665562
27.0,3.1155645376545316
27.04,3.156870134074395
27.08,3.196280251873789
27.119999999999997,3.233772213001668
27.16,3.2693257779971083
27.2,3.3029231946202136
27.24,3.334549245543915
27.28,3.3641912951335153
27.32,3.391839335347294
27.36,3.417486030797997
27.4,3.441126763020575
27.439999999999998,3.4627596739971302
27.479999999999997,3.4823857089945687
27.52,3.5000086587746413
27.56,3.5156352012388683
27.599999999999998,3.5292749425731698
27.64,3.540940457957292
27.68,3.550647331903301
27.72,3.558414198284199
27.76,3.5642627801081885
27.8,3.568217929085684
27.839999999999996,3.5703076650240217
27.88,3.570563215068731
27.919999999999998,3.569019052788933
