Time (s),Filtered Signal
0.0,4.345200054540213e-05
0.0334075723830735,-0.01148702446107562
0.066815144766147,-0.03159005617031542
0.1002227171492205,-0.06675338386569041
0.133630289532294,-0.11871355253918707
0.1670378619153675,-0.18252881263085685
0.200445434298441,-0.24617145503044957
0.23385300668151449,-0.2926240002520396
0.267260579064588,-0.30461627888156695
0.3006681514476615,-0.2708117064764041
0.334075723830735,-0.19115683974926057
0.3674832962138085,-0.07894861494688993
0.400890868596882,0.04179545369841815
0.4342984409799555,0.14322865884699348
0.46770601336302897,0.20255576830623412
0.5011135857461025,0.20967352212972656
0.534521158129176,0.17071079176530618
0.5679287305122495,0.10611646259936615
0.601336302895323,0.04391322343547884
0.6347438752783965,0.010384703660465058
0.66815144766147,0.02126023483680808
0.7015590200445435,0.07626013005464119
0.734966592427617,0.1588232768190056
0.7683741648106905,0.24127106478441615
0.801781737193764,0.293947414929148
0.8351893095768375,0.2954525118509657
0.868596881959911,0.24044125328863267
0.9020044543429845,0.14199089999792147
0.9354120267260579,0.027321369886864896
0.9688195991091315,-0.07184246566014776
1.002227171492205,-0.1307896478812528
1.0356347438752784,-0.1409445448341897
1.069042316258352,-0.11330461613795836
1.1024498886414256,-0.07513971714043746
1.135857461024499,-0.061224793352326626
1.1692650334075725,-0.10234377934692246
1.202672605790646,-0.21419168465199068
1.2360801781737194,-0.3895420636029621
1.269487750556793,-0.5960929668197973
1.3028953229398665,-0.781682431708006
1.33630289532294,-0.8870468534330697
1.3697104677060135,-0.8637263525326276
1.403118040089087,-0.6918442933442294
1.4365256124721606,-0.39095881243108005
1.469933184855234,-0.018491380331098647
1.5033407572383075,0.34555940140021496
1.536748329621381,0.6234905354879273
1.5701559020044544,0.7660267390209642
1.603563474387528,0.7701853529263564
1.6369710467706016,0.6815548007099101
1.670378619153675,0.5785726772548614
1.7037861915367485,0.5426820796098786
1.737193763919822,0.6241472674947206
1.7706013363028954,0.8165874497231842
1.804008908685969,1.0518590910580485
1.8374164810690425,1.2201689118551797
1.8708240534521159,1.210165226563843
1.9042316258351895,0.9544164278226376
1.937639198218263,0.4617130042633287
1.9710467706013366,-0.17842129572115933
2.00445434298441,-0.8227687542170149
2.0378619153674835,-1.323447120547605
2.071269487750557,-1.5795824070642481
2.1046770601336307,-1.5707360383048008
2.138084632516704,-1.3588512922819822
2.1714922048997773,-1.058879667641952
2.204899777282851,-0.7912384499095734
2.2383073496659245,-0.6361048517260176
2.271714922048998,-0.607636858880468
2.3051224944320716,-0.6569062950481003
2.338530066815145,-0.7000243910190432
2.3719376391982183,-0.6578980220451
2.405345211581292,-0.4902180596882468
2.4387527839643655,-0.20984767679101898
2.472160356347439,0.12707014625352758
2.5055679287305126,0.4492302297776653
2.538975501113586,0.7027028776470845
2.5723830734966593,0.8726225866617875
2.605790645879733,0.9842077177864987
2.6391982182628064,1.0832550195416006
2.67260579064588,1.2062117984158816
2.7060133630289536,1.355152613068967
2.739420935412027,1.4907688911203307
2.7728285077951007,1.5476536973269657
2.806236080178174,1.4649609307568017
2.8396436525612474,1.2175663545080848
2.873051224944321,0.8322675783328665
2.9064587973273945,0.3807016102713348
2.939866369710468,-0.04807500102582943
2.9732739420935417,-0.3826758641104919
3.006681514476615,-0.5960452351703457
3.0400890868596884,-0.7118952774274457
3.073496659242762,-0.7887753489172753
3.1069042316258355,-0.889822108904514
3.140311804008909,-1.0522411666997233
3.1737193763919826,-1.2699163423331783
3.207126948775056,-1.4959820580402523
3.2405345211581293,-1.6630694077062753
3.273942093541203,-1.7114307599325396
3.3073496659242765,-1.6123697638423196
3.34075723830735,-1.3772102922074643
3.3741648106904236,-1.0489472647673885
3.407572383073497,-0.6816674344154797
3.4409799554565703,-0.31832166676303125
3.474387527839644,0.02212964891391794
3.5077951002227175,0.34227891887986506
3.541202672605791,0.6510137459164259
3.5746102449888646,0.9452729030076285
3.608017817371938,1.200723333157603
3.6414253897550113,1.37841602468945
3.674832962138085,1.4449963728623774
3.7082405345211584,1.3951611686634744
3.7416481069042318,1.2620996502022117
3.7750556792873056,1.1069753313297859
3.808463251670379,0.9898814107862538
3.8418708240534527,0.9362056252596719
3.875278396436526,0.9172944850774747
3.9086859688195994,0.8589829353877816
3.942093541202673,0.6776675019163823
3.9755011135857465,0.32801299390026956
4.00890868596882,-0.16222536800882664
4.042316258351893,-0.6907200109746305
4.075723830734967,-1.1170484995067451
4.109131403118041,-1.3218279864842213
4.142538975501114,-1.26002601594856
4.1759465478841875,-0.9815445787359994
4.209354120267261,-0.608562166624308
4.242761692650334,-0.28152615189802693
4.276169265033408,-0.10128881644659964
4.309576837416482,-0.09484323603374273
4.342984409799555,-0.21737795720132824
4.3763919821826285,-0.3837470079123365
4.409799554565702,-0.5096435002053321
4.443207126948775,-0.5426284538184796
4.476614699331849,-0.4729355849558233
4.510022271714923,-0.325753772825677
4.543429844097996,-0.14366019586149464
4.5768374164810695,0.031729469019856446
4.610244988864143,0.17324064573264575
4.643652561247216,0.2744985295097429
4.67706013363029,0.3485833797158378
4.710467706013364,0.41923831345926416
4.743875278396437,0.506596375829194
4.77728285077951,0.6122755183586962
4.810690423162584,0.7109715601345484
4.844097995545657,0.7548547983962555
4.877505567928731,0.69210608155678
4.910913140311805,0.49353367368023504
4.944320712694878,0.17523546976023227
4.977728285077951,-0.19547834605054817
5.011135857461025,-0.5177229962099267
5.044543429844098,-0.6943442207223731
5.077951002227172,-0.6743395623873989
5.111358574610246,-0.48077161162250476
5.144766146993319,-0.20856832091719227
5.178173719376392,0.010919047488761465
5.211581291759466,0.06589995103740524
5.244988864142539,-0.08360669039793307
5.278396436525613,-0.3823721341034212
5.311804008908687,-0.6988767664762668
5.34521158129176,-0.8805260254295639
5.378619153674833,-0.821097748611546
5.412026726057907,-0.509186827068032
5.445434298440981,-0.03451073041374612
5.478841870824054,0.45114798077750895
5.512249443207128,0.7997435724618592
5.545657015590201,0.9283157613948795
5.579064587973274,0.8478049407071022
5.612472160356348,0.6481918512736066
5.645879732739422,0.4504275687586305
5.679287305122495,0.3505510040935405
5.712694877505569,0.38238268489795235
5.746102449888642,0.5129466150108054
5.779510022271715,0.6671616150765586
5.812917594654789,0.765306566452937
5.846325167037863,0.7543505514601404
5.879732739420936,0.6215985898266538
5.91314031180401,0.3901487161212031
5.946547884187083,0.10368554229131663
5.979955456570156,-0.19009305271908547
6.01336302895323,-0.45139394995960175
6.046770601336304,-0.6542337128332003
6.080178173719377,-0.787883607404025
6.1135857461024505,-0.8556888335157995
6.146993318485524,-0.8719265088626442
6.180400890868597,-0.856541277978785
6.213808463251671,-0.8281164889810331
6.247216035634745,-0.7969581532103666
6.280623608017818,-0.7613832881991145
6.3140311804008915,-0.7098749002420166
6.347438752783965,-0.6292672447298235
6.380846325167038,-0.5155317997002308
6.414253897550112,-0.38111420739094815
6.447661469933186,-0.25318816599510485
6.481069042316259,-0.1613087952483767
6.5144766146993325,-0.11918828921832342
6.547884187082406,-0.11028970124659891
6.581291759465479,-0.08718759167010928
6.614699331848553,0.011112274271854178
6.648106904231627,0.2292790139857879
6.6815144766147,0.5669659495131794
6.7149220489977735,0.9670826590683675
6.748329621380847,1.330117519017996
6.78173719376392,1.550873224945839
6.815144766146994,1.5617489501777755
6.848552338530068,1.3619773377121953
6.881959910913141,1.018255966572675
6.915367483296214,0.6362084298296757
6.948775055679288,0.3165544077692813
6.982182628062361,0.11688125802101747
7.015590200445435,0.035926749062041456
7.048997772828509,0.025031408423510378
7.082405345211582,0.01800720661924928
7.115812917594655,-0.03681081231979737
7.149220489977729,-0.15702156373544884
7.182628062360802,-0.32537978756123204
7.216035634743876,-0.5041259211078979
7.24944320712695,-0.6546052748769527
7.282850779510023,-0.752243912560388
7.316258351893096,-0.7916343102188675
7.34966592427617,-0.782553485603294
7.383073496659243,-0.7417914254913394
7.416481069042317,-0.6860533829798228
7.449888641425391,-0.6285567774630394
7.4832962138084635,-0.5785146637542125
7.516703786191537,-0.5408422116546708
7.550111358574611,-0.5141765973020134
7.583518930957685,-0.487843949417863
7.616926503340758,-0.44073011328769446
7.650334075723832,-0.3452620224158597
7.683741648106905,-0.17734186160332374
7.717149220489978,0.0707466016646768
7.750556792873052,0.380407524685074
7.783964365256126,0.7056837716042441
7.817371937639199,0.9834315147261813
7.850779510022273,1.1517274402787083
7.884187082405346,1.1694543582050614
7.917594654788419,1.0295087507506504
7.951002227171493,0.7611213326310214
7.984409799554567,0.4212924860683657
8.01781737193764,0.07889266446930898
8.051224944320714,-0.20354005696343086
8.084632516703786,-0.3854156462976661
8.118040089086861,-0.45710310574220114
8.151447661469934,-0.43966439132798585
8.184855233853007,-0.37485658702076424
8.218262806236082,-0.30815788645389297
8.251670378619155,-0.27079602699021066
8.285077951002227,-0.2681292579274219
8.318485523385302,-0.27975374387542823
8.351893095768375,-0.27162761865907176
8.385300668151448,-0.2146183421459931
8.418708240534523,-0.10041091092846902
8.452115812917596,0.05318694266330459
8.485523385300668,0.2101758612256204
8.518930957683743,0.33334750414192704
8.552338530066816,0.40146781664457354
8.585746102449889,0.41781170459912725
8.619153674832964,0.40586783403472637
8.652561247216036,0.3948300150258388
8.68596881959911,0.4027398383227996
8.719376391982184,0.4260776508337745
8.752783964365257,0.4409023963604003
8.78619153674833,0.41455127503548694
8.819599109131405,0.321806961042276
8.853006681514477,0.1578375772916717
8.88641425389755,-0.057565933621134074
8.919821826280625,-0.28561869549351243
8.953229398663698,-0.48121433543493075
8.98663697104677,-0.6077415849578232
9.020044543429846,-0.6491024416305009
9.053452115812918,-0.6151720185049265
9.086859688195991,-0.5386367752945475
9.120267260579066,-0.46328874203876924
9.153674832962139,-0.4266277918140427
9.187082405345212,-0.4426092751316511
9.220489977728286,-0.49211277168123413
9.25389755011136,-0.5273512391274715
9.287305122494432,-0.4912217063567542
9.320712694877507,-0.34509995401445615
9.35412026726058,-0.09260517298780424
9.387527839643653,0.2135100560809728
9.420935412026727,0.4873919986298
9.4543429844098,0.643797918413451
9.487750556792873,0.6344427876924307
9.521158129175948,0.4695035206570614
9.55456570155902,0.21372419088750855
9.587973273942094,-0.04068929651416526
9.621380846325168,-0.21075728643713026
9.654788418708241,-0.25161854643705095
9.688195991091314,-0.16586920382759288
9.721603563474389,0.007321509258076884
9.755011135857462,0.21420100634583694
9.788418708240535,0.40714984469813303
9.82182628062361,0.5556624757673705
9.855233853006682,0.6465339818016712
9.888641425389755,0.6780618634149815
9.92204899777283,0.6544225349366505
9.955456570155903,0.5836747956192562
9.988864142538976,0.4788196340261088
10.02227171492205,0.3587419512992835
10.055679287305123,0.24586439445927058
10.089086859688196,0.15953293911391378
10.12249443207127,0.1072160952522988
10.155902004454344,0.07795200288593938
10.189309576837417,0.04268529530779624
10.222717149220491,-0.03645786310996992
10.256124721603564,-0.19043842927992188
10.289532293986637,-0.4276662537328223
10.322939866369712,-0.7259577880278396
10.356347438752785,-1.0364253261370395
10.389755011135858,-1.2979354774780902
10.423162583518932,-1.4557899968178738
10.456570155902005,-1.4767384305279554
10.489977728285078,-1.354849717134834
10.523385300668153,-1.1074473256283728
10.556792873051226,-0.7646988582138229
10.590200445434299,-0.35863869819684896
10.623608017817373,0.0832117968733092
10.657015590200446,0.5373175518232601
10.69042316258352,0.9781688094007861
10.723830734966594,1.371407309407221
10.757238307349667,1.6714251356591656
10.790645879732741,1.8269465015508974
10.824053452115814,1.7942474600365896
10.857461024498887,1.553611300227943
10.890868596881962,1.1222747675797966
10.924276169265035,0.5576550052120022
10.957683741648108,-0.05201131721691192
10.991091314031182,-0.6076348422016902
11.024498886414255,-1.023555922301728
11.057906458797328,-1.2480034781838705
11.091314031180403,-1.2730432243302108
11.124721603563476,-1.1314103039421168
11.158129175946549,-0.8825115014806185
11.191536748329623,-0.5934976694068381
11.224944320712696,-0.32222871884215404
11.25835189309577,-0.10702006377508207
11.291759465478844,0.03557324724594015
11.325167037861917,0.10710646578455732
11.35857461024499,0.12149339248973456
11.391982182628064,0.10022441278826862
11.425389755011137,0.06953067752468556
11.45879732739421,0.05844981997661854
11.492204899777285,0.09585858098066312
11.525612472160358,0.20496800267407475
11.55902004454343,0.39517274895990134
11.592427616926505,0.6530840391585249
11.625835189309578,0.936539991824526
11.659242761692651,1.1764141117077356
11.692650334075726,1.2898267366795824
11.726057906458799,1.2042213184698347
11.759465478841872,0.8857984097849058
11.792873051224946,0.3610392934661608
11.82628062360802,-0.2800260964858957
11.859688195991092,-0.9040475802677224
11.893095768374167,-1.3731464085226752
11.92650334075724,-1.5881859976125443
11.959910913140313,-1.5194894737741163
11.993318485523387,-1.2131546338721364
12.02672605790646,-0.7717305779945975
12.060133630289533,-0.3184275402113114
12.093541202672608,0.04079026358290591
12.12694877505568,0.24446999184061705
12.160356347438753,0.2856499264400475
12.193763919821828,0.20467090229517482
12.227171492204901,0.06958016736379623
12.260579064587974,-0.04901028425029184
12.293986636971049,-0.10122166567374191
12.327394209354122,-0.0724609475966095
12.360801781737194,0.015620423110772441
12.39420935412027,0.11835550915856219
12.427616926503342,0.19040447071455152
12.461024498886415,0.2075555532294087
12.49443207126949,0.17767768567485812
12.527839643652563,0.13500966678247725
12.561247216035635,0.12005578540987995
12.59465478841871,0.15517305343681356
12.628062360801783,0.2291616047402964
12.661469933184856,0.30041399443782235
12.69487750556793,0.3186477698965797
12.728285077951004,0.2546101482427081
12.761692650334076,0.12133105930366661
12.795100222717151,-0.026589811769716747
12.828507795100224,-0.11818222730255996
12.861915367483297,-0.10455850286358526
12.895322939866372,0.0096222118372383
12.928730512249444,0.16053034205135158
12.962138084632517,0.252047625556614
12.995545657015592,0.20451854675169415
13.028953229398665,0.0014957899783172093
13.062360801781738,-0.29080095222154506
13.095768374164813,-0.5443633107922801
13.129175946547885,-0.6235102465027975
13.162583518930958,-0.44759263949806316
13.195991091314033,-0.03227598391786147
13.229398663697106,0.5106450797742296
13.262806236080179,1.0148792638848645
13.296213808463254,1.3231464195036282
13.329621380846326,1.3439322455902425
13.3630289532294,1.0781826632264968
13.396436525612474,0.6084271102553931
13.429844097995547,0.060189567323076995
13.46325167037862,-0.44416789727494266
13.496659242761694,-0.8197545697133937
13.530066815144767,-1.031750189484784
13.56347438752784,-1.0884343582146416
13.596881959910915,-1.024609477824774
13.630289532293988,-0.8857980788598575
13.66369710467706,-0.7182284254407008
13.697104677060135,-0.5633057853507649
13.730512249443208,-0.4524919463448609
13.763919821826281,-0.4004859069280628
13.797327394209356,-0.3989227601435265
13.830734966592429,-0.41568554178342476
13.864142538975502,-0.4038809211851285
13.897550111358576,-0.3198278861556465
13.93095768374165,-0.1436752122610361
13.964365256124722,0.10704307148117002
13.997772828507797,0.3790387889281066
14.03118040089087,0.6017871532965509
14.064587973273943,0.7161769161752644
14.097995545657017,0.7005053565866355
14.13140311804009,0.581087872652915
14.164810690423163,0.421504334925949
14.198218262806238,0.29481557964810884
14.23162583518931,0.2516273144091023
14.265033407572384,0.2990708056619807
14.298440979955458,0.40035203881325365
14.331848552338531,0.4943014545590889
14.365256124721604,0.5246904345453526
14.398663697104679,0.46493926304337213
14.432071269487752,0.32710370709872444
14.465478841870825,0.15255559518070683
14.4988864142539,-0.009209733592237155
14.532293986636972,-0.12232507272193684
14.565701559020045,-0.17680186395193134
14.59910913140312,-0.18720536827411194
14.632516703786193,-0.1807513455271559
14.665924276169266,-0.1822893695966993
14.69933184855234,-0.20370001881168615
14.732739420935413,-0.24162732520609978
14.766146993318486,-0.28268196390247013
14.79955456570156,-0.311912995812744
14.832962138084634,-0.3198092197691642
14.866369710467707,-0.30497655090596043
14.899777282850781,-0.2724247652312922
14.933184855233854,-0.22950015332431034
14.966592427616927,-0.18209798084310158
15.0,-0.1330007312707652
