Time (s),Filtered Signal
0.0,-0.0037385240473335954
0.03337028824833703,0.15971440129379935
0.06674057649667406,0.3383919539828225
0.10011086474501109,0.5275674940611161
0.13348115299334812,0.6961683640610299
0.16685144124168516,0.7986665349120979
0.20022172949002218,0.7990942273078244
0.2335920177383592,0.6931137353393692
0.26696230598669624,0.5145541121678222
0.3003325942350333,0.32140339573858145
0.3337028824833703,0.16803805680211079
0.3670731707317073,0.07869748271356697
0.40044345898004435,0.03702157090875921
0.4338137472283814,-0.002211129543190769
0.4671840354767184,-0.08530729708793439
0.5005543237250555,-0.23090619743390514
0.5339246119733925,-0.41583047620940233
0.5672949002217295,-0.5832141614694092
0.6006651884700666,-0.6688796709504118
0.6340354767184035,-0.6327418224249575
0.6674057649667406,-0.4797687899968956
0.7007760532150776,-0.26032373452652996
0.7341463414634146,-0.0495744402034336
0.7675166297117517,0.08462689841405693
0.8008869179600887,0.11072849105377021
0.8342572062084257,0.04611185038347993
0.8676274944567628,-0.05227911499255069
0.9009977827050998,-0.11466302093780567
0.9343680709534368,-0.08976012101790065
0.9677383592017739,0.033717384962792495
1.001108647450111,0.22436447680957713
1.0344789356984478,0.42353384603806504
1.067849223946785,0.5700445340138847
1.101219512195122,0.6224843545038274
1.134589800443459,0.5706741810390975
1.167960088691796,0.4342308683569739
1.2013303769401331,0.25179905826204524
1.23470066518847,0.06700002216560078
1.268070953436807,-0.08360847063534811
1.3014412416851442,-0.17774943817415004
1.3348115299334813,-0.20951232501086167
1.3681818181818182,-0.18753787997683105
1.4015521064301553,-0.13096901621533397
1.4349223946784924,-0.06451317569070304
1.4682926829268292,-0.013361503209513874
1.5016629711751663,0.0017429852460312254
1.5350332594235034,-0.030962391752306216
1.5684035476718403,-0.11075401042809899
1.6017738359201774,-0.2230842734609513
1.6351441241685145,-0.3417307090690629
1.6685144124168514,-0.4351069744641042
1.7018847006651885,-0.47580329544205086
1.7352549889135256,-0.45039914357534283
1.7686252771618625,-0.3653701054615512
1.8019955654101996,-0.24570329651115128
1.8353658536585367,-0.1258170889646257
1.8687361419068735,-0.03620381098856278
1.9021064301552106,0.008338446758942422
1.9354767184035477,0.013566675894241173
1.9688470066518848,0.0018069179552384152
2.002217294900222,0.0014717108597615451
2.035587583148559,0.035207298272453884
2.0689578713968957,0.11168846880918606
2.102328159645233,0.2235500507972294
2.13569844789357,0.3508108308700273
2.1690687361419068,0.4672465976094526
2.202439024390244,0.5471640740554399
2.235809312638581,0.5711684219146282
2.269179600886918,0.5304837586630818
2.302549889135255,0.4294490311965858
2.335920177383592,0.28535011373277136
2.369290465631929,0.12475791343297248
2.4026607538802662,-0.023372697048241443
2.436031042128603,-0.1358545624749471
2.46940133037694,-0.20152517748378104
2.5027716186252773,-0.22296345244402202
2.536141906873614,-0.21316802360622847
2.569512195121951,-0.18922446197032067
2.6028824833702884,-0.16621757861155062
2.6362527716186253,-0.15378702357969246
2.6696230598669626,-0.15555553789686893
2.7029933481152995,-0.16993985482226628
2.7363636363636363,-0.1908750903198944
2.7697339246119737,-0.2084528931445235
2.8031042128603105,-0.21076942966028736
2.8364745011086474,-0.18791739708059213
2.8698447893569847,-0.13708943281317956
2.9032150776053216,-0.06583758767050003
2.9365853658536585,0.009453260932944595
2.969955654101996,0.07035799120214002
3.0033259423503327,0.10546905159148219
3.0366962305986696,0.11665034475824274
3.070066518847007,0.11843562517532251
3.1034368070953438,0.1302578358746632
3.1368070953436806,0.16539801500159834
3.170177383592018,0.22257003152910895
3.203547671840355,0.28467929342228976
3.2369179600886917,0.32545493802065967
3.270288248337029,0.320700143950322
3.303658536585366,0.25893264957310336
3.337028824833703,0.146834198247617
3.37039911308204,0.007383141280835301
3.403769401330377,-0.12851545750632007
3.437139689578714,-0.233649222470148
3.470509977827051,-0.2947218876406047
3.503880266075388,-0.3166607671732091
3.537250554323725,-0.3185606200451748
3.5706208425720622,-0.3225949119908442
3.603991130820399,-0.3411918384553206
3.637361419068736,-0.3695235219377257
3.6707317073170733,-0.3881431561944893
3.70410199556541,-0.3749560813453773
3.737472283813747,-0.31971566129013385
3.7708425720620844,-0.23188070432778865
3.8042128603104213,-0.13610737855975813
3.8375831485587586,-0.05728942358654786
3.8709534368070955,-0.004171713458172982
3.9043237250554323,0.03771929527720035
3.9376940133037697,0.09831653151808069
3.9710643015521065,0.2040518951278286
4.004434589800444,0.3586132628890058
4.037804878048781,0.5350931203311795
4.071175166297118,0.6848564291983399
4.1045454545454545,0.7588840121847137
4.137915742793791,0.730331466181311
4.171286031042128,0.6066118980170137
4.204656319290466,0.42537003166983317
4.238026607538803,0.23738711279593533
4.27139689578714,0.08570771748235975
4.304767184035477,-0.009005999848388005
4.3381374722838135,-0.05134519279614272
4.371507760532151,-0.06319213403271777
4.404878048780488,-0.07068450746527365
4.438248337028825,-0.09289644797121856
4.471618625277162,-0.13657396660756316
4.504988913525499,-0.1973637722544099
4.538359201773836,-0.2649243989155844
4.571729490022173,-0.3283907518366801
4.60509977827051,-0.37972878604706
4.638470066518847,-0.41442858278515576
4.671840354767184,-0.4304781644927596
4.705210643015521,-0.4269741669354022
4.738580931263858,-0.40323049991615545
4.771951219512196,-0.35853843920255235
4.8053215077605325,-0.29241949884627166
4.838691796008869,-0.20534717592984547
4.872062084257206,-0.10004390728501696
4.905432372505543,0.016843386037577155
4.93880266075388,0.13354155728394657
4.972172949002218,0.23371180721248394
5.005543237250555,0.29968959140066254
5.0389135254988915,0.31804627594884766
5.072283813747228,0.2855098182340184
5.105654101995565,0.2123321676068439
5.139024390243902,0.12072274357334993
5.17239467849224,0.03804020530792551
5.205764966740577,-0.012882138094688059
5.239135254988914,-0.022103827046497056
5.2725055432372505,0.004287715126971415
5.305875831485587,0.047852088100903106
5.339246119733925,0.08655757878812946
5.372616407982262,0.10436805653885008
5.405986696230599,0.0969851029230708
5.439356984478936,0.07111441591387231
5.472727272727273,0.03814993436247339
5.5060975609756095,0.006293280918922107
5.539467849223947,-0.0240107548735216
5.572838137472284,-0.05850473754341781
5.606208425720621,-0.10245871624643145
5.639578713968958,-0.15329097468407457
5.672949002217295,-0.19756700122809967
5.706319290465632,-0.2151035934063909
5.7396895787139695,-0.18876311625986816
5.773059866962306,-0.11492665867395668
5.806430155210643,-0.008613577774801538
5.83980044345898,0.10051592710222305
5.873170731707317,0.18044997497398635
5.906541019955654,0.211931427127079
5.939911308203992,0.19869531447707142
5.9732815964523285,0.16682829622620526
6.006651884700665,0.1523359609359705
6.040022172949002,0.1821877693070514
6.073392461197339,0.25823536568216493
6.106762749445676,0.3530125674671364
6.140133037694014,0.42108104181557826
6.173503325942351,0.4214264745999934
6.2068736141906875,0.33956642319421637
6.240243902439024,0.1967264531355715
6.273614190687361,0.03942803626794234
6.306984478935698,-0.08632681719214767
6.340354767184036,-0.1623370294492326
6.373725055432373,-0.21053500690746801
6.40709534368071,-0.28115800608582076
6.4404656319290465,-0.42105051190673964
6.473835920177383,-0.638645921198496
6.507206208425721,-0.8858455611392896
6.540576496674058,-1.069395882823135
6.573946784922395,-1.0891354828904876
6.607317073170732,-0.8857389377871074
6.640687361419069,-0.4743956741281704
6.674057649667406,0.053154204557233985
6.707427937915743,0.5605330684160744
6.74079822616408,0.9182663625123679
6.774168514412417,1.0513422097012481
6.807538802660754,0.9618866245752982
6.840909090909091,0.7188691136216031
6.874279379157428,0.42260290863906474
6.9076496674057655,0.16255051985569738
6.941019955654102,-0.012270790978012433
6.974390243902439,-0.09958117136057587
7.007760532150776,-0.12883094951287194
7.041130820399113,-0.13681006906564405
7.07450110864745,-0.1480874590735155
7.107871396895788,-0.16892250138941042
7.1412416851441245,-0.19398743967614393
7.174611973392461,-0.21796826636374417
7.207982261640798,-0.2427395147808916
7.241352549889135,-0.2752961782763432
7.274722838137472,-0.31857468811056533
7.30809312638581,-0.36230491712488117
7.341463414634147,-0.38125699407033997
7.3748337028824835,-0.3437917366619612
7.40820399113082,-0.2272830762952049
7.441574279379157,-0.03250547272799751
7.474944567627494,0.21100188305180329
7.508314855875832,0.4523138498546344
7.541685144124169,0.6367232682907936
7.575055432372506,0.7260547714796738
7.6084257206208425,0.7127499289095175
7.641796008869179,0.6214434754133532
7.675166297117517,0.4972140776982215
7.708536585365854,0.3855862668058838
7.741906873614191,0.31312050615436815
7.775277161862528,0.2772815160372341
7.808647450110865,0.2500969589357067
7.842017738359202,0.19372540235168662
7.875388026607539,0.0804806263187002
7.908758314855876,-0.09215649862970736
7.942128603104213,-0.2984752979141334
7.97549889135255,-0.4945334866447795
8.008869179600888,-0.6360789850220747
8.042239467849225,-0.6956881453352712
8.075609756097561,-0.6713219936192623
8.108980044345898,-0.5833467175022241
8.142350332594235,-0.4630924934070583
8.175720620842572,-0.3398002788993875
8.209090909090909,-0.23234778357976751
8.242461197339246,-0.14818660910578532
8.275831485587583,-0.08731622496683678
8.30920177383592,-0.04682662367932365
8.342572062084257,-0.02267239719911721
8.375942350332595,-0.008597314844511286
8.409312638580932,0.005108500071113751
8.442682926829269,0.030097682543989087
8.476053215077606,0.07511323231504928
8.509423503325943,0.14024788221229467
8.54279379157428,0.21418055520161206
8.576164079822616,0.2769407451231039
8.609534368070953,0.3075696869138409
8.64290465631929,0.29310011125988283
8.676274944567627,0.23441448692043668
8.709645232815964,0.14619580356695508
8.743015521064303,0.05124520821269913
8.77638580931264,-0.02789727663632849
8.809756097560976,-0.07618582259186439
8.843126385809313,-0.08936941507520534
8.87649667405765,-0.07274030503350441
8.909866962305987,-0.03674430537677859
8.943237250554324,0.008120207639181096
8.97660753880266,0.05487734526335325
9.009977827050998,0.10089514721396842
9.043348115299334,0.14599820048965156
9.076718403547671,0.189018047630278
9.110088691796008,0.2246068598831549
9.143458980044347,0.24223224983166886
9.176829268292684,0.22863280814474912
9.21019955654102,0.17359780923279788
9.243569844789358,0.0770333183031359
9.276940133037694,-0.04626910982666598
9.310310421286031,-0.16776733598521285
9.343680709534368,-0.2536118614755156
9.377050997782705,-0.2780016025066287
9.410421286031042,-0.2356459812650357
9.443791574279379,-0.14675187300997358
9.477161862527716,-0.05076974581830321
9.510532150776053,0.009588565128525862
9.543902439024391,0.007456004861705893
9.577272727272728,-0.0547832526508175
9.610643015521065,-0.14464139499668094
9.644013303769402,-0.2126106980081381
9.677383592017739,-0.21399390224836226
9.710753880266076,-0.12973381720101798
9.744124168514412,0.02363489137448913
9.77749445676275,0.2000430619034756
9.810864745011086,0.3434560221490087
9.844235033259423,0.4116496436863718
9.87760532150776,0.3925662629700664
9.910975609756099,0.3053763330532248
9.944345898004435,0.18652478273607695
9.977716186252772,0.06921861994939411
10.01108647450111,-0.03171936715286722
10.044456762749446,-0.12117219840637448
10.077827050997783,-0.21133854952720135
10.11119733924612,-0.30442192345184443
10.144567627494457,-0.38267225690763595
10.177937915742794,-0.4139076020250885
10.21130820399113,-0.3709468777822176
10.244678492239467,-0.2537851089772714
10.278048780487804,-0.09989576244612453
10.311419068736143,0.02648924810635281
10.34478935698448,0.06343475919881268
10.378159645232817,-0.015491976389792715
10.411529933481154,-0.18218302135201433
10.44490022172949,-0.36118096167054714
10.478270509977827,-0.4615500787471611
10.511640798226164,-0.4184137200090535
10.545011086474501,-0.2234758513300585
10.578381374722838,0.07070366950399722
10.611751662971175,0.3743113913274742
10.645121951219512,0.5992188433665864
10.67849223946785,0.6937464578153866
10.711862527716187,0.6574392476625847
10.745232815964524,0.5316729871807349
10.778603104212861,0.3744488599282046
10.811973392461198,0.2342574889469263
10.845343680709535,0.13560380851458745
10.878713968957872,0.0801827458769697
10.912084257206208,0.05847783631350489
10.945454545454545,0.061929948768406705
10.978824833702882,0.08765513385798795
11.012195121951219,0.1339693367905022
11.045565410199556,0.19150956468336175
11.078935698447895,0.23772536461076826
11.112305986696231,0.24049146338410643
11.145676274944568,0.1709340560192445
11.179046563192905,0.01955159372591751
11.212416851441242,-0.19321887127709517
11.245787139689579,-0.41890390487187906
11.279157427937916,-0.5963417297032242
11.312527716186253,-0.6745931673413471
11.34589800443459,-0.6333612559405924
11.379268292682926,-0.49158649573463176
11.412638580931263,-0.3001932553243889
11.4460088691796,-0.12225942661168525
11.479379157427939,-0.009568767133139085
11.512749445676276,0.014249253967895949
11.546119733924613,-0.04241635327308426
11.57949002217295,-0.1479353357078327
11.612860310421286,-0.2625254786127811
11.646230598669623,-0.35144903013641465
11.67960088691796,-0.39111799453027374
11.712971175166297,-0.3684695425815145
11.746341463414634,-0.27818369454777486
11.77971175166297,-0.12241846275370351
11.813082039911308,0.08595435869121562
11.846452328159646,0.320037917264566
11.879822616407983,0.5405496162076544
11.91319290465632,0.7048644003256996
11.946563192904657,0.7809207437500584
11.979933481152994,0.7595525495511871
12.01330376940133,0.6587322585778496
12.046674057649668,0.517031654670122
12.080044345898004,0.37893628386169814
12.113414634146341,0.2784177386401268
12.146784922394678,0.2275592815083075
12.180155210643015,0.21428178337432355
12.213525498891352,0.20909037700222702
12.24689578713969,0.17733975935448182
12.280266075388028,0.0921181475588471
12.313636363636364,-0.05643386713906096
12.347006651884701,-0.2576102229520854
12.380376940133038,-0.482635881727222
12.413747228381375,-0.6919245793667984
12.447117516629712,-0.8450129088096067
12.480487804878049,-0.9106250482842245
12.513858093126386,-0.8742281476553173
12.547228381374723,-0.7410115125659592
12.58059866962306,-0.5336396596041817
12.613968957871396,-0.2859670786827086
12.647339246119735,-0.03520577688347304
12.680709534368072,0.18498928222868352
12.714079822616409,0.3493018956527773
12.747450110864746,0.4436257275357754
12.780820399113082,0.4667352555330845
12.81419068736142,0.43076878320174156
12.847560975609756,0.3595298255923128
12.880931263858093,0.28350055124728923
12.91430155210643,0.2316975431728632
12.947671840354767,0.22241314304705986
12.981042128603104,0.25622006895777233
13.014412416851442,0.3144367513186512
13.04778270509978,0.3644784371317262
13.081152993348116,0.37087381498556915
13.114523281596453,0.3083021371636943
13.14789356984479,0.17182253617285329
13.181263858093127,-0.01985848059616205
13.214634146341464,-0.22973940476031204
13.2480044345898,-0.4146617499283161
13.281374722838137,-0.5393885624160418
13.314745011086474,-0.5868189634410556
13.348115299334811,-0.5604069581950331
13.381485587583148,-0.4788077689611656
13.414855875831487,-0.3666219897686717
13.448226164079824,-0.24646272556427376
13.48159645232816,-0.1355886002056829
13.514966740576497,-0.0465214726128527
13.548337028824834,0.011755294840204699
13.581707317073171,0.03516364202165507
13.615077605321508,0.02852041496813775
13.648447893569845,0.008724133216532575
13.681818181818182,0.0027047401239935803
13.715188470066519,0.038342767064048586
13.748558758314855,0.13132646814515486
13.781929046563192,0.27453410054404637
13.815299334811531,0.43633607594948864
13.848669623059868,0.5700641901878989
13.882039911308205,0.6312052538186349
13.915410199556542,0.5948805767755313
13.948780487804878,0.465911005719769
13.982150776053215,0.27715275693934355
14.015521064301552,0.07701145476236307
14.048891352549889,-0.08834365225173621
14.082261640798226,-0.1905278456717655
14.115631929046563,-0.22607907067338193
14.1490022172949,-0.21304319773388927
14.182372505543238,-0.17964979573800785
14.215742793791575,-0.15101725151424245
14.249113082039912,-0.14009950660862308
14.282483370288249,-0.14629710439738944
14.315853658536586,-0.16083876838472605
14.349223946784923,-0.17456361098985737
14.38259423503326,-0.18301324487823728
14.415964523281596,-0.18612212013183507
14.449334811529933,-0.18377957628987138
14.48270509977827,-0.17158668881615796
14.516075388026607,-0.1411408164084163
14.549445676274944,-0.08589743020803986
14.582815964523283,-0.00911835050874839
14.61618625277162,0.07214334383976265
14.649556541019956,0.13140979812265885
14.682926829268293,0.14462095627418795
14.71629711751663,0.10312462430377894
14.749667405764967,0.019784083114358735
14.783037694013304,-0.07620892081896087
14.81640798226164,-0.15339879495526354
14.849778270509978,-0.1929761058877557
14.883148558758315,-0.19582933811115025
14.916518847006651,-0.17783588587099605
14.949889135254988,-0.1567511317031597
14.983259423503327,-0.13917781712423327
15.016629711751664,-0.1158567834167672
15.05,-0.06814146407269905
15.083370288248338,0.018489013591459276
15.116740576496674,0.14223219167500287
15.150110864745011,0.28142898052336873
15.183481152993348,0.4018331144693872
15.216851441241685,0.4708288135543036
15.250221729490022,0.47135217972174426
15.283592017738359,0.408863186279992
15.316962305986696,0.3083686602286447
15.350332594235034,0.2030923972243573
15.383702882483371,0.1199288436048154
15.417073170731708,0.06810841067550223
15.450443458980045,0.036195509709647605
15.483813747228382,-0.0009588405039111644
15.517184035476719,-0.06815931776219304
15.550554323725056,-0.1750857193007934
15.583924611973393,-0.3079108121139786
15.61729490022173,-0.43173697153612706
15.650665188470066,-0.5033259190457698
15.684035476718403,-0.4888456496019084
15.71740576496674,-0.3790456033316239
15.750776053215079,-0.19528148941379317
15.784146341463416,0.016470579065121695
15.817516629711752,0.20159021865956517
15.85088691796009,0.3165657242753712
15.884257206208426,0.34447847148518845
15.917627494456763,0.29965736579163116
15.9509977827051,0.21941138605909818
15.984368070953437,0.14643138985271698
16.017738359201775,0.10974957897880462
16.05110864745011,0.1128687997583435
16.08447893569845,0.13428438399540435
16.117849223946784,0.139692188641408
16.151219512195123,0.09967290394426274
16.184589800443458,0.004325312782335469
16.217960088691797,-0.13176663135766672
16.251330376940132,-0.27587133328744645
16.28470066518847,-0.3909690731031397
16.31807095343681,-0.4501378800509764
16.351441241685144,-0.44488083504770726
16.384811529933483,-0.38443652763607133
16.418181818181818,-0.28796204427398836
16.451552106430157,-0.17492883630231015
16.48492239467849,-0.059250982510255366
16.51829268292683,0.05043499344243547
16.551662971175165,0.14630297470649728
16.585033259423504,0.21746035164089597
16.61840354767184,0.25081489861952694
16.651773835920178,0.23720040500570314
16.685144124168513,0.17911654599501625
16.71851441241685,0.09464428825363094
16.75188470066519,0.01395104310333939
16.785254988913525,-0.03091439079915952
16.818625277161864,-0.018339535438860563
16.8519955654102,0.0541241047287957
16.885365853658538,0.16826258132101904
16.918736141906873,0.29098457381289133
16.95210643015521,0.3845651021468673
16.985476718403547,0.41758254853371474
17.018847006651885,0.3735138024227763
17.05221729490022,0.25526050973442727
17.08558758314856,0.08490428400938344
17.118957871396898,-0.10134864746851419
17.152328159645233,-0.2623124776358516
17.18569844789357,-0.3631579578956314
17.219068736141907,-0.3857697303785747
