Frequency (Hz),Amplitude
0.0,4.407244593090377
0.020066889632107024,4.405217284342483
0.04013377926421405,4.399137768220888
0.060200668896321065,4.389013276795475
0.0802675585284281,4.3748558692711335
0.10033444816053512,4.356682440889781
0.12040133779264213,4.33451473594032
0.14046822742474915,4.308379365443553
0.1605351170568562,4.2783078302704
0.1806020066889632,4.244336550666944
0.20066889632107024,4.206506903406141
0.22073578595317725,4.164865268072391
0.24080267558528426,4.119463084322196
0.2608695652173913,4.0703569223652405
0.2809364548494983,4.017608569391467
0.3010033444816054,3.961285135252021
0.3210702341137124,3.9014591814107304
0.34113712374581934,3.8382088780511836
0.3612040133779264,3.7716181952936956
0.3812709030100334,3.701777135800276
0.4013377926421405,3.6287820176916656
0.42140468227424743,3.5527358187570792
0.4414715719063545,3.4737485955169896
0.4615384615384615,3.3919379939489116
0.4816053511705685,3.3074298727940974
0.5016722408026756,3.2203590655741725
0.5217391304347826,3.130870314075522
0.5418060200668896,3.0391194145103877
0.5618729096989966,2.9452746283515605
0.5819397993311036,2.849518423608467
0.6020066889632107,2.7520496298584733
0.6220735785953176,2.653086112603108
0.6421404682274248,2.5528681005100125
0.6622073578595318,2.451662333795062
0.6822742474916387,2.3497672439514936
0.7023411371237458,2.247519423648285
0.7224080267558528,2.145301697677086
0.7424749163879598,2.043553152684055
0.7625418060200668,1.9427815059326101
0.7826086956521738,1.843578153051324
0.802675585284281,1.7466360596793589
0.8227424749163879,1.6527702264380837
0.8428093645484949,1.5629395593187574
0.862876254180602,1.4782673368580863
0.882943143812709,1.4000547865537358
0.903010033444816,1.3297785059752099
0.923076923076923,1.2690583395074617
0.9431438127090299,1.2195802970507776
0.963210702341137,1.1829638061253194
0.983277591973244,1.160578990912902
1.0033444816053512,1.1533470595367723
1.0234113712374582,1.1615819538722751
1.0434782608695652,1.1849319361666144
1.0635451505016722,1.2224451581493663
1.0836120401337792,1.2727322801949783
1.1036789297658862,1.3341664823045574
1.1237458193979932,1.405063761409192
1.1438127090301002,1.4838122318042066
1.1638795986622072,1.5689460954378758
1.1839464882943145,1.659175561708632
1.2040133779264215,1.7533881358443806
1.2240802675585283,1.850634433965843
1.2441471571906353,1.9501075339678848
1.2642140468227423,2.0511211534695235
1.2842809364548495,2.1530893372044115
1.3043478260869565,2.255508749973893
1.3244147157190636,2.357943809365451
1.3444816053511706,2.4600144775769532
1.3645484949832773,2.561386367629356
1.3846153846153846,2.661762784271933
1.4046822742474916,2.7608783446080145
1.4247491638795986,2.8584938709609786
1.4448160535117056,2.954392300453827
1.4648829431438126,3.0483754039911077
1.4849498327759196,3.140261148806206
1.5050167224080266,3.229881572973475
1.5250836120401337,3.317081067877867
1.5451505016722407,3.4017149865609277
1.5652173913043477,3.483648513142583
1.5852842809364547,3.5627557420786458
1.605351170568562,3.6389189266371544
1.625418060200669,3.7120278642990985
1.6454849498327757,3.781979393318099
1.6655518394648827,3.8486769798069265
1.6856187290969897,3.9120303787665005
1.705685618729097,3.9719553556755924
1.725752508361204,4.028373457802587
1.745819397993311,4.08121182642851
1.765886287625418,4.130403042794253
1.7859531772575248,4.175885001890865
1.806020066889632,4.217600809267363
1.826086956521739,4.255498696887832
1.846153846153846,4.289531954769872
1.866220735785953,4.319658875711769
1.8862876254180598,4.345842710891892
1.9063545150501673,4.368051634520548
1.926421404682274,4.386258716058449
1.9464882943143813,4.400441898799781
1.966555183946488,4.410583983862473
1.9866220735785953,4.416672618842183
2.0066889632107023,4.418700290577043
2.026755852842809,4.416664321643991
2.0468227424749164,4.4105668703693945
2.0668896321070234,4.400414934292245
2.0869565217391304,4.386220357171843
2.1070234113712374,4.367999839788233
2.1270903010033444,4.3457749549475
2.1471571906354514,4.3195721672805085
2.1672240802675584,4.289422858618057
2.1872909698996654,4.255363359944576
2.2073578595317724,4.217434991183759
2.2274247491638794,4.175684110361434
2.2474916387959865,4.130162174035715
2.267558528428094,4.080925811293882
2.2876254180602005,4.028036914107853
2.3076923076923075,3.9715627474352235
2.3277591973244145,3.9115760831779727
2.3478260869565215,3.848155362998852
2.367892976588629,3.7813848960891914
2.3879598662207355,3.7113550993352105
2.408026755852843,3.6381627890129034
2.4280936454849495,3.561911535243327
2.4481605351170566,3.4827120930758664
2.468227424749164,3.4006829273855996
2.4882943143812706,3.315950852963849
2.508361204013378,3.2286518164962152
2.5284280936454846,3.138931853878054
2.548494983277592,3.0469482649214163
2.568561872909699,2.952871058476678
2.5886287625418056,2.8568847349721063
2.608695652173913,2.759190491151219
2.6287625418060196,2.660008954277164
2.648829431438127,2.559583581260514
2.668896321070234,2.4581848929373047
2.688963210702341,2.3561157554808716
2.709030100334448,2.2537179687994002
2.7290969899665547,2.151380472041306
2.749163879598662,2.049549519530418
2.769230769230769,1.9487411960825212
2.789297658862876,1.8495565881782774
2.809364548494983,1.7526997320332407
2.82943143812709,1.6589979922072646
2.849498327759197,1.569423581757039
2.869565217391304,1.4851132402507552
2.8896321070234112,1.407380366543756
2.9096989966555182,1.3377101553237274
2.9297658862876252,1.2777243611878402
2.9498327759197323,1.2291007678952295
2.9698996655518393,1.1934378750114967
2.9899665551839463,1.172072291538201
3.0100334448160533,1.165883328226257
3.0301003344481603,1.1751424949252216
3.0501672240802673,1.1994637081961361
3.0702341137123748,1.2378745326055378
3.0903010033444813,1.2889795666353367
3.1103678929765888,1.3511571963272466
3.1304347826086953,1.4227350582510732
3.1505016722408024,1.5021150459916808
3.1705685618729094,1.5878444554047688
3.1906354515050164,1.6786445138616997
3.210702341137124,1.7734112739601602
3.2307692307692304,1.8712015774589839
3.250836120401338,1.9712127795198873
3.270903010033445,2.072761343820474
3.2909698996655514,2.175262907129784
3.311036789297659,2.278214881139039
3.3311036789297654,2.3811818244503473
3.351170568561873,2.483783413571667
3.3712374581939795,2.5856846804193556
3.391304347826087,2.6865881480610248
3.411371237458194,2.7862275191834702
3.4314381270903005,2.8843626171557797
3.451505016722408,2.9807753296725346
3.471571906354515,3.0752663517097787
3.491638795986622,3.1676525648837055
3.511705685618729,3.257764923712528
3.531772575250836,3.345446746274133
3.551839464882943,3.4305523282460224
3.5719063545150496,3.512945816284998
3.591973244147157,3.5925002900443377
3.612040133779264,3.669097012592237
3.632107023411371,3.7426248172063565
3.652173913043478,3.8129796049690734
3.672240802675585,3.8800639326648794
3.692307692307692,3.9437866744892975
3.712374581939799,4.004062744252705
3.732441471571906,4.060812867285617
3.752508361204013,4.113963393265517
3.7725752508361197,4.163446142799181
3.7926421404682276,4.20919828189347
3.8127090301003346,4.251162219498417
3.832775919732441,4.28928552416065
3.852842809364548,4.323520856523534
3.872909698996655,4.353825914984712
3.8929765886287626,4.380163392297253
3.9130434782608696,4.402500941297543
3.933110367892976,4.420811148277303
3.953177257525083,4.435071512801824
3.9732441471571907,4.445264433022072
3.9933110367892977,4.45137719574363
4.013377926421405,4.453401970707586
4.033444816053511,4.451335808714126
4.053511705685618,4.445180643383692
4.073578595317726,4.434943296508889
4.093645484949833,4.420635487106726
4.113712374581939,4.402273844441021
4.133779264214047,4.379879925452513
4.153846153846153,4.3534802372157815
4.173913043478261,4.323106265242225
4.193979933110368,4.28879450867437
4.214046822742475,4.250586523676053
4.234113712374581,4.208528976625001
4.254180602006689,4.162673709070258
4.274247491638796,4.1130778168406925
4.294314381270903,4.05980374619968
4.314381270903009,4.002919410556702
4.334448160535117,3.942498331995962
4.354515050167224,3.878619812799851
4.374581939799331,3.811369143274678
4.394648829431437,3.7408378535830646
4.414715719063545,3.6671240190235053
4.434782608695651,3.590332630363492
4.454849498327759,3.5105760435464703
4.474916387959866,3.427974526505478
4.494983277591973,3.342656925122231
4.5150501672240795,3.254761475820197
4.535117056856188,3.1644367991934064
4.555183946488294,3.0718431178579553
4.575250836120401,2.977153752882561
4.595317725752508,2.880556967342962
4.615384615384615,2.782258243512966
4.635451505016722,2.6824831028192477
4.655518394648829,2.58148060584135
4.6755852842809364,2.479527704054223
4.695652173913043,2.376934655807436
4.71571906354515,2.2740517648578655
4.735785953177258,2.171277746120383
4.7558528428093645,2.0690700594445075
4.775919732441471,1.9679575557595497
4.795986622073578,1.868555707665272
4.816053511705686,1.771584470471368
4.8361204013377925,1.6778883084377922
4.856187290969899,1.5884569234242756
4.8762541806020065,1.504443477559061
4.896321070234113,1.4271743777883024
4.916387959866221,1.3581410710902087
4.936454849498328,1.2989607602346138
4.956521739130435,1.2512921238245465
4.976588628762541,1.2166984193032397
4.996655518394649,1.1964676240017662
5.016722408026756,1.191425030272446
5.036789297658863,1.2017940377570084
5.056856187290969,1.2271563291771905
5.076923076923077,1.2665273707940743
5.096989966555184,1.318517336117901
5.117056856187291,1.381521254873613
5.137123745819398,1.4538874009585552
5.157190635451505,1.5340371466956926
5.177257525083611,1.6205334403885918
5.197324414715719,1.712108599051642
5.217391304347826,1.807665569399672
5.237458193979933,1.9062647074807444
5.257525083612039,2.007104380760004
5.277591973244148,2.1095003269451
5.297658862876254,2.212866315814607
5.317725752508361,2.3166971887824346
5.337792642140468,2.4205545376389503
5.357859531772575,2.5240548830900615
5.377926421404682,2.6268600482671993
5.397993311036789,2.7286693805832414
5.418060200668896,2.8292134923740493
5.438127090301003,2.928249231536976
5.458193979933109,3.0255556400189954
5.478260869565218,3.1209307022491233
5.498327759197324,3.2141887242078138
5.518394648829431,3.305158216022445
5.538461538461538,3.3936801771436693
5.558528428093646,3.4796067040930128
5.578595317725752,3.5627998573704414
5.598662207357859,3.6431307372029123
5.618729096989966,3.7204787281185903
5.638795986622073,3.7947308804370876
5.65886287625418,3.86578140314819
5.678929765886288,3.9335312476869477
5.698996655518394,3.9978877660956127
5.719063545150501,4.0587644302230235
5.739130434782608,4.116080601128354
5.759197324414716,4.169761339867422
5.7792642140468224,4.219737252454039
5.799331103678929,4.265944363090445
5.8193979933110365,4.308324010814716
5.839464882943144,4.346822765571289
5.8595317725752505,4.381392360412903
5.879598662207358,4.411989637120726
5.8996655518394645,4.438576503008954
5.919732441471571,4.461119897081003
5.9397993311036785,4.4795917640426035
5.959866220735786,4.493969034965498
5.9799331103678925,4.504233613644927
5.999999999999999,4.510372367913014
6.020066889632107,4.512377125366518
6.040133779264214,4.51024467314681
6.060200668896321,4.503976761578776
6.080267558528428,4.493580111637934
6.100334448160535,4.479066426377203
6.120401337792642,4.460452406610262
6.1404682274247495,4.437759771323166
6.160535117056856,4.411015283474793
6.180602006688963,4.380250782055468
6.200668896321069,4.345503221509593
6.2207357859531776,4.306814719898892
6.240802675585284,4.2642326174993155
6.260869565217391,4.217809547896916
6.280936454849498,4.167603524091848
6.301003344481605,4.113678042652028
6.321070234113712,4.0561022096021215
6.341137123745819,3.994950892516872
6.361204013377926,3.930304904246529
6.381270903010033,3.8622512248808816
6.40133779264214,3.790883270014943
6.421404682274248,3.71630121518658
6.441471571906354,3.6386123886082737
6.461538461538461,3.557931747131591
6.481605351170568,3.4743824539175034
6.501672240802676,3.3880965807357835
6.521739130434782,3.299215963433473
6.54180602006689,3.207893246216038
6.561872909698996,3.114293159378677
6.581939799331103,3.0185940865104794
6.60200668896321,2.920989991580515
6.622073578595318,2.8216927944152763
6.642140468227424,2.720935305671834
6.662207357859531,2.618974860241495
6.682274247491639,2.516097821546922
6.702341137123746,2.412625168106027
6.722408026755852,2.3089194159645543
6.742474916387959,2.205393170521029
6.762541806020066,2.102519626438937
6.782608695652174,2.00084531990094
6.80267558528428,1.9010053370677742
6.822742474916388,1.8037409151114807
6.842809364548494,1.709918805451683
6.862876254180601,1.6205507090966291
6.882943143812709,1.5368093066114505
6.903010033444816,1.4600347244770646
6.9230769230769225,1.3917219031832766
6.94314381270903,1.3334763733284776
6.963210702341137,1.2869260584768545
6.983277591973244,1.2535839415033871
7.0033444816053505,1.2346736499604685
7.023411371237458,1.2309536943323693
7.0434782608695645,1.2425926858298737
7.063545150501672,1.269140624981276
7.083612040133779,1.3096073980495164
7.103678929765886,1.3626184534593344
7.123745819397993,1.4265954474797815
7.143812709030099,1.499915535126424
7.1638795986622075,1.58102517407681
7.183946488294314,1.6685059037774275
7.204013377926421,1.7611018409482435
7.224080267558528,1.8577218979735355
7.2441471571906355,1.957427934854318
7.264214046822742,2.0594166862991776
7.2842809364548495,2.163000209633382
7.304347826086956,2.2675873637869315
7.324414715719063,2.372667425634919
7.34448160535117,2.4777961569989024
7.364548494983278,2.5825842334473017
7.384615384615384,2.6866877715365356
7.404682274247491,2.7898006391229235
7.424749163879598,2.891648241579994
7.444816053511706,2.9919825106525404
7.464882943143812,3.090577864297872
7.48494983277592,3.1872279465705255
7.505016722408026,3.281742992774987
7.525083612040134,3.3739476956664105
7.545150501672239,3.463679473552414
7.565217391304348,3.5507870613656976
7.585284280936455,3.635129361908579
7.605351170568561,3.71657450726412
7.625418060200669,3.7949990904845596
7.645484949832775,3.8702875356589406
7.665551839464882,3.9423315807771244
7.685618729096991,4.011029852806394
7.705685618729096,4.0762875183625145
7.725752508361204,4.138015996512607
7.74581939799331,4.196132722765605
7.765886287625418,4.2505609553242065
7.785953177257525,4.30122961629516
7.806020066889631,4.348073161865896
7.826086956521739,4.391031476519442
7.846153846153847,4.430049787227302
7.866220735785952,4.465078594271424
7.88628762541806,4.496073615933454
7.906354515050166,4.522995744776968
7.926421404682274,4.545811013656898
7.946488294314381,4.564490569935438
7.966555183946488,4.57901065667889
7.986622073578595,4.5893525998658005
8.006688963210701,4.59550280086199
8.02675585284281,4.597452733620568
8.046822742474916,4.595198946250901
8.066889632107022,4.588743066775806
8.08695652173913,4.5780918130660675
8.107023411371236,4.563257007110658
8.127090301003344,4.544255593955392
8.147157190635452,4.521109665826364
8.167224080267557,4.4938464921540815
8.187290969899665,4.462498556435296
8.207357859531772,4.427103601119457
8.227424749163879,4.387704681994458
8.247491638795987,4.344350233881247
8.267558528428093,4.2970941498421595
8.2876254180602,4.245995876578084
8.307692307692307,4.19112052925386
8.327759197324415,4.1325390296732705
8.347826086956522,4.070328272553398
8.367892976588628,4.004571325661225
8.387959866220736,3.9353576708185276
8.408026755852843,3.86278349431524
8.42809364548495,3.786952037171096
8.448160535117056,3.707974018047258
8.468227424749163,3.6259681445561953
8.488294314381271,3.5410617324056566
8.508361204013378,3.453391456439517
8.528428093645484,3.363104263456597
8.548494983277592,3.270358484013467
8.568561872909697,3.1753251896429746
8.588628762541806,3.078189853524685
8.608695652173914,2.9791543871949955
8.628762541806019,2.8784396440187834
8.648829431438127,2.7762885025085757
8.668896321070234,2.6729696696858314
8.68896321070234,2.5687823766173454
8.709030100334449,2.464062174101924
8.729096989966555,2.3591880731939456
8.749163879598662,2.254591305716823
8.769230769230768,2.150765989514561
8.789297658862875,2.048281944095659
8.809364548494983,1.9477997647580167
8.82943143812709,1.8500879434813886
8.849498327759196,1.756041192519997
8.869565217391303,1.6666980022640465
8.889632107023411,1.583253655011425
8.909698996655518,1.5070623416018307
8.929765886287624,1.4396190236570805
8.949832775919733,1.3825094963819646
8.96989966555184,1.3373183293945319
8.989966555183946,1.3054924663233645
9.010033444816054,1.2881749812372614
9.030100334448159,1.2860443099460532
9.050167224080267,1.2992065537497217
9.070234113712376,1.3271787558423354
9.09030100334448,1.368969337697443
9.110367892976589,1.4232263151439155
9.130434782608695,1.4884061086347293
9.150501672240802,1.5629219947843591
9.17056856187291,1.645250925353121
9.190635451505017,1.7339963571057424
9.210702341137123,1.827915631658025
9.23076923076923,1.9259235313346479
9.250836120401337,2.0270822226681022
9.270903010033445,2.1305848823165565
9.290969899665551,2.2357375308230694
9.311036789297658,2.3419415466780658
9.331103678929765,2.448678009968718
9.351170568561873,2.555494255927607
9.37123745819398,2.6619926142372763
9.391304347826086,2.767821123795285
9.411371237458194,2.872665947587527
9.4314381270903,2.9762452092026286
9.451505016722408,3.078303997615563
9.471571906354516,3.1786103220428097
9.49163879598662,3.276951834830431
9.511705685618729,3.3731331733759524
9.531772575250837,3.466973800526553
9.551839464882942,3.5583062465615036
9.57190635451505,3.6469746751594663
9.591973244147155,3.7328337112837047
9.612040133779264,3.8157474813312215
9.632107023411372,3.895588825770739
9.652173913043477,3.9722386523427895
9.672240802675585,4.045585404129357
9.692307692307692,4.1155246217569745
9.712374581939798,4.181958582945575
9.732441471571907,4.244796005768264
9.752508361204013,4.303951804512338
9.77257525083612,4.359346889061547
9.792642140468226,4.410908000356329
9.812709030100335,4.458567575815025
9.832775919732441,4.502263639677703
9.852842809364548,4.541939714116123
9.872909698996656,4.577544747678478
9.89297658862876,4.609033058236738
9.91304347826087,4.636364288103943
9.933110367892976,4.6595033694075125
9.953177257525082,4.678420498160274
9.97324414715719,4.693091115775102
9.993311036789297,4.703495897034143
10.013377926421404,4.709620743757669
10.033444816053512,4.711456783628523
10.053511705685617,4.7090003738230015
10.073578595317725,4.702253109283156
10.093645484949834,4.691221835644924
10.113712374581938,4.675918667016034
10.133779264214047,4.656361008983134
10.153846153846153,4.632571587423682
10.17391304347826,4.604578483911945
10.193979933110368,4.572415178745338
10.214046822742475,4.536120602886063
10.234113712374581,4.495739200422108
10.254180602006688,4.451321003511886
10.274247491638796,4.402921722201573
10.294314381270903,4.350602852009564
10.31438127090301,4.294431802778071
10.334448160535118,4.234482053023101
10.354515050167223,4.170833334901045
10.37458193979933,4.103571855992651
10.394648829431437,4.032790565431523
10.414715719063544,3.958589473536718
10.434782608695652,3.8810760361253225
10.454849498327757,3.800365617180752
10.474916387959865,3.7165820466596307
10.494983277591974,3.629858294094611
10.515050167224079,3.5403372834887903
10.535117056856187,3.4481728810503087
10.555183946488295,3.3535310948887362
10.5752508361204,3.256591535262807
10.595317725752508,3.1575491957743314
10.615384615384615,3.0566166305455735
10.635451505016722,2.954026620419293
10.65551839464883,2.8500354430335904
10.675585284280936,2.7449268874413284
10.695652173913043,2.63901718333294
10.71571906354515,2.532661046132225
10.735785953177256,2.4262590679665696
10.755852842809364,2.3202667017705965
10.775919732441471,2.2152050743057767
10.795986622073578,2.1116737925224096
10.816053511705684,2.0103657233104655
10.836120401337793,1.9120833442401926
10.856187290969899,1.8177555579894447
10.876254180602006,1.7284526796612605
10.896321070234114,1.6453955076023496
