Time (s),Filtered Signal
0.0,-0.06260718262273826
0.03337004405286344,-0.18850227878690773
0.06674008810572687,-0.2624619479069963
0.10011013215859031,-0.25554167890583773
0.13348017621145375,-0.1732439610124204
0.16685022026431717,-0.05271278197873806
0.20022026431718062,0.05357407871284086
0.23359030837004408,0.10001121798560025
0.2669603524229075,0.06607048876319982
0.3003303964757709,-0.037077338265320066
0.33370044052863435,-0.1735025618989785
0.3670704845814978,-0.29892924034040574
0.40044052863436125,-0.37883092855947265
0.43381057268722467,-0.40053065481465205
0.46718061674008815,-0.375039953415881
0.5005506607929515,-0.3291224612968965
0.533920704845815,-0.2919139480639731
0.5672907488986785,-0.2819691825188912
0.6006607929515418,-0.29970057879120354
0.6340308370044053,-0.32763434693668947
0.6674008810572687,-0.3378629627159133
0.7007709251101322,-0.3035122272703138
0.7341409691629956,-0.20969482111934987
0.767511013215859,-0.059713853894507916
0.8008810572687225,0.12581614815250822
0.834251101321586,0.31638607617094006
0.8676211453744493,0.4823088743346388
0.9009911894273128,0.6041921236887038
0.9343612334801763,0.677332301634875
0.9677312775330397,0.7096055928096375
1.001101321585903,0.714408419870784
1.0344713656387665,0.7023541007523569
1.06784140969163,0.675775971132388
1.1012114537444935,0.6285159313349067
1.134581497797357,0.5508043985165767
1.1679515418502202,0.4365806442035217
1.2013215859030837,0.28951425379185436
1.2346916299559472,0.1246974307789951
1.2680616740088106,-0.03496117804176118
1.3014317180616741,-0.16621369630204277
1.3348017621145374,-0.2537156143428142
1.3681718061674009,-0.29560860977122844
1.4015418502202643,-0.3041015327673472
1.4349118942731278,-0.3007172890412436
1.4682819383259913,-0.3080254044458157
1.5016519823788548,-0.3411345607717683
1.535022026431718,-0.4023540824759013
1.5683920704845815,-0.4811087627913135
1.601762114537445,-0.5589033652375469
1.6351321585903085,-0.6169004111175739
1.668502202643172,-0.642598129391168
1.7018722466960352,-0.6327521754733956
1.7352422907488987,-0.591736758137616
1.7686123348017622,-0.52688092897724
1.8019823788546256,-0.443707351257901
1.8353524229074891,-0.34377442430732774
1.8687224669603526,-0.226178740769175
1.9020925110132159,-0.0916002230818314
1.9354625550660793,0.05380558782319985
1.9688325991189428,0.19746264154697135
2.002202643171806,0.32359321377860645
2.0355726872246698,0.4192958515233601
2.068942731277533,0.480162678194507
2.1023127753303967,0.5119731181044094
2.13568281938326,0.5270493193586796
2.1690528634361232,0.5369910834883674
2.202422907488987,0.5458156369496512
2.23579295154185,0.5475403198987886
2.269162995594714,0.5298851383166848
2.302533039647577,0.4823592870977592
2.3359030837004404,0.4044174650601949
2.369273127753304,0.3090218421087755
2.4026431718061674,0.21905514940257262
2.436013215859031,0.15761955765070423
2.4693832599118943,0.13660420885206276
2.5027533039647576,0.1493024839737842
2.5361233480176213,0.17139398886752905
2.5694933920704845,0.1707031246921367
2.6028634361233483,0.12158904328719987
2.6362334801762115,0.01703068197137724
2.6696035242290748,-0.1277860277098422
2.7029735682819385,-0.2823670898302918
2.7363436123348017,-0.4147654095628423
2.7697136563876654,-0.5051447677226406
2.8030837004405287,-0.5520939402318977
2.8364537444933924,-0.5688972357045805
2.8698237885462556,-0.5725891838370075
2.903193832599119,-0.5724690794422598
2.9365638766519826,-0.5647129398852805
2.969933920704846,-0.5359579797244816
3.0033039647577096,-0.47346823196127596
3.036674008810573,-0.37567452325207473
3.070044052863436,-0.25659401211718114
3.1034140969162998,-0.14101118669503165
3.136784140969163,-0.052512456938072855
3.1701541850220267,-0.0006837082400354079
3.20352422907489,0.025331321476742885
3.2368942731277532,0.05274895251243377
3.270264317180617,0.11183468409918085
3.30363436123348,0.21969210260019673
3.337004405286344,0.36937425106299193
3.370374449339207,0.5301607526655898
3.4037444933920704,0.65930584982542
3.437114537444934,0.7197239390164614
3.4704845814977974,0.6950536894220855
3.503854625550661,0.594977131907405
3.5372246696035243,0.4487797442526011
3.5705947136563876,0.29112036222050713
3.6039647577092513,0.14762022378218392
3.6373348017621145,0.02735383186863276
3.6707048458149782,-0.07486768788518595
3.7040748898678415,-0.16895529580818397
3.737444933920705,-0.25897035417634523
3.7708149779735685,-0.3378112408714459
3.8041850220264317,-0.390021771687888
3.8375550660792954,-0.40072716957299026
3.8709251101321587,-0.3651923142942206
3.9042951541850224,-0.29326451065630793
3.9376651982378856,-0.20602731094486312
3.971035242290749,-0.12649940979995836
4.004405286343612,-0.06954133901744881
4.037775330396476,-0.036416916279172235
4.0711453744493395,-0.016650516913639352
4.104515418502203,0.004330711807267473
4.137885462555066,0.03634501249650069
4.171255506607929,0.07928588103062317
4.2046255506607935,0.12411053960421989
4.237995594713657,0.1588679680262828
4.27136563876652,0.17594695238658414
4.304735682819383,0.1763335990224404
4.3381057268722465,0.16862503707280518
4.371475770925111,0.1636053486234818
4.404845814977974,0.16759665374385713
4.438215859030837,0.17829385853972285
4.4715859030837,0.18527060254086114
4.504955947136564,0.17480368415709893
4.538325991189428,0.1365288369116754
4.571696035242291,0.06873804899651322
4.605066079295154,-0.01999056962652572
4.638436123348018,-0.11332084410055075
4.671806167400881,-0.19255509417368397
4.705176211453745,-0.2426416913399901
4.738546255506608,-0.2566230630732355
4.7719162995594715,-0.23721435531083668
4.805286343612335,-0.19531381264693573
4.838656387665198,-0.14617970037021963
4.872026431718062,-0.10458906755883511
4.905396475770925,-0.08050841438444689
4.938766519823789,-0.07664906432736646
4.972136563876652,-0.08871995940647547
5.005506607929515,-0.1082821487578966
5.038876651982379,-0.1270938940228917
5.072246696035243,-0.14110907548755577
5.105616740088106,-0.15224015034638144
5.138986784140969,-0.16678932188341902
5.172356828193832,-0.19089685796156067
5.2057268722466965,-0.22490224538075568
5.23909691629956,-0.2594288369860863
5.272466960352423,-0.2756960423604815
5.305837004405286,-0.2509371790927949
5.3392070484581495,-0.16742733204150337
5.372577092511014,-0.021584923166448007
5.405947136563877,0.17100148394122272
5.43931718061674,0.37744873263203044
5.4726872246696034,0.5563815027626111
5.506057268722468,0.6706666938537083
5.539427312775331,0.6993007714524727
5.572797356828194,0.6439797281664411
5.606167400881057,0.5280816382621274
5.639537444933921,0.3887667857792953
5.672907488986785,0.2652700842608931
5.706277533039648,0.18732991806643579
5.739647577092511,0.16704764445577105
5.7730176211453745,0.19599273787539528
5.806387665198238,0.2478876636705066
5.839757709251102,0.286127721504425
5.873127753303965,0.2745586817767383
5.9064977973568284,0.18903432040560642
5.939867841409692,0.026417115516128003
5.973237885462555,-0.19241711918375753
6.006607929515419,-0.42756818352364934
6.039977973568282,-0.6321280999941138
6.073348017621146,-0.7670211671757271
6.106718061674009,-0.8128159631601685
6.140088105726872,-0.7738012964968335
6.173458149779736,-0.6731413102489208
6.2068281938325995,-0.5419794580480849
6.240198237885463,-0.4078060871014258
6.273568281938326,-0.2870746653782189
6.306938325991189,-0.18434543295617656
6.3403083700440535,-0.09676661275655354
6.373678414096917,-0.020325602413917298
6.40704845814978,0.0458992589416166
6.440418502202643,0.09945766904413618
6.4737885462555065,0.13759803227484715
6.507158590308371,0.16117861646243412
6.540528634361234,0.17666372331120028
6.573898678414097,0.19479763960962113
6.60726872246696,0.22655093751822356
6.640638766519824,0.2783851581046568
6.674008810572688,0.3490497632627448
6.707378854625551,0.42913168664906753
6.740748898678414,0.503199365546796
6.774118942731278,0.553451130133053
6.807488986784141,0.563642619904972
6.840859030837005,0.522485365456948
6.874229074889868,0.4261543423623748
6.9075991189427315,0.27966560141852403
6.940969162995595,0.09676024239966695
6.974339207048458,-0.1020662983623883
7.007709251101322,-0.293321921538601
7.041079295154185,-0.45523109646297527
7.074449339207049,-0.5719412658184063
7.107819383259912,-0.6357734805832524
7.141189427312775,-0.6468748249401666
7.174559471365639,-0.6108371559926755
7.207929515418503,-0.535737070803832
7.241299559471366,-0.4300768695396697
7.274669603524229,-0.3022844186081949
7.308039647577092,-0.16133003810525007
7.3414096916299565,-0.01734647240166779
7.37477973568282,0.11873627115948923
7.408149779735683,0.23676876850798562
7.441519823788546,0.3295331816670948
7.47488986784141,0.39437620964548953
7.508259911894274,0.4334044092040299
7.541629955947137,0.4519617521232015
7.575,0.4558775143263245
7.608370044052863,0.4485550074676459
7.641740088105728,0.4291613942745444
7.675110132158591,0.3928719928608441
7.708480176211454,0.3333463332969248
7.741850220264317,0.24659926213064784
7.775220264317181,0.13461254054095373
7.808590308370045,0.006878835418868032
7.841960352422908,-0.12118972354502518
7.875330396475771,-0.23263786027821134
7.9087004405286345,-0.31432967106871484
7.942070484581498,-0.3608238988788392
7.975440528634362,-0.3748965441335427
8.008810572687224,-0.3645641560056679
8.042180616740088,-0.33839041004603465
8.075550660792953,-0.3018165414212548
8.108920704845815,-0.25654652302236985
8.142290748898679,-0.20300263025579002
8.175660792951541,-0.14382991468947323
8.209030837004406,-0.08572254354180645
8.24240088105727,-0.037949073000936966
8.275770925110132,-0.008155215933116468
8.309140969162996,0.0020757380184199194
8.342511013215859,-0.0009965193939480248
8.375881057268723,-0.0057136124733604765
8.409251101321587,-0.0008952903113190209
8.44262114537445,0.01773185474016886
8.475991189427313,0.044101427332565175
8.509361233480176,0.06372520242950365
8.54273127753304,0.060743515291311334
8.576101321585904,0.02712507506174913
8.609471365638766,-0.030531975506256616
8.64284140969163,-0.0905617305493893
8.676211453744493,-0.12340117525678165
8.709581497797357,-0.10389201556533725
8.742951541850221,-0.02333148352492613
8.776321585903084,0.10455950652663298
8.809691629955948,0.2470835983383356
8.84306167400881,0.36439361573114926
8.876431718061674,0.42461204348876136
8.909801762114538,0.41554214817970964
8.9431718061674,0.34793039659613023
8.976541850220265,0.24926929640164489
9.009911894273127,0.15143209975765282
9.043281938325991,0.07791649093626558
9.076651982378856,0.03613498916303339
9.110022026431718,0.017467033792511896
9.143392070484582,0.00415889916037111
9.176762114537445,-0.020693533935555432
9.210132158590309,-0.0647834650971365
9.243502202643173,-0.1233824401862105
9.276872246696035,-0.18221290353595457
9.3102422907489,-0.224553813172693
9.343612334801762,-0.23899711742255045
9.376982378854626,-0.22429371134346343
9.41035242290749,-0.1893637921842093
9.443722466960352,-0.14892042703478395
9.477092511013216,-0.11710640170574622
9.510462555066079,-0.102199965769424
9.543832599118943,-0.10460734018323835
9.577202643171807,-0.11854753662554718
9.61057268722467,-0.13599342462710737
9.643942731277534,-0.15046823064163026
9.677312775330396,-0.15864774504196955
9.71068281938326,-0.15915693929727096
9.744052863436124,-0.14969554548154002
9.777422907488987,-0.12473006976317214
9.81079295154185,-0.07580825580612874
9.844162995594713,0.004888482664186218
9.877533039647577,0.11910795262864037
9.910903083700441,0.2579718811995974
9.944273127753304,0.4010811670531052
9.977643171806168,0.5205578140962971
10.01101321585903,0.58898624171217
10.044383259911895,0.588248478563938
10.077753303964759,0.5156357679802479
10.111123348017621,0.38470903912477666
10.144493392070485,0.22065807184026895
10.177863436123348,0.05224857572465994
10.211233480176212,-0.09629299380582246
10.244603524229076,-0.21046855691346197
10.277973568281938,-0.28644762941131047
10.311343612334802,-0.3284435170343082
10.344713656387665,-0.34453638020657246
10.378083700440529,-0.343046955465254
10.411453744493393,-0.330635513526965
10.444823788546255,-0.31208933003482064
10.47819383259912,-0.29100532208425484
10.511563876651982,-0.2705274169946012
10.544933920704846,-0.2536754650076895
10.57830396475771,-0.2431494489093285
10.611674008810573,-0.24061572398298187
10.645044052863437,-0.2455416055211715
10.678414096916299,-0.2538747624637111
10.711784140969163,-0.2572453222744368
10.745154185022027,-0.24358611744657033
10.77852422907489,-0.19977068393579553
10.811894273127754,-0.11599655179229203
10.845264317180618,0.009454776408929402
10.87863436123348,0.1671493830235515
10.912004405286345,0.3369504029292903
10.945374449339207,0.492526833659831
10.978744493392071,0.6086464088295278
11.012114537444935,0.6685547765286014
11.045484581497798,0.6685350312458956
11.078854625550662,0.6179341310791825
11.112224669603524,0.5349342565186497
11.145594713656388,0.44009499026268906
11.178964757709252,0.3503281284899033
11.212334801762115,0.2752877895987325
11.245704845814979,0.21670831673303256
11.279074889867841,0.1699239144126519
11.312444933920705,0.12634970100749604
11.34581497797357,0.07610680796486931
11.379185022026432,0.010625478141729056
11.412555066079296,-0.07472929811714127
11.445925110132158,-0.1783843041670145
11.479295154185023,-0.29161271681589496
11.512665198237887,-0.3999826187086825
11.546035242290749,-0.4874773409700267
11.579405286343613,-0.5421775129238074
11.612775330396476,-0.5611911470378069
11.64614537444934,-0.5523170283585078
11.679515418502204,-0.5310675137973077
11.712885462555066,-0.5137677202910079
11.74625550660793,-0.5095144116533447
11.779625550660793,-0.5147351741881757
11.812995594713657,-0.5132988564748221
11.846365638766521,-0.48277112175324977
11.879735682819383,-0.4044839006715805
11.913105726872248,-0.27300989871083725
11.94647577092511,-0.10055017016369142
11.979845814977974,0.08612388710376695
12.013215859030838,0.2551211224255554
12.0465859030837,0.38121076239008
12.079955947136565,0.45478150819304275
12.113325991189427,0.48417911007320935
12.146696035242291,0.49066335338002326
12.180066079295155,0.498426422927287
12.213436123348018,0.5240187925230165
12.246806167400882,0.5694546888458154
12.280176211453744,0.6214947570843878
12.313546255506608,0.6570526582094801
12.346916299559473,0.6523920068338362
12.380286343612335,0.5925271904992346
12.413656387665199,0.4773231130057905
12.447026431718061,0.32208851308401437
12.480396475770926,0.152516157107399
12.51376651982379,-0.00406095267306298
12.547136563876652,-0.12772263612037268
12.580506607929516,-0.21182370068167083
12.613876651982379,-0.26344077024097
12.647246696035243,-0.2984151218660225
12.680616740088107,-0.3332991154607902
12.71398678414097,-0.3778445584700751
12.747356828193833,-0.4313549550148371
12.780726872246696,-0.4843180751655021
12.81409691629956,-0.5241130850790421
12.847466960352424,-0.5415726605548477
12.880837004405286,-0.5348723614531623
12.91420704845815,-0.508829910100906
12.947577092511013,-0.4703453604645286
12.980947136563877,-0.422889230825751
13.014317180616741,-0.363417319034396
13.047687224669604,-0.2836526737382335
13.081057268722468,-0.17521963962278828
13.11442731277533,-0.036022173888301263
13.147797356828194,0.12542166040403308
13.181167400881058,0.29002555338383496
13.21453744493392,0.4328969278509797
13.247907488986785,0.531074069120157
13.281277533039647,0.5712155604930493
13.314647577092511,0.5541769126004875
13.348017621145376,0.4945566783402506
13.381387665198238,0.41519761029995195
13.414757709251102,0.3386291267214057
13.448127753303964,0.2788039014478773
13.481497797356829,0.236598025549574
13.514867841409693,0.2011732265634363
13.548237885462555,0.15681864048806765
13.58160792951542,0.09229605657401248
13.614977973568282,0.008259697188380065
13.648348017621146,-0.08110805132259723
13.68171806167401,-0.15355000078912395
13.715088105726872,-0.1891242357400611
13.748458149779736,-0.18068822246635155
13.781828193832599,-0.13916086783708279
13.815198237885463,-0.09044471413762024
13.848568281938327,-0.06487659806441706
13.88193832599119,-0.08392768110052341
13.915308370044054,-0.1505300613294344
13.948678414096916,-0.24779179842184879
13.98204845814978,-0.34663813446240715
14.015418502202644,-0.41830591180862486
14.048788546255507,-0.44522294198180623
14.08215859030837,-0.4250418520972217
14.115528634361233,-0.3667445613298203
14.148898678414097,-0.28228483151049066
14.182268722466961,-0.1794481355481812
14.215638766519824,-0.060232617556317446
14.249008810572688,0.07488992161310766
14.28237885462555,0.2204094750445712
14.315748898678414,0.3619514107836808
14.349118942731279,0.47841228179457285
14.382488986784141,0.549433736895455
14.415859030837005,0.5641450027446945
14.449229074889868,0.5261394565066225
14.482599118942732,0.4516829253709996
14.515969162995596,0.36193508491429444
14.549339207048458,0.2733044468560823
14.582709251101322,0.19107827512384762
14.616079295154185,0.10963386227392961
14.649449339207049,0.0188926436159359
14.682819383259913,-0.08675156063560603
14.716189427312775,-0.2021274648788518
14.74955947136564,-0.3112145988033752
14.782929515418502,-0.3934588154880331
14.816299559471366,-0.4331271717033568
14.84966960352423,-0.42672394043782524
14.883039647577093,-0.38457570233089694
14.916409691629957,-0.32583190323687095
14.94977973568282,-0.2695629271909177
14.983149779735683,-0.22653081375563522
15.016519823788547,-0.19563478846091445
15.04988986784141,-0.16643127978322436
15.083259911894274,-0.1259766830582139
15.116629955947138,-0.06621433456405307
15.15,0.011807285352209573
15.183370044052865,0.09864180384564697
15.216740088105727,0.18116178086346169
15.250110132158591,0.24842802163380553
15.283480176211455,0.2955881586406531
15.316850220264318,0.3240840368909413
15.350220264317182,0.338628291121063
15.383590308370044,0.3431102042532569
15.416960352422908,0.3378993829546591
15.450330396475772,0.3198983700286202
15.483700440528635,0.2849694107001669
15.517070484581499,0.2311071720736949
15.550440528634361,0.16057275467795623
15.583810572687225,0.08000366572215696
15.61718061674009,-0.0013718687276119443
15.650550660792952,-0.07448342753342636
15.683920704845816,-0.13297320402636745
15.717290748898678,-0.17467767299352005
15.750660792951543,-0.20168441867924322
15.784030837004407,-0.21913330868334158
15.817400881057269,-0.2332682409123756
15.850770925110133,-0.24934436747449265
15.884140969162996,-0.26991987161354014
15.91751101321586,-0.29392093828121046
15.950881057268724,-0.3167186138062108
15.984251101321586,-0.3312645818515366
16.01762114537445,-0.330058905394937
16.050991189427315,-0.30742515760583794
16.084361233480177,-0.2614062827207738
16.11773127753304,-0.19469257472645676
16.151101321585905,-0.11430596024330311
16.184471365638768,-0.03010671380110964
16.21784140969163,0.04758147770491554
16.251211453744492,0.11077614592260955
16.284581497797358,0.15640578519180415
16.31795154185022,0.18772549552069087
16.351321585903083,0.21363606467902424
16.38469162995595,0.24550914209808355
16.41806167400881,0.29225400769825527
16.451431718061674,0.3555705445788862
16.48480176211454,0.4277940177625358
16.518171806167402,0.4938750967353897
16.551541850220264,0.53704044846267
16.584911894273127,0.5455549779304995
16.618281938325993,0.5170758838380298
16.651651982378855,0.45815004227945144
16.685022026431717,0.37909865258745784
16.718392070484583,0.28736509417136513
16.751762114537446,0.18356609362649956
16.785132158590308,0.06303215484690693
16.818502202643174,-0.07778271662987032
16.851872246696036,-0.23396712684665824
16.8852422907489,-0.3889003556992607
16.91861233480176,-0.5179967999483901
16.951982378854627,-0.5982253759160581
16.98535242290749,-0.6185122195353562
17.01872246696035,-0.5852598805691703
17.052092511013218,-0.5197583348083963
17.08546255506608,-0.44872132022538946
17.118832599118942,-0.3929096230731866
17.152202643171808,-0.3596771705934532
17.18557268722467,-0.34291729805386345
17.218942731277533,-0.32973666676316443
17.2523127753304,-0.3095680281539686
17.28568281938326,-0.28028654484067167
