Frequency (Hz),Amplitude
0.0,0.6215520845719364
0.01993355481727575,0.6213738054471243
0.0398671096345515,0.6208393237704046
0.059800664451827246,0.6199497072537766
0.079734219269103,0.6187067374844746
0.09966777408637874,0.6171129130418205
0.11960132890365449,0.6151714538925933
0.13953488372093023,0.6128863070960278
0.159468438538206,0.610262153857698
0.17940199335548174,0.6073044179788474
0.19933554817275748,0.6040192757538535
0.21926910299003324,0.600413667373462
0.23920265780730898,0.5964953098946808
0.25913621262458475,0.5922727118384825
0.27906976744186046,0.5877551894745696
0.29900332225913623,0.5829528848454477
0.318936877076412,0.5778767855710869
0.3388704318936877,0.5725387464572189
0.3588039867109635,0.5669515129043073
0.37873754152823924,0.5611287460782532
0.39867109634551495,0.5550850497552211
0.4186046511627907,0.5488359986892749
0.4385382059800665,0.5423981682687151
0.4584717607973422,0.5357891651232547
0.47840531561461797,0.5290276582120176
0.49833887043189373,0.5221334097611903
0.5182724252491695,0.5151273052222276
0.5382059800664452,0.5080313811840823
0.5581395348837209,0.5008688498912585
0.5780730897009968,0.4936641186913477
0.5980066445182725,0.4864428023609968
0.6179401993355482,0.479231725840315
0.637873754152824,0.47205891445209364
0.6578073089700996,0.4649535682085906
0.6777408637873754,0.45794601634029314
0.6976744186046512,0.45106764775524777
0.717607973421927,0.44435081280289596
0.7375415282392027,0.43782869154113024
0.7574750830564785,0.4315351237669085
0.7774086378737541,0.42550439646141425
0.7973421926910299,0.4197709851178485
0.8172757475083057,0.4143692467505476
0.8372093023255814,0.4093330642971326
0.8571428571428572,0.4046954446403434
0.877076411960133,0.4004880755495861
0.8970099667774087,0.3967408503377692
0.9169435215946844,0.3934813727104606
0.9368770764119602,0.3907344578114919
0.9568106312292359,0.38852164842572184
0.9767441860465116,0.38686076723575935
0.9966777408637875,0.3857655265347552
1.0166112956810631,0.385245215579424
1.036544850498339,0.3853044827285438
1.0564784053156147,0.38594322479771587
1.0764119601328903,0.38715659006504904
1.0963455149501662,0.38893509468472065
1.1162790697674418,0.3912648456157083
1.1362126245847177,0.39412785725848115
1.1561461794019936,0.39750244439718624
1.176079734219269,0.4013636711447528
1.196013289036545,0.4056838345082318
1.2159468438538206,0.4104329618148758
1.2358803986710964,0.4155793032633498
1.255813953488372,0.42108980387168066
1.275747508305648,0.4269305426366009
1.2956810631229239,0.43306713038649775
1.3156146179401993,0.43946506127082224
1.3355481727574752,0.44609001585451347
1.3554817275747508,0.4529081162495907
1.3754152823920267,0.4598861355784422
1.3953488372093024,0.4669916653504442
1.4152823920265782,0.4741932451139217
1.435215946843854,0.48146045910902574
1.4551495016611296,0.4887640046900243
1.4750830564784054,0.4960757370976615
1.495016611295681,0.5033686948225077
1.514950166112957,0.5106171093721866
1.5348837209302328,0.5177964027890667
1.5548172757475083,0.524883175795001
1.5747508305647842,0.5318551889904295
1.5946843853820598,0.5386913391222706
1.6146179401993357,0.5453716320651184
1.6345514950166113,0.5518771538374969
1.6544850498338872,0.5581900406979848
1.6744186046511629,0.5642934491325332
1.6943521594684385,0.5701715263506871
1.7142857142857144,0.575809381749115
1.73421926910299,0.581193059672806
1.754152823920266,0.5863095137017276
1.7740863787375416,0.5911465826098908
1.7940199335548175,0.5956929680819484
1.8139534883720931,0.5999382142245488
1.8338870431893688,0.6038726888749076
1.8538205980066447,0.6074875666839845
1.8737541528239203,0.6107748139337631
1.893687707641196,0.6137271750383324
1.9136212624584719,0.6163381606715982
1.9335548172757475,0.6186020374630428
1.9534883720930232,0.6205138192044807
1.9734219269102993,0.6220692595135877
1.993355481727575,0.6232648459060607
2.0132890365448506,0.6240977952352583
2.0332225913621262,0.6245660504655799
2.0531561461794023,0.6246682787553637
2.073089700996678,0.6244038708343925
2.0930232558139537,0.6237729416708664
2.1129568106312293,0.6227763324332931
2.132890365448505,0.6214156137633481
2.1528239202657806,0.6196930903862442
2.1727574750830567,0.6176118070963914
2.1926910299003324,0.615175556165764
2.212624584717608,0.6123888862343451
2.2325581395348837,0.6092571127500424
2.25249169435216,0.6057863300362802
2.2724252491694354,0.6019834250726852
2.292358803986711,0.597856093080701
2.312292358803987,0.5934128550116554
2.332225913621263,0.5886630770343657
2.352159468438538,0.5836169921193156
2.3720930232558137,0.57828572380761
2.39202657807309,0.5726813122398051
2.4119601328903655,0.5668167424971554
2.431893687707641,0.5607059752748478
2.4518272425249172,0.5543639798592831
2.471760797342193,0.5478067693186619
2.4916943521594686,0.5410514377289706
2.511627906976744,0.5341161991472694
2.5315614617940203,0.5270204278994493
2.551495016611296,0.5197846995687132
2.5714285714285716,0.512430831843607
2.5913621262458477,0.504981924105848
2.611295681063123,0.4974623942998862
2.6312292358803986,0.4898980112236307
2.6511627906976742,0.4823159199083001
2.6710963455149503,0.47474465721637477
2.691029900332226,0.46721415418612083
2.7109634551495017,0.4597557210045496
2.7308970099667778,0.4524020098270308
2.7508305647840534,0.4451869500245513
2.770764119601329,0.4381456498934793
2.7906976744186047,0.43131425849634475
2.810631229235881,0.4247297812241384
2.8305647840531565,0.4184298430168071
2.850498338870432,0.4124523940900276
2.870431893687708,0.40683535463753034
2.8903654485049834,0.4016161974204378
2.910299003322259,0.3968314704729921
2.9302325581395348,0.3925162663002593
2.950166112956811,0.38870364873753294
2.9700996677740865,0.3854240537402853
2.990033222591362,0.3827046852752331
3.0099667774086383,0.38056893155716154
3.029900332225914,0.3790358294458566
3.0498338870431896,0.3781196052710908
3.0697674418604657,0.3778293182796795
3.089700996677741,0.3781686282052615
3.1096345514950166,0.37913570144670383
3.129568106312292,0.38072326168736254
3.1495016611295683,0.38291878146142216
3.169435215946844,0.3857048022667702
3.1893687707641196,0.3890593633464269
3.2093023255813957,0.39295651397226894
3.2292358803986714,0.39736688135531834
3.249169435215947,0.40225826617067023
3.2691029900332227,0.4075962397769356
3.289036544850499,0.4133447209553317
3.3089700996677744,0.41946651472225327
3.32890365448505,0.42592380083525666
3.3488372093023258,0.432678564482234
3.3687707641196014,0.43969296593825197
3.388704318936877,0.446929649477347
3.4086378737541527,0.4543519944632501
3.428571428571429,0.46192431334590545
3.4485049833887045,0.4696120023607492
3.46843853820598,0.4773816512009993
3.4883720930232562,0.4852011179538448
3.508305647840532,0.49303957529404685
3.5282392026578075,0.500867533428576
3.548172757475083,0.5086568446759586
3.5681063122923593,0.5163806939128105
3.588039867109635,0.5240135784762945
3.60797342192691,0.5315312805067568
3.6279069767441863,0.5389108341669144
3.647840531561462,0.5461304896927858
3.6677740863787376,0.5531696758166514
3.6877076411960132,0.5600089617534122
3.7076411960132893,0.5666300196520567
3.727574750830565,0.5730155881768835
3.7475083056478407,0.5791494376932002
3.7674418604651168,0.5850163373810167
3.787375415282392,0.5906020244819298
3.807308970099668,0.5958931757939817
3.8272425249169437,0.6008773814605081
3.8471760797342194,0.605543121048619
3.867109634551495,0.6098797418770603
3.887043189368771,0.6138774395287298
3.9069767441860463,0.6175272404675554
3.9269102990033224,0.6208209866712182
3.9468438538205985,0.623751322188363
3.9667774086378738,0.6263116815301355
3.98671096345515,0.6284962798106842
4.0066445182724255,0.6303001045581691
4.026578073089701,0.6317189091268068
4.046511627906977,0.6327492076509569
4.0664451827242525,0.633388271493385
4.086378737541528,0.6336341271526713
4.106312292358805,0.6334855556070259
4.1262458471760795,0.6329420930861294
4.146179401993356,0.632004033275915
4.166112956810632,0.6306724309763233
4.186046511627907,0.6289491072464599
4.205980066445183,0.6268366560872752
4.225913621262459,0.6243384527273178
4.245847176079734,0.6214586635930127
4.26578073089701,0.6182022580612986
4.2857142857142865,0.6145750221082676
4.305647840531561,0.6105835739840679
4.325581395348838,0.6062353820593097
4.345514950166113,0.6015387850034626
4.365448504983389,0.5965030144686833
4.385382059800665,0.5911382204635506
4.40531561461794,0.5854554996083988
4.425249169435216,0.5794669264666465
4.445182724252492,0.5731855881420601
4.465116279069767,0.5666256223179685
4.485049833887043,0.5598022588880258
4.50498338870432,0.5527318652849866
4.524916943521594,0.5454319955483388
4.544850498338871,0.5379214430786108
4.5647840531561465,0.5302202968957683
4.584717607973422,0.5223500010439517
4.604651162790698,0.5143334165521076
4.624584717607974,0.5061948850580037
4.644518272425249,0.49796029281680254
4.664451827242526,0.489657133329447
4.6843853820598005,0.4813145662268898
4.704318936877076,0.4729634693186736
4.724252491694353,0.4646364798528037
4.7441860465116275,0.45636802003807
4.764119601328904,0.44819430076644695
4.78405315614618,0.44015329628039523
4.803986710963455,0.43228468132682674
4.823920265780731,0.4246297212363593
4.8438538205980075,0.4172311045225675
4.863787375415282,0.41013270722532763
4.883720930232559,0.4033792785906849
4.9036544850498345,0.39701603908911975
4.92358803986711,0.3910881845289463
4.943521594684386,0.38564029437215647
4.963455149501661,0.38071564842048167
4.983388704318937,0.3763554636985941
5.003322259136213,0.3725980721883008
5.023255813953488,0.36947806926111243
5.043189368770764,0.3670254710608103
5.063122923588041,0.36526492531296184
5.083056478405315,0.3642150226900945
5.102990033222592,0.3638877538548725
5.122923588039868,0.36428815017901844
5.142857142857143,0.36541413428706804
5.162790697674419,0.36725659128619287
5.182724252491695,0.369799654797352
5.20265780730897,0.3730211859852615
5.222591362126246,0.37689341080404465
5.242524916943522,0.38138367213341423
5.262458471760797,0.38645525001916414
5.282392026578074,0.3920682046126535
5.3023255813953485,0.3981802016878906
5.322259136212625,0.4047472884686102
5.342192691029901,0.41172459651129123
5.362126245847176,0.41906695733660987
5.382059800664452,0.42672942448058787
5.4019933554817285,0.4346677021235573
5.421926910299003,0.44283848525522385
5.44186046511628,0.45119971950931054
5.4617940199335555,0.4597107905673328
5.48172757475083,0.46833265367945154
5.501661129568107,0.47702791368536857
5.5215946843853825,0.4857608652120281
5.541528239202658,0.4944975017060644
5.561461794019934,0.5032055007984798
5.5813953488372094,0.5118541923191661
5.601328903654485,0.5204145141592178
5.621262458471762,0.5288589601649618
5.641196013289036,0.5371615233612916
5.661129568106313,0.5452976370479666
5.681063122923589,0.5532441156862349
5.700996677740864,0.5609790969824682
5.72093023255814,0.568481986166775
5.740863787375416,0.5757334031427161
5.760797342192691,0.5827151329351115
5.780730897009967,0.5894100796731678
5.800664451827243,0.5958022242048525
5.820598006644518,0.6018765853353123
5.840531561461795,0.6076191846092437
5.8604651162790695,0.613017014507848
5.880398671096346,0.6180580098998946
5.900332225913622,0.6227310225688555
5.920265780730897,0.6270257986311111
5.940199335548173,0.6309329586608385
5.960132890365449,0.6344439803435274
5.980066445182724,0.6375511834903271
6.0,0.6402477172585221
6.0199335548172765,0.6425275494390233
6.039867109634551,0.6443854576877577
6.059800664451828,0.6458170225959287
6.0797342192691035,0.6468186225117528
6.099667774086379,0.6473874300452552
6.119601328903655,0.6475214102064579
6.139534883720931,0.6472193201467303
6.159468438538206,0.6464807104925921
6.179401993355482,0.6453059282818466
6.1993355481727574,0.6436961215321227
6.219269102990033,0.6416532454937355
6.23920265780731,0.6391800706608869
6.259136212624584,0.6362801926383701
6.279069767441861,0.6329580439853743
6.299003322259137,0.6292189081834573
6.318936877076412,0.6250689359023086
6.338870431893688,0.620515163765483
6.3588039867109645,0.6155655358469836
6.378737541528239,0.6102289281604616
6.398671096345516,0.604515176433364
6.418604651162791,0.5984351074898094
6.438538205980066,0.5920005745959567
6.458471760797343,0.5852244971499363
6.4784053156146175,0.5781209051220538
6.498338870431894,0.5707049886682507
6.51827242524917,0.5629931533461145
6.538205980066445,0.5550030813532215
6.558139534883721,0.5467537991761615
6.578073089700998,0.5382657519745349
6.598006644518272,0.5295608849182015
6.617940199335549,0.520662731530376
6.6378737541528245,0.5115965088471234
6.6578073089701,0.5023892188594969
6.677740863787376,0.49306975523100094
6.6976744186046515,0.48366901364453874
6.717607973421927,0.47422000329139924
6.737541528239203,0.46475795592878527
6.7574750830564785,0.455320427559622
6.777408637873754,0.44594738609715984
6.797342192691031,0.4366812763493104
6.8172757475083055,0.42756705131329903
6.837209302325582,0.41865215618161145
6.857142857142858,0.4099864487815783
6.877076411960133,0.40162203767418025
6.897009966777409,0.3936130172379675
6.9169435215946855,0.3860150783415406
6.93687707641196,0.3788849743977519
6.956810631229236,0.37227982652573005
6.9767441860465125,0.36625625901836084
6.996677740863787,0.36086936786847895
7.016611295681064,0.35617154074425916
7.036544850498339,0.35221116566955585
7.056478405315615,0.349031285815559
7.076411960132891,0.34666827622254043
7.096345514950166,0.345150631198941
7.116279069767442,0.34449795489099344
7.136212624584719,0.3447202394744839
7.156146179401993,0.345817495082099
7.17607973421927,0.34777976510308967
7.196013289036546,0.35058752446888825
7.21594684385382,0.3542124229763876
7.235880398671097,0.35861830647731885
7.2558139534883725,0.3637624301390174
7.275747508305648,0.3695967716940409
7.295681063122924,0.37606935776878136
7.3156146179402,0.3831255301863462
7.335548172757475,0.39070909783376734
7.355481727574752,0.3987633396165027
7.3754152823920265,0.40723184234477816
7.395348837209303,0.41605917234701495
7.415282392026579,0.42519139048011906
7.435215946843854,0.4345764271002882
7.45514950166113,0.4441643370589268
7.475083056478406,0.45390745569651664
7.495016611295681,0.4637604759341266
7.514950166112956,0.4736804646116634
7.5348837209302335,0.4836268337423275
7.554817275747508,0.4935612797330764
7.574750830564784,0.5034477011099966
7.5946843853820605,0.5132521030269062
7.614617940199336,0.5229424948886835
7.634551495016611,0.5324887858010576
7.6544850498338874,0.5418626812465152
7.674418604651163,0.5510375833499065
7.694352159468439,0.5599884962943128
7.714285714285715,0.5686919378402324
7.73421926910299,0.577125857449325
7.754152823920266,0.5852695611869072
7.774086378737542,0.5931036433464603
7.794019933554818,0.6006099245820853
7.813953488372093,0.6077713962337162
7.83388704318937,0.6145721704692156
7.853820598006645,0.6209974358377168
7.8737541528239205,0.6270334178196737
7.893687707641197,0.6326673439656441
7.913621262458472,0.637887413232587
7.9335548172757475,0.6426827691497897
7.953488372093024,0.6470434764740227
7.9734219269103,0.6509605010235201
7.9933554817275745,0.6544256924109346
8.013289036544851,0.6574317694265827
8.033222591362128,0.6599723078536576
8.053156146179402,0.662041730527328
8.073089700996679,0.6636352994785372
8.093023255813954,0.664749110031749
8.11295681063123,0.665380086753414
8.132890365448505,0.6655259811754098
8.152823920265782,0.6651853712440471
8.172757475083056,0.6643576624723934
8.192691029900331,0.6630430908004976
8.21262458471761,0.6612427271957829
8.232558139534884,0.6589584840544302
8.252491694352159,0.6561931234943826
8.272425249169435,0.6529502676622967
8.292358803986712,0.6492344112102201
8.312292358803987,0.6450509361345604
8.332225913621263,0.6404061292087284
8.352159468438538,0.6353072022841696
8.372093023255815,0.6297623157811135
8.392026578073091,0.6237806057417795
8.411960132890366,0.6173722148745896
8.43189368770764,0.610548328079153
8.451827242524917,0.6033212130075029
8.471760797342194,0.5957042662877514
8.491694352159469,0.5877120661106374
8.511627906976745,0.5793604319561735
8.53156146179402,0.5706664923138136
8.551495016611296,0.5616487613213998
8.571428571428573,0.5523272253093938
8.591362126245848,0.5427234402780498
8.611295681063122,0.5328606413436922
8.6312292358804,0.5227638651469816
8.651162790697676,0.512460086095972
8.67109634551495,0.5019783670838659
8.691029900332227,0.491350024930189
8.710963455149502,0.4806088101812192
8.730897009966778,0.4697910999929474
8.750830564784053,0.45893610150817676
8.77076411960133,0.44808606130912315
8.790697674418604,0.4372864740445892
8.81063122923588,0.4265862800538471
8.830564784053157,0.4160380376157744
8.850498338870432,0.405698050272393
8.870431893687707,0.3956264235627506
8.890365448504983,0.38588701871916586
8.91029900332226,0.37654726401860816
8.930232558139535,0.367677778613235
8.950166112956811,0.35935176043532835
8.970099667774086,0.351644091444785
8.990033222591363,0.34463012276234883
9.00996677740864,0.3383841217578747
9.029900332225914,0.3329773946406259
9.049833887043189,0.328476141040402
9.069767441860467,0.324939147521407
9.089700996677742,0.3224154768452727
9.109634551495017,0.3209423475553188
9.129568106312293,0.320543411684326
9.14950166112957,0.3212276179593742
9.169435215946844,0.3229887922095608
9.189368770764121,0.32580598400291383
9.209302325581396,0.32964453547776373
9.22923588039867,0.33445774489233304
9.249169435215949,0.3401889404184486
9.269102990033224,0.3467737576987538
9.289036544850498,0.3541424264181494
9.308970099667773,0.36222190772546475
9.328903654485051,0.37093777348799084
9.348837209302326,0.3802157685252024
9.368770764119601,0.38998303996762423
9.388704318936878,0.4001690496495393
9.408637873754152,0.410706205364893
9.428571428571429,0.42153025650503967
9.448504983388705,0.43258050164762935
9.46843853820598,0.4437998527500981
9.488372093023255,0.45513479497220855
9.508305647840533,0.4665352744658953
9.528239202657808,0.47795453980267233
9.548172757475083,0.4893489566679526
9.56810631229236,0.5006778103119981
9.588039867109636,0.511903106071556
9.60797342192691,0.5229893750021989
9.627906976744187,0.5339034891732038
9.647840531561462,0.5446144893353655
9.667774086378738,0.5550934263478737
9.687707641196015,0.5653132168229397
9.70764119601329,0.5752485128215185
9.727574750830565,0.5848755850289028
9.747508305647841,0.5941722185953149
9.767441860465118,0.603117620696626
9.787375415282392,0.6116923388181538
9.807308970099669,0.6198781887659468
9.827242524916944,0.6276581914446292
9.84717607973422,0.6350165174969896
9.867109634551497,0.6419384389678545
9.887043189368772,0.6484102872272939
9.906976744186046,0.6544194164618605
9.926910299003321,0.6599541721147796
9.9468438538206,0.6650038637240864
9.966777408637874,0.6695587416726277
9.986710963455149,0.6736099774233897
10.006644518272426,0.6771496468691316
10.026578073089702,0.6801707164761502
10.046511627906977,0.6826670319488449
10.066445182724253,0.6846333091853725
10.086378737541528,0.6860651273347123
10.106312292358805,0.6869589238033884
10.126245847176081,0.6873119910957082
10.146179401993356,0.6871224754057121
10.16611295681063,0.6863893769123577
10.186046511627907,0.6851125517624248
10.205980066445184,0.6832927157589372
10.225913621262459,0.6809314498069647
10.245847176079735,0.6780312072042416
10.26578073089701,0.6745953229019004
10.285714285714286,0.6706280249012683
10.305647840531563,0.6661344479972484
10.325581395348838,0.6611206501280347
10.345514950166113,0.6555936316457379
10.36544850498339,0.6495613578843445
10.385382059800666,0.6430327854713046
10.40531561461794,0.6360178929085032
10.425249169435217,0.6285277160384246
10.445182724252492,0.6205743891151885
10.465116279069768,0.6121711923167521
10.485049833887045,0.6033326066687362
10.50498338870432,0.5940743775013659
10.524916943521594,0.5844135877308608
10.544850498338871,0.5743687424458902
10.564784053156147,0.5639598664871375
10.584717607973422,0.5532086169307562
10.604651162790697,0.5421384126181812
10.624584717607974,0.5307745831037388
