Frequency (Hz),Amplitude
0.0,0.7104749471300801
0.019801980198019802,0.7149622557852924
0.039603960396039604,0.7282410624804736
0.0594059405940594,0.7497942825168257
0.07920792079207921,0.7788550710114323
0.09900990099009901,0.814513292400336
0.1188118811881188,0.8558144941432073
0.13861386138613863,0.9018336950446817
0.15841584158415842,0.9517200427049474
0.1782178217821782,1.0047171232369103
0.19801980198019803,1.0601666441904714
0.21782178217821782,1.117502557270204
0.2376237623762376,1.1762407278178555
0.25742574257425743,1.2359673149315669
0.27722772277227725,1.2963275750838539
0.297029702970297,1.3570158723521863
0.31683168316831684,1.4177671451401654
0.33663366336633666,1.4783498042645111
0.3564356435643564,1.5385599145003175
0.37623762376237624,1.598216471608461
0.39603960396039606,1.6571575879751554
0.4158415841584158,1.7152374190872317
0.43564356435643564,1.772323687999671
0.45544554455445546,1.8282956898285816
0.4752475247524752,1.8830426805978737
0.495049504950495,1.9364625736791372
0.5148514851485149,1.9884608826075973
0.5346534653465347,2.038949861595065
0.5544554455445545,2.0878478050610303
0.5742574257425742,2.1350784754274725
0.594059405940594,2.180570634681434
0.613861386138614,2.224257660146721
0.6336633663366337,2.2660772288024464
0.6534653465346534,2.305971057565035
0.6732673267326733,2.343884689389747
0.6930693069306931,2.379767316984814
0.7128712871287128,2.4135716374755414
0.7326732673267327,2.445253732590258
0.7524752475247525,2.4747729699320393
0.7722772277227723,2.5020919216991104
0.7920792079207921,2.5271762978649686
0.8118811881188118,2.5499948913558272
0.8316831683168316,2.5705195331944157
0.8514851485148516,2.5887250559338177
0.8712871287128713,2.6045892639987724
0.891089108910891,2.6180929097971952
0.9108910891089109,2.6292196746705048
0.9306930693069307,2.637956153926999
0.9504950495049505,2.6442918453534525
0.9702970297029703,2.648219140731677
0.99009900990099,2.649733320004066
1.00990099009901,2.6488325478385035
1.0297029702970297,2.6455178724418844
1.0495049504950495,2.639793226565694
1.0693069306930694,2.631665430739846
1.0891089108910892,2.621144198864948
1.108910891089109,2.608242146390136
1.1287128712871286,2.5929748014089493
1.1485148514851484,2.5753606191192695
1.1683168316831685,2.5554210002222564
1.188118811881188,2.53318031398108
1.2079207920792079,2.508665926830011
1.227722772277228,2.4819082376227803
1.2475247524752475,2.4529407208453806
1.2673267326732673,2.421799979400066
1.2871287128712872,2.3885258089076444
1.3069306930693068,2.353161275887373
1.3267326732673268,2.3157528126781224
1.3465346534653466,2.2763503325818983
1.3663366336633662,2.23500736947372
1.3861386138613863,2.1917812470661038
1.405940594059406,2.1467332841912308
1.4257425742574257,2.099929043931624
1.4455445544554455,2.051438636269741
1.4653465346534653,2.0013370862413713
1.4851485148514851,1.9497047824965932
1.504950495049505,1.8966280248640859
1.5247524752475248,1.8421996941897707
1.5445544554455446,1.7865200736470217
1.5643564356435644,1.7296978582192106
1.5841584158415842,1.6718513985318812
1.6039603960396038,1.61311023710964
1.6237623762376237,1.5536170099218518
1.6435643564356437,1.4935298041566054
1.6633663366336633,1.4330250846412407
1.683168316831683,1.3723013256430796
1.7029702970297032,1.3115835098986828
1.7227722772277227,1.2511286776900583
1.7425742574257426,1.1912327152155817
1.7623762376237624,1.1322385432741962
1.782178217821782,1.0745457678810844
1.801980198019802,1.0186216218117652
1.8217821782178218,0.9650125633614329
1.8415841584158414,0.9143550738610765
1.8613861386138615,0.867382874317142
1.881188118811881,0.8249259398564172
1.900990099009901,0.7878946682826742
1.920792079207921,0.7572414485720168
1.9405940594059405,0.7338937626819191
1.9603960396039604,0.718660228173043
1.98019801980198,0.712123867026996
2.0,0.7145501550936988
2.01980198019802,0.7258409052646476
2.0396039603960396,0.7455517139771423
2.0594059405940595,0.772966098690346
2.0792079207920793,0.8071993451451333
2.099009900990099,0.8473010423833308
2.118811881188119,0.8923353654013325
2.1386138613861387,0.9414322643665861
2.1584158415841586,0.9938128278086756
2.1782178217821784,1.0487962253953598
2.1980198019801978,1.1057956035962304
2.217821782178218,1.1643085125965962
2.237623762376238,1.2239054401494953
2.257425742574257,1.2842184550148696
2.2772277227722775,1.3449309221321857
2.297029702970297,1.405768639264867
2.3168316831683167,1.466492420015119
2.336633663366337,1.5268919965961958
2.3564356435643563,1.5867810603533912
2.376237623762376,1.6459932516619598
2.3960396039603964,1.7043789267834992
2.4158415841584158,1.7618025532965391
2.4356435643564356,1.8181406107642821
2.455445544554456,1.8732798962137451
2.4752475247524752,1.927116153653192
2.495049504950495,1.9795529631171827
2.514851485148515,2.0305008379020415
2.5346534653465347,2.0798764891884214
2.5544554455445545,2.12760222560838
2.5742574257425743,2.1736054619238927
2.594059405940594,2.217818316198977
2.6138613861386135,2.260177278964614
2.633663366336634,2.30062294112759
2.6534653465346536,2.339099769950085
2.673267326732673,2.3755559244712168
2.6930693069306932,2.409943103369986
2.712871287128713,2.4422164195706833
2.7326732673267324,2.472334296935885
2.7524752475247527,2.500258385233172
2.7722772277227725,2.5259534902427863
2.792079207920792,2.5493875164262922
2.811881188118812,2.5705314200290523
2.8316831683168315,2.589359170860471
2.8514851485148514,2.605847721303517
2.8712871287128716,2.619976981360882
2.891089108910891,2.6317297987600172
2.910891089108911,2.64109194332165
2.9306930693069306,2.648052094952815
2.9504950495049505,2.6526018347614806
2.9702970297029703,2.6547356389106636
2.99009900990099,2.6544508749384663
3.00990099009901,2.651747800371387
3.0297029702970297,2.6466295635536627
3.0495049504950495,2.6391022067085874
3.0693069306930694,2.629174671341452
3.089108910891089,2.616858806190716
3.108910891089109,2.6021693780369897
3.128712871287129,2.5851240857920366
3.148514851485148,2.565743578415059
3.1683168316831685,2.5440514773463363
3.1881188118811883,2.52007440431244
3.2079207920792077,2.4938420155498107
3.227722772277228,2.4653870437211474
3.2475247524752473,2.434745349070696
3.267326732673267,2.401955981691635
3.2871287128712874,2.3670612571751217
3.3069306930693068,2.330106848393263
3.3267326732673266,2.2911418967605677
3.346534653465347,2.250219147047006
3.366336633663366,2.207395110718008
3.386138613861386,2.162730263897068
3.4059405940594063,2.116289287444767
3.4257425742574257,2.0681413583981256
3.4455445544554455,2.018360504213478
3.4653465346534653,1.9670260340268784
3.485148514851485,1.9142230646464267
3.504950495049505,1.8600431634201906
3.5247524752475248,1.8045851357324783
3.5445544554455446,1.7479559919808703
3.564356435643564,1.6902721378503691
3.5841584158415842,1.6316608429610264
3.603960396039604,1.572262056980138
3.6237623762376234,1.512230659466266
3.6435643564356437,1.4517392502316224
3.6633663366336635,1.3909816104729331
3.683168316831683,1.330176989672049
3.702970297029703,1.2695753951296362
3.722772277227723,1.2094640710427942
3.7425742574257423,1.1501753348030235
3.762376237623762,1.0920958576723803
3.7821782178217824,1.0356772801673786
3.801980198019802,0.9814476519256076
3.8217821782178216,0.9300224585389619
3.841584158415842,0.8821128076980204
3.8613861386138613,0.8385266337559089
3.881188118811881,0.8001567735534882
3.9009900990099013,0.7679483472714876
3.9207920792079207,0.7428388866916812
3.9405940594059405,0.7256704974085976
3.96039603960396,0.7170849878587037
3.98019801980198,0.7174266102889689
4.0,0.7266835706752947
4.01980198019802,0.7444902228722156
4.03960396039604,0.7701890747782099
4.0594059405940595,0.8029295189983604
4.079207920792079,0.8417721397740409
4.099009900990099,0.8857747951158742
4.118811881188119,0.9340504875254882
4.138613861386139,0.9857983282922099
4.158415841584159,1.0403143448611283
4.178217821782178,1.0969896456234114
4.198019801980198,1.1553019512731026
4.217821782178218,1.214804499070379
4.237623762376238,1.2751146480559312
4.257425742574258,1.3359033593511573
4.2772277227722775,1.3968860257125857
4.297029702970297,1.4578147416498066
4.316831683168317,1.5184719189628335
4.336633663366336,1.5786650776335056
4.356435643564357,1.6382226255252461
4.376237623762377,1.6969904515658556
4.3960396039603955,1.754829179301356
4.415841584158416,1.8116119524160275
4.435643564356436,1.8672226470691435
4.455445544554455,1.9215544261611635
4.475247524752476,1.9745085675686913
4.4950495049504955,2.025993512181064
4.514851485148514,2.075924088646275
4.534653465346535,2.124220880546819
4.554455445544555,2.1708097087045903
4.574257425742574,2.215621206827577
4.594059405940594,2.2585904730648303
4.613861386138614,2.2996567834774733
4.633663366336633,2.3387633561583456
4.653465346534653,2.375857156895579
4.673267326732674,2.410888738997443
4.693069306930693,2.4438121112714435
4.712871287128713,2.4745846292537323
4.732673267326733,2.5031669056729755
4.752475247524752,2.529522736850897
4.772277227722772,2.5536190423250624
4.792079207920793,2.5754258154555965
4.811881188118812,2.5949160831685374
4.8316831683168315,2.6120658733111086
4.851485148514852,2.6268541883629317
4.871287128712871,2.6392629844720075
4.891089108910891,2.6492771549748713
4.910891089108912,2.656884517723256
4.930693069306931,2.662075805681092
4.9504950495049505,2.664844660380274
4.97029702970297,2.665187627935838
4.99009900990099,2.663104157424211
5.00990099009901,2.65859660152543
5.02970297029703,2.651670219424614
5.0495049504950495,2.642333182061866
5.069306930693069,2.6305965799169786
5.089108910891089,2.6164744336170336
5.108910891089109,2.5999837077666097
5.128712871287129,2.5811443285227758
5.148514851485149,2.5599792055769828
5.1683168316831685,2.536514259365714
5.188118811881188,2.510778454519071
5.207920792079208,2.4828038407769326
5.227722772277227,2.4526256028650146
5.247524752475248,2.420282121138899
5.267326732673268,2.385815045185682
5.2871287128712865,2.3492693830372215
5.306930693069307,2.3106936092174095
5.326732673267327,2.2701397955443174
5.346534653465346,2.2276637694715
5.366336633663367,2.1833253058234217
5.3861386138613865,2.1371883591138823
5.405940594059405,2.0893213453040476
5.425742574257426,2.0397974839488553
5.445544554455446,1.9886952143128869
5.465346534653465,1.9360987023575238
5.485148514851486,1.8820984596972146
5.504950495049505,1.8267921009298729
5.524752475247524,1.7702852724568425
5.544554455445545,1.7126927943727086
5.564356435643565,1.6541400676348936
5.584158415841584,1.5947648119555016
5.603960396039604,1.534719216097765
5.623762376237624,1.4741726017224712
5.643564356435643,1.413314724337861
5.663366336633663,1.3523598588945482
5.683168316831684,1.2915518395833905
5.702970297029703,1.2311702357449363
5.7227722772277225,1.1715378333106068
5.742574257425743,1.113029525879806
5.762376237623762,1.0560825528760132
5.782178217821782,1.0012076761316233
5.801980198019803,0.9490002481134947
5.821782178217822,0.9001490625349423
5.841584158415841,0.8554393084258876
5.861386138613861,0.815744015950543
5.881188118811881,0.7819967781383125
5.900990099009901,0.7551388352350888
5.920792079207921,0.7360381181928352
5.9405940594059405,0.7253880411798066
5.96039603960396,0.72360733028454
5.98019801980198,0.7307709922877753
6.0,0.7465973937852317
6.01980198019802,0.7704964540956779
6.03960396039604,0.801660760760218
6.0594059405940595,0.8391695805403252
6.079207920792079,0.8820797331866914
6.099009900990099,0.9294900977420572
6.118811881188119,0.980578665684309
6.138613861386139,1.034617843956962
6.158415841584159,1.0909754440983228
6.178217821782178,1.1491077240228895
6.198019801980198,1.208548925147216
6.217821782178218,1.2688999920882282
6.237623762376237,1.3298178967526686
6.257425742574258,1.3910061936434055
6.2772277227722775,1.4522069836149996
6.297029702970296,1.5131942348330725
6.316831683168317,1.5737683102732418
6.336633663366337,1.6337515212793856
6.356435643564356,1.6929845312143912
6.376237623762377,1.7513234524683665
6.396039603960396,1.808637503799251
6.415841584158415,1.864807118226659
6.435643564356436,1.9197224123934327
6.455445544554456,1.9732819458200177
6.475247524752475,2.0253917128661456
6.495049504950495,2.0759643218317447
6.514851485148515,2.124918324909714
6.534653465346534,2.1721776700719437
6.554455445544554,2.217671251802098
6.574257425742575,2.261332542200208
6.594059405940594,2.3030992876319107
6.6138613861386135,2.3429132589845256
6.633663366336634,2.3807200458864592
6.653465346534653,2.4164688870728117
6.673267326732673,2.450112530539016
6.693069306930694,2.481607118293788
6.712871287128713,2.5109120914638665
6.732673267326732,2.5379901122635093
6.752475247524753,2.5628069999591836
6.772277227722772,2.5853316784635
6.792079207920792,2.605536133605431
6.811881188118813,2.6233953784645663
6.8316831683168315,2.6388874254401236
6.851485148514851,2.6519932639621784
6.871287128712871,2.6626968429525744
6.891089108910891,2.670985057313753
6.910891089108911,2.6768477378712885
6.930693069306931,2.680277644325747
6.9504950495049505,2.681270460885526
6.97029702970297,2.6798247943585105
6.99009900990099,2.6759421745799656
7.00990099009901,2.669627057149963
7.02970297029703,2.6608868285488296
7.0495049504950495,2.6497318137961545
7.069306930693069,2.636175286920995
7.089108910891089,2.620233484620878
7.108910891089109,2.6019256236086497
7.128712871287128,2.581273922283098
7.148514851485149,2.5583036275158424
7.1683168316831685,2.5330430475295147
7.188118811881187,2.505523592056403
7.207920792079208,2.4757798212217383
7.227722772277228,2.443849504900919
7.247524752475247,2.4097736946686816
7.267326732673268,2.373596810905539
7.287128712871287,2.3353667481735934
7.306930693069306,2.295135002644703
7.326732673267327,2.2529568261913933
7.346534653465347,2.2088914127757695
7.366336633663366,2.163002124045936
7.3861386138613865,2.1153567626399674
7.405940594059406,2.0660279036892955
7.425742574257425,2.015093297515149
7.445544554455446,1.9626363596621401
7.465346534653466,1.9087467683870714
7.485148514851485,1.8535211947392871
7.504950495049505,1.7970641967033159
7.524752475247524,1.7394893168549688
7.544554455445544,1.680920432991211
7.564356435643565,1.621493423647396
7.584158415841584,1.5613582257018466
7.603960396039604,1.5006813796184284
7.623762376237624,1.4396491790985015
7.643564356435643,1.3784715648670887
7.663366336633663,1.3173869239644092
7.683168316831684,1.2566679696030936
7.702970297029703,1.1966288692013614
7.7227722772277225,1.1376337351969534
7.742574257425743,1.0801064521294068
7.762376237623762,1.0245415151082051
7.782178217821782,0.9715149975586057
7.801980198019803,0.9216938252008711
7.821782178217822,0.8758401132291582
7.841584158415841,0.834805503090287
7.861386138613862,0.7995087437923026
7.881188118811881,0.7708895189628616
7.900990099009901,0.7498348340517169
7.92079207920792,0.7370829217486218
7.9405940594059405,0.7331223815930352
7.96039603960396,0.7381146435227973
7.980198019801979,0.751866567104457
8.0,0.7738635867413547
8.01980198019802,0.8033508283734503
8.03960396039604,0.8394345558476365
8.05940594059406,0.8811765268505496
8.07920792079208,0.9276648692897351
8.099009900990099,0.9780576259890267
8.118811881188119,1.0316031981128497
8.138613861386139,1.0876447713062967
8.158415841584159,1.1456153367098447
8.178217821782178,1.2050281741004796
8.198019801980198,1.2654658734811743
8.217821782178218,1.3265696025566711
8.237623762376238,1.3880294316677662
8.257425742574258,1.4495760023715598
8.277227722772277,1.510973547365951
8.297029702970297,1.5720141396952858
8.316831683168317,1.632513002139711
8.336633663366337,1.6923047030713971
8.356435643564357,1.7512400798635086
8.376237623762377,1.809183752821764
8.396039603960396,1.8660121153914635
8.415841584158416,1.921611707285212
8.435643564356436,1.9758778951649345
8.455445544554456,2.028713800458828
8.475247524752476,2.0800294260531746
8.495049504950495,2.129740943363097
8.514851485148515,2.1777701090684953
8.534653465346535,2.224043786976793
8.554455445544555,2.268493555366785
8.574257425742575,2.311055384042924
8.594059405940595,2.3516693684019763
8.613861386138613,2.3902795102547025
8.633663366336634,2.4268335370893284
8.653465346534654,2.461282753016315
8.673267326732672,2.4935819158787678
8.693069306930694,2.5236891360143368
8.712871287128714,2.551565792963455
8.732673267326732,2.577176467075239
8.752475247524753,2.6004888834975657
8.772277227722773,2.6214738664762214
8.792079207920791,2.6401053022494265
8.811881188118813,2.656360109123835
8.831683168316832,2.6702182135684285
8.85148514851485,2.6816625313739384
8.871287128712872,2.6906789531051576
8.891089108910892,2.6972563332285655
8.91089108910891,2.701386482433372
8.930693069306932,2.7030641627850223
8.950495049504951,2.7022870854601946
8.97029702970297,2.699055910914698
8.990099009900991,2.6933742514341343
9.00990099009901,2.6852486761133956
9.029702970297029,2.674688718409418
9.04950495049505,2.661706886513569
9.06930693069307,2.6463186768997207
9.089108910891088,2.6285425915242837
9.10891089108911,2.6084001592891437
9.12871287128713,2.585915962532395
9.148514851485148,2.5611176694897115
9.16831683168317,2.534036073878277
9.188118811881187,2.5047051430026563
9.207920792079207,2.4731620760778825
9.227722772277229,2.4394473748215986
9.247524752475247,2.4036049287986727
9.267326732673267,2.365682118528495
9.287128712871288,2.325729940009854
9.306930693069306,2.283803155112396
9.326732673267326,2.2399604732648695
9.346534653465348,2.1942647710884713
9.366336633663366,2.1467833581407825
9.386138613861386,2.0975882988321537
9.405940594059407,2.0467568029536927
9.425742574257425,1.9943717002431516
9.445544554455445,1.940522018176187
9.465346534653467,1.8853036869095554
9.485148514851485,1.8288204012739449
9.504950495049505,1.771184677222437
9.524752475247526,1.7125191495426555
9.544554455445544,1.6529581693238475
9.564356435643564,1.5926497740025616
9.584158415841586,1.5317581200260542
9.603960396039604,1.4704664881359006
9.623762376237623,1.4089809930309611
9.643564356435645,1.3475351501091166
9.663366336633663,1.2863954663608914
9.683168316831683,1.2258682188634433
9.702970297029704,1.1663075414771489
9.722772277227723,1.1081248211621464
9.742574257425742,1.0517991490860892
9.762376237623764,0.9978880878228247
9.782178217821782,0.9470371891079764
9.801980198019802,0.89998542622931
9.821782178217823,0.8575620204650909
9.841584158415841,0.8206684351072481
9.861386138613861,0.7902386583766323
9.881188118811881,0.7671731670122373
9.900990099009901,0.7522490541141339
9.92079207920792,0.7460204414727912
9.94059405940594,0.7487345162901111
9.96039603960396,0.7602906564496942
9.98019801980198,0.7802577291799916
10.0,0.8079430146514885
10.01980198019802,0.8424886931858463
10.03960396039604,0.8829681021831086
10.05940594059406,0.9284624941387715
10.07920792079208,0.9781113814739043
10.099009900990099,1.0311387778018957
10.118811881188119,1.086861738095915
10.138613861386139,1.1446879001913464
10.158415841584159,1.2041072862095512
10.178217821782178,1.2646818537998024
10.198019801980198,1.3260348304772909
10.217821782178218,1.387840864014185
10.237623762376238,1.4498174113335036
10.257425742574258,1.5117174508047198
10.277227722772277,1.5733234358212629
10.297029702970297,1.6344423385783127
10.316831683168317,1.6949016162267792
10.336633663366337,1.7545459401489145
10.356435643564357,1.813234548116687
10.376237623762377,1.8708391008409337
10.396039603960396,1.9272419452138634
10.415841584158416,1.9823347048760807
10.435643564356436,2.036017134194886
10.455445544554454,2.088196184437694
10.475247524752476,2.1387852411916337
10.495049504950495,2.187703500303238
10.514851485148514,2.234875456161666
10.534653465346535,2.2802304813508365
10.554455445544555,2.323702480824435
10.574257425742573,2.3652296070354057
10.594059405940595,2.404754025058292
10.613861386138614,2.442221718819834
10.633663366336632,2.477582331213331
10.653465346534654,2.5107890322031357
10.673267326732674,2.541798410096358
10.693069306930692,2.570570382023772
10.712871287128714,2.5970681203732973
