Time (s),Filtered Signal
0.0,0.04889212054443904
0.033370535714285714,-0.21035321975127294
0.06674107142857143,-0.3749987034105615
0.10011160714285713,-0.3816282663429298
0.13348214285714285,-0.2179612710542989
0.16685267857142858,0.0767868654175322
0.20022321428571427,0.42916066656199847
0.23359375,0.7578817602711747
0.2669642857142857,0.9985149997720183
0.30033482142857143,1.118093747562949
0.33370535714285715,1.11703575892618
0.36707589285714287,1.021056623932888
0.40044642857142854,0.868491046157081
0.43381696428571426,0.698032704274849
0.4671875,0.5397336353804567
0.5005580357142857,0.41000645764209476
0.5339285714285714,0.3104029512629148
0.5672991071428571,0.22989321627170545
0.6006696428571429,0.15031165365067212
0.6340401785714286,0.05391977130135773
0.6674107142857143,-0.0690901995934284
0.70078125,-0.215935899553016
0.7341517857142857,-0.3715097164837774
0.7675223214285715,-0.5136735306024702
0.8008928571428571,-0.6213992529923323
0.8342633928571428,-0.682236475927456
0.8676339285714285,-0.6959850907509711
0.9010044642857142,-0.6733735286824701
0.934375,-0.6309287241298198
0.9677455357142857,-0.5847861509987596
1.0011160714285714,-0.5461736577824308
1.0344866071428571,-0.5198990238318041
1.0678571428571428,-0.5053358431195111
1.1012276785714286,-0.4982497126756846
1.1345982142857143,-0.4919431826973983
1.16796875,-0.47738937348150445
1.2013392857142857,-0.44336703838115277
1.2347098214285714,-0.3781001481326992
1.2680803571428572,-0.2730800432720784
1.3014508928571429,-0.12802628541235828
1.3348214285714286,0.045563287751724885
1.3681919642857143,0.22496254518255968
1.4015625,0.381924482546943
1.4349330357142858,0.4919306590696125
1.4683035714285715,0.5431761343607457
1.5016741071428572,0.5411528779961379
1.535044642857143,0.5065542134933891
1.5684151785714286,0.46731478336687576
1.6017857142857141,0.44826176040082105
1.6351562499999999,0.46270684242263976
1.6685267857142856,0.5090339428611361
1.7018973214285713,0.5727821745677006
1.735267857142857,0.6323467702815643
1.7686383928571427,0.6654266130194271
1.8020089285714285,0.6540150581459471
1.8353794642857142,0.5873138845222454
1.86875,0.4632164023605914
1.9021205357142856,0.28911206400212075
1.9354910714285714,0.08188029880972857
1.968861607142857,-0.1338968939557388
2.002232142857143,-0.3302478772282536
2.0356026785714287,-0.482042717925915
2.0689732142857142,-0.5730831517582302
2.10234375,-0.5996707817051704
2.1357142857142857,-0.5704239998873606
2.169084821428571,-0.5028925493913767
2.202455357142857,-0.41867286686942345
2.2358258928571426,-0.33865904244850975
2.2691964285714286,-0.2792058588833771
2.302566964285714,-0.24926230219801288
2.3359375,-0.24853142131033482
2.3693080357142855,-0.2672167079529151
2.4026785714285714,-0.2882007714577581
2.436049107142857,-0.2919817860238305
2.469419642857143,-0.2634163928161655
2.5027901785714284,-0.1979728018580516
2.5361607142857143,-0.10468068713698603
2.56953125,-0.0038322588090311848
2.6029017857142858,0.0804009180469587
2.6362723214285713,0.12978717886206284
2.669642857142857,0.14004383040416007
2.7030133928571427,0.12310542684719133
2.7363839285714286,0.10209879638915227
2.769754464285714,0.10091273162306275
2.803125,0.13301160246458574
2.8364955357142856,0.1947021589077281
2.8698660714285715,0.2660483782209935
2.903236607142857,0.319069576517717
2.936607142857143,0.32956799140274984
2.9699776785714285,0.28746729077230976
3.0033482142857144,0.20141143084881588
3.03671875,0.09594072646600647
3.070089285714286,0.002556791548652676
3.1034598214285714,-0.05180740116577782
3.1368303571428573,-0.05465784283852612
3.170200892857143,-0.012648740070798636
3.2035714285714283,0.05056097054264189
3.2369419642857142,0.10273747203705111
3.2703124999999997,0.11510840839914055
3.3036830357142857,0.0738955976058688
3.337053571428571,-0.01302149938083086
3.370424107142857,-0.11741998152829318
3.4037946428571426,-0.20043395872017752
3.4371651785714286,-0.22762689084602114
3.470535714285714,-0.18361783290636347
3.50390625,-0.07976336020986552
3.5372767857142855,0.049299133288367415
3.5706473214285714,0.15967644315434032
3.604017857142857,0.21704397835080635
3.637388392857143,0.21157769753314745
3.6707589285714284,0.16156181872084333
3.7041294642857143,0.10349008588352783
3.7375,0.0732314604635648
3.7708705357142858,0.08753434428502616
3.8042410714285713,0.135169035728739
3.837611607142857,0.18220096186087065
3.8709821428571427,0.18871497597467565
3.9043526785714286,0.1285380069876985
3.937723214285714,0.002159944554421612
3.97109375,-0.16321323050591535
4.004464285714286,-0.32580220035472135
4.0378348214285715,-0.4468664006509277
4.0712053571428575,-0.5049275322956794
4.1045758928571425,-0.5004719330131618
4.1379464285714285,-0.4506791088190737
4.171316964285714,-0.37883694760849673
4.2046875,-0.3047610199043791
4.238058035714285,-0.24027798271577008
4.271428571428571,-0.18974251932384892
4.304799107142857,-0.15261875005488015
4.338169642857142,-0.12511567326912762
4.371540178571428,-0.10014986738962085
4.404910714285714,-0.06732095641129858
4.43828125,-0.015106405461082738
4.471651785714285,0.06424489778446905
4.505022321428571,0.1691935886561804
4.538392857142857,0.286207421374489
4.571763392857143,0.39239537219482606
4.605133928571428,0.46327391155701597
4.638504464285714,0.4825669456851944
4.671875,0.4495519715075151
4.705245535714286,0.38034634525343936
4.738616071428571,0.30221584524547157
4.771986607142857,0.2431321814844438
4.805357142857143,0.2208982700761442
4.838727678571429,0.236276292135269
4.872098214285714,0.27276281146960446
4.90546875,0.3029010029323137
4.938839285714286,0.2985580172771867
4.972209821428572,0.24134211691261356
5.005580357142857,0.12953618386017302
5.038950892857143,-0.02071932223218234
5.072321428571429,-0.18027842585649395
5.105691964285715,-0.3161278188507618
5.1390625,-0.4015911179090917
5.172433035714286,-0.42404215199907613
5.2058035714285715,-0.387614958503998
5.2391741071428575,-0.3104613270371999
5.2725446428571425,-0.21824986282337938
5.3059151785714285,-0.13677067559329295
5.339285714285714,-0.08617976382001333
5.3726562499999995,-0.07795754766315202
5.406026785714285,-0.11410479485244365
5.439397321428571,-0.18743297372915707
5.472767857142857,-0.28226343728489245
5.506138392857142,-0.3758433814030836
5.539508928571428,-0.441417950939707
5.572879464285714,-0.45359746367148235
5.60625,-0.39548816628377276
5.639620535714285,-0.26560258047974233
5.672991071428571,-0.08163914177617737
5.706361607142857,0.1214908907373607
5.739732142857143,0.3002643604455314
5.773102678571428,0.4158946916376293
5.806473214285714,0.4479228868201895
5.83984375,0.40245904021966866
5.873214285714286,0.3108669302822024
5.906584821428571,0.21834066927817522
5.939955357142857,0.1662975095121457
5.973325892857143,0.17569059446317817
6.006696428571429,0.2385025035746397
6.040066964285714,0.3214344039713343
6.0734375,0.3804609964566683
6.106808035714286,0.3799444188836062
6.140178571428572,0.30783675596328547
6.173549107142857,0.18030992428536782
6.206919642857143,0.03412340175802448
6.240290178571429,-0.08927872173230494
6.273660714285715,-0.16040286037871998
6.30703125,-0.17181670269681673
6.340401785714286,-0.138213412068939
6.3737723214285715,-0.08791089390811128
6.407142857142857,-0.05084723710772399
6.4405133928571425,-0.04862304482437017
6.4738839285714285,-0.08978008486696477
6.507254464285714,-0.1701400326803171
6.5406249999999995,-0.27583361296143266
6.573995535714285,-0.3867027578163027
6.607366071428571,-0.4794099417311241
6.640736607142857,-0.5311060201409333
6.674107142857142,-0.5244725113721228
6.707477678571428,-0.45336346976341196
6.740848214285714,-0.32650989006310827
6.77421875,-0.16648955394431367
6.807589285714285,-0.003054630022312216
6.840959821428571,0.13700044017143911
6.874330357142857,0.2389209067237635
6.907700892857143,0.30359604737670404
6.941071428571428,0.3439190640254671
6.974441964285714,0.37589477688260897
7.0078125,0.4091659601297838
7.041183035714286,0.4417400606627767
7.074553571428571,0.46130695647912795
7.107924107142857,0.45208529002176956
7.141294642857143,0.40347973095686024
7.174665178571429,0.3162214236290877
7.208035714285714,0.20318888746588404
7.24140625,0.08481318473443415
7.274776785714286,-0.018540443339239557
7.308147321428572,-0.09367531425452964
7.341517857142857,-0.13816955002356035
7.374888392857143,-0.15931745626687685
7.408258928571429,-0.1693535693833732
7.441629464285715,-0.179359178969881
7.475,-0.19449568113995158
7.508370535714286,-0.2123385131269228
7.5417410714285715,-0.2246927865234552
7.575111607142857,-0.22202208630258805
7.6084821428571425,-0.1988455992715315
7.6418526785714285,-0.15811730077879554
7.675223214285714,-0.11262367907451773
7.7085937499999995,-0.08200969880554175
7.741964285714285,-0.08545042263220774
7.775334821428571,-0.1320932655808236
7.808705357142857,-0.2133191568197532
7.842075892857142,-0.3012919410290914
7.875446428571428,-0.3563036949576965
7.908816964285714,-0.3414651010788766
7.9421875,-0.2391213366092753
7.975558035714285,-0.0613762717814945
8.008928571428571,0.15113797892031638
8.042299107142856,0.34298143385641083
8.075669642857143,0.4647706382612201
8.109040178571428,0.4920332292951202
8.142410714285715,0.43353001343327213
8.17578125,0.325399710019734
8.209151785714285,0.21415230786005293
8.242522321428572,0.1366445636196824
8.275892857142857,0.10621983864931131
8.309263392857142,0.11078843449248053
8.342633928571429,0.12261991392887432
8.376004464285714,0.11412416775088509
8.409375,0.07161122851070588
8.442745535714286,0.000811429616852285
8.47611607142857,-0.0774867985041755
8.509486607142858,-0.13851784687958094
8.542857142857143,-0.16545191580309984
8.576227678571428,-0.1565628251892697
8.609598214285715,-0.12481787726720889
8.64296875,-0.09070984882889965
8.676339285714285,-0.07209603724399612
8.709709821428572,-0.07593676570373958
8.743080357142857,-0.09578982755519427
8.776450892857143,-0.11616730438251327
8.809821428571428,-0.12152222717483362
8.843191964285714,-0.10519327194158176
8.8765625,-0.07339384781953494
8.909933035714285,-0.041704352304764
8.94330357142857,-0.0255757799119942
8.976674107142857,-0.02999004135103454
9.010044642857142,-0.04444006539594857
9.04341517857143,-0.046853834009655926
9.076785714285714,-0.015137013225988535
9.11015625,0.05958588292648476
9.143526785714286,0.16540960453047915
9.176897321428571,0.27241940410168153
9.210267857142856,0.3449667655125368
9.243638392857143,0.3574593327439401
9.277008928571428,0.3057338447713987
9.310379464285715,0.2083932456239867
9.34375,0.0976942325976951
9.377120535714285,0.0047902205579296525
9.410491071428572,-0.05335676049341545
9.443861607142857,-0.07938454224701362
9.477232142857142,-0.09138830824812366
9.510602678571429,-0.11200652301184193
9.543973214285714,-0.1563722829055607
9.57734375,-0.22450890609100507
9.610714285714286,-0.3011894447963258
9.64408482142857,-0.36270135928949016
9.677455357142858,-0.3870443365164886
9.710825892857143,-0.3629789561704358
9.744196428571428,-0.2942760964191856
9.777566964285715,-0.19787987453947198
9.8109375,-0.09734751648764972
9.844308035714285,-0.014682394758490458
9.877678571428572,0.0361637641036688
9.911049107142857,0.05214483924992408
9.944419642857143,0.04025726979779786
9.977790178571428,0.014322728493614358
10.011160714285714,-0.008893856087859052
10.04453125,-0.013211766856554105
10.077901785714285,0.013867169489116885
10.11127232142857,0.07817101450761985
10.144642857142857,0.1761662180140504
10.178013392857142,0.29370888408451135
10.21138392857143,0.4078266381368511
10.244754464285714,0.49226542720141164
10.278125,0.5255570410923587
10.311495535714286,0.4984579685148583
10.344866071428571,0.4172242847544476
10.378236607142856,0.30090260752057185
10.411607142857143,0.17380158295649747
10.444977678571428,0.05679992747894185
10.478348214285715,-0.038378375782766934
10.51171875,-0.10962108203322317
10.545089285714285,-0.16033747312796734
10.578459821428572,-0.19395949836080434
10.611830357142857,-0.21061250680584565
10.645200892857142,-0.20783968063583164
10.678571428571429,-0.1845417610924476
10.711941964285714,-0.1452025906984567
10.745312499999999,-0.10122979215590179
10.778683035714286,-0.06794678331946345
10.81205357142857,-0.05840806185223488
10.845424107142858,-0.07725258111746668
10.878794642857143,-0.11807815378522282
10.912165178571428,-0.1661022486925281
10.945535714285715,-0.20505557937595362
10.97890625,-0.22486586963026847
11.012276785714285,-0.2260882959636919
11.045647321428572,-0.21864104283615812
11.079017857142857,-0.21540774941421695
11.112388392857143,-0.22406797338786053
11.145758928571428,-0.24157701282578353
11.179129464285714,-0.2544156710789577
11.2125,-0.24471479135041863
11.245870535714285,-0.1992226332169736
11.27924107142857,-0.11652514127241514
11.312611607142857,-0.008815995325723374
11.345982142857142,0.10263499020386276
11.37935267857143,0.1959248284267931
11.412723214285714,0.256614614632263
11.44609375,0.2816793535342632
11.479464285714286,0.2779278502981248
11.512834821428571,0.2565111767263474
11.546205357142856,0.2271091254975662
11.579575892857143,0.19529780176024222
11.612946428571428,0.16448550642222098
11.646316964285715,0.14074198889318482
11.6796875,0.13652911144413896
11.713058035714285,0.16927022872015998
11.746428571428572,0.2533141338417897
11.779799107142857,0.38807139961626363
11.813169642857142,0.5486452231362576
11.846540178571429,0.6857998306454345
11.879910714285714,0.7386016414086439
11.913281249999999,0.656749094745934
11.946651785714286,0.4236294279825848
11.98002232142857,0.06904801920305031
12.013392857142858,-0.3358097975731165
12.046763392857143,-0.7006157139925534
12.080133928571428,-0.9464203331947536
12.113504464285715,-1.0314260583941777
12.146875,-0.9613684927370291
12.180245535714285,-0.7813613710609293
12.213616071428572,-0.5545176898029976
12.246986607142857,-0.3377760318358353
12.280357142857143,-0.165071627141741
12.313727678571428,-0.04322537073770666
12.347098214285714,0.04040744627600834
12.38046875,0.10430336839695291
12.413839285714285,0.16042748670101134
12.44720982142857,0.20859204419253452
12.480580357142857,0.23901632674145687
12.513950892857142,0.24054312463632344
12.54732142857143,0.20952788519867332
12.580691964285714,0.15451601144121913
12.6140625,0.09424704194613076
12.647433035714286,0.050010318826017176
12.680803571428571,0.036204792860172946
12.714174107142856,0.053780396135147915
12.747544642857143,0.08974304308490116
12.780915178571428,0.12292559220598631
12.814285714285713,0.13328293151039314
12.84765625,0.11046405070994382
12.881026785714285,0.05794669985198832
12.914397321428572,-0.008825249728533022
12.947767857142857,-0.06919593104060251
12.981138392857142,-0.10585964716412462
13.014508928571429,-0.11160561223686201
13.047879464285714,-0.09157588838020524
13.081249999999999,-0.06030492120109564
13.114620535714286,-0.034929873213562855
13.14799107142857,-0.02747804169787267
13.181361607142858,-0.03948634843584006
13.214732142857143,-0.06121425044275749
13.248102678571428,-0.07573054667142036
13.281473214285715,-0.06604079773945926
13.31484375,-0.022180022256416264
13.348214285714285,0.05458218967188353
13.381584821428572,0.15179255342982825
13.414955357142857,0.24961174291809324
13.448325892857143,0.32654347273941897
13.481696428571428,0.3650245981828355
13.515066964285714,0.3554133259639379
13.5484375,0.2978025908000837
13.581808035714285,0.20174007492184876
13.61517857142857,0.08418548648355735
13.648549107142857,-0.03395485864285179
13.681919642857142,-0.1323128896673041
13.71529017857143,-0.19585824134092736
13.748660714285714,-0.2188496408032671
13.78203125,-0.20651227262660085
13.815401785714286,-0.1733639694518472
13.848772321428571,-0.13822104678840016
13.882142857142856,-0.11741511600184965
13.915513392857143,-0.11885694104965533
13.948883928571428,-0.1395342420607301
13.982254464285713,-0.16763656062918353
14.015625,-0.1883665587441408
14.048995535714285,-0.19073395949684074
14.082366071428572,-0.1722000869492406
14.115736607142857,-0.1391749472382451
14.149107142857142,-0.10342303065928317
14.182477678571429,-0.07630859378044096
14.215848214285714,-0.06360905407679973
14.249218749999999,-0.0631112169701105
14.282589285714286,-0.06580427587270378
14.31595982142857,-0.059921867679388806
14.349330357142858,-0.03599326556248655
14.382700892857143,0.009222269480486845
14.416071428571428,0.0714844358732805
14.449441964285715,0.14087942804728443
14.4828125,0.20568901152719768
14.516183035714285,0.2563818640710358
14.549553571428572,0.2878045376251749
14.582924107142857,0.2987257062507279
14.616294642857143,0.28950244695405614
14.649665178571428,0.25983893671119374
14.683035714285714,0.2085661810483905
14.71640625,0.13597174332643983
14.749776785714285,0.0472518060928879
14.78314732142857,-0.04555792391485324
14.816517857142857,-0.12533421122713226
14.849888392857142,-0.175380958946445
14.88325892857143,-0.18631179940659717
14.916629464285714,-0.1606384060406196
14.95,-0.11227770136554482
14.983370535714286,-0.060813581920977175
15.016741071428571,-0.023201942571269264
15.050111607142856,-0.007013951828139634
15.083482142857143,-0.008475324971192166
15.116852678571428,-0.016001224547785707
15.150223214285713,-0.017104797500390234
15.18359375,-0.004985799934901603
15.216964285714285,0.018467238226187167
15.250334821428572,0.04445562176315778
15.283705357142857,0.06249115591217494
15.317075892857142,0.06606269340150323
15.350446428571429,0.05576248435752312
15.383816964285714,0.03844856965244727
15.417187499999999,0.023222220184981122
15.450558035714286,0.0166368136682439
15.48392857142857,0.019771876613470546
15.517299107142858,0.028553872467571063
15.550669642857143,0.03674777664732484
15.584040178571428,0.0395207317925404
15.617410714285715,0.035277556397453835
15.65078125,0.024723617972583774
15.684151785714285,0.008087467216108738
15.717522321428572,-0.017119726523248887
15.750892857142857,-0.05556212486452003
15.784263392857143,-0.11032432468410608
15.817633928571428,-0.1779693064650516
15.851004464285714,-0.24589116619747695
15.884375,-0.29472264454821234
15.917745535714285,-0.3058058657404812
15.95111607142857,-0.270478508811166
15.984486607142857,-0.19620115551014305
16.017857142857142,-0.10561863406115689
16.05122767857143,-0.028122807098036474
16.084598214285712,0.012526170993393317
16.11796875,0.00871843699289198
16.151339285714286,-0.027406384668776436
16.18470982142857,-0.06906579392987802
16.218080357142856,-0.08637768124288876
16.251450892857143,-0.05920190857170552
16.28482142857143,0.014321021535701856
16.318191964285713,0.11713381346479076
16.3515625,0.22062682529248986
16.384933035714287,0.2966243260850632
16.41830357142857,0.3286576687220424
16.451674107142857,0.31763973548945806
16.485044642857144,0.2797560614081671
16.518415178571427,0.2380956124102392
16.551785714285714,0.21241356724960997
16.58515625,0.2119452723002871
16.618526785714284,0.23411696471736831
16.65189732142857,0.26856246231187075
16.685267857142858,0.3031031320883908
16.71863839285714,0.3278828373680249
16.752008928571428,0.33580767348995944
16.785379464285715,0.3204071627845033
16.81875,0.2741704421810825
16.852120535714285,0.18999645688978678
16.88549107142857,0.06589684958055413
16.91886160714286,-0.08980325652882873
16.95223214285714,-0.2567682956720194
16.98560267857143,-0.407008093730327
17.018973214285715,-0.5143757831191419
17.05234375,-0.5649259283046123
17.085714285714285,-0.5627606343054183
17.119084821428572,-0.528021059913226
17.152455357142856,-0.48772243970872303
17.185825892857142,-0.4638266714293276
17.21919642857143,-0.46420879183769753
17.252566964285712,-0.4804484693806917
17.2859375,-0.49284345185821854
17.319308035714286,-0.47972255479913983
17.35267857142857,-0.42664098038127746
17.386049107142856,-0.3317673075736429
17.419419642857143,-0.20594398863430652
17.45279017857143,-0.06823615850366459
17.486160714285713,0.06075936515267755
17.51953125,0.16534742212595427
17.552901785714287,0.23911128743943694
17.58627232142857,0.28642612771571324
17.619642857142857,0.3210597880557001
