Frequency (Hz),Amplitude
0.0,1.8678792385694
0.019867549668874173,1.9014565822507496
0.039735099337748346,1.9986821609088072
0.059602649006622516,2.150594275919136
0.07947019867549669,2.3460658618977948
0.09933774834437085,2.574522974659748
0.11920529801324503,2.827198042720942
0.13907284768211922,3.0973017081017575
0.15894039735099338,3.3797246866871338
0.17880794701986755,3.670641773336061
0.1986754966887417,3.9671649137197362
0.2185430463576159,4.267078383341917
0.23841059602649006,4.568647914517179
0.2582781456953642,4.870486254367441
0.27814569536423844,5.171459046856118
0.2980132450331126,5.4706187662313335
0.31788079470198677,5.767158001560692
0.33774834437086093,6.06037610631697
0.3576158940397351,6.34965513711341
0.3774834437086093,6.634442307267954
0.3973509933774834,6.914237057142188
0.4172185430463576,7.188581432131581
0.4370860927152318,7.457052856579869
0.45695364238410596,7.719258661967085
0.4768211920529801,7.974831912914297
0.49668874172185434,8.223428202787476
0.5165562913907285,8.464723180398362
0.5364238410596026,8.698410632712841
0.5562913907284769,8.924200993758935
0.5761589403973509,9.141820182584443
0.5960264900662252,9.351008696895953
0.6158940397350993,9.551520906492337
0.6357615894039735,9.743124503570163
0.6556291390728477,9.92560007667822
0.6754966887417219,10.098740782413833
0.695364238410596,10.262352094517434
0.7152317880794702,10.416251614283889
0.7350993377483444,10.560268929500195
0.7549668874172186,10.69424551167781
0.7748344370860927,10.818034643352117
0.7947019867549668,10.931501368802202
0.8145695364238411,11.034522462799762
0.8344370860927152,11.126986413001067
0.8543046357615894,11.208793412405733
0.8741721854304636,11.279855358965776
0.8940397350993378,11.340095859967828
0.9139072847682119,11.389450239260032
0.9337748344370861,11.42786554577136
0.9536423841059603,11.455300562089496
0.9735099337748344,11.471725812141122
0.9933774834437087,11.477123567261334
1.0132450331125828,11.471487850159148
1.033112582781457,11.454824436489673
1.0529801324503312,11.427150853938512
1.0728476821192052,11.388496378914322
1.0927152317880795,11.33890203114072
1.1125827814569538,11.278420566642849
1.1324503311258278,11.20711646984365
1.1523178807947019,11.125065945729736
1.1721854304635762,11.03235691332386
1.1920529801324504,10.929089002021405
1.2119205298013245,10.815373552726179
1.2317880794701985,10.691333626169843
1.2516556291390728,10.557104021342754
1.271523178807947,10.412831307626242
1.2913907284768211,10.25867387502997
1.3112582781456954,10.094802007949333
1.3311258278145695,9.921397989119871
1.3509933774834437,9.738656242036805
1.370860927152318,9.546783522123995
1.390728476821192,9.345999169513258
1.410596026490066,9.136535439608485
1.4304635761589404,8.918637931904088
1.4503311258278146,8.692566143133192
1.4701986754966887,8.458594178198487
1.4900662251655628,8.217011662121722
1.5099337748344372,7.968124909332122
1.5298013245033113,7.71225842426418
1.5496688741721854,7.449756831260794
1.5695364238410596,7.180987364788417
1.5894039735099337,6.906343096770547
1.609271523178808,6.626247142025663
1.6291390728476822,6.341158173661471
1.6490066225165563,6.0515777102602
1.6688741721854303,5.758059824553667
1.6887417218543048,5.461224197500466
1.7086092715231789,5.161773845535928
1.728476821192053,4.860519447866899
1.7483443708609272,4.558413092992301
1.7682119205298013,4.256595590396659
1.7880794701986755,3.956463442283305
1.8079470198675496,3.659764341370411
1.8278145695364238,3.368733707060896
1.847682119205298,3.0862886719497657
1.8675496688741722,2.8162972900646546
1.8874172185430464,2.5639308849937734
1.9072847682119205,2.336064513605138
1.9271523178807946,2.1415723470288435
1.9470198675496688,1.9911329351758416
1.9668874172185429,1.895920233966823
1.9867549668874174,1.864813622112673
2.0066225165562916,1.901091376388257
2.0264900662251657,2.0009640862178437
2.0463576158940397,2.1552599037329125
2.066225165562914,2.3527660167025415
2.086092715231788,2.5829164544577488
2.1059602649006623,2.8369941887268304
2.1258278145695364,3.1082686259359016
2.1456953642384105,3.391682470065862
2.165562913907285,3.6834518427616225
2.185430463576159,3.9807200266387426
2.205298013245033,4.281294596268497
2.2251655629139075,4.5834585057597925
2.2450331125827816,4.885837246561199
2.2649006622516556,5.187305935734906
2.2847682119205297,5.4869241289348
2.3046357615894038,5.783889738145523
2.324503311258278,6.077506136188144
2.3443708609271523,6.367158423507458
2.364238410596027,6.6522961199489865
2.384105960264901,6.932420409587107
2.403973509933775,7.207074647765777
2.423841059602649,7.47583723142256
2.443708609271523,7.738316200040777
2.463576158940397,7.994145117133559
2.4834437086092715,8.242979908576013
2.5033112582781456,8.484496422540957
2.52317880794702,8.718388538310744
2.543046357615894,8.944366695884257
2.562913907284768,9.162156750502966
2.5827814569536423,9.371499079675614
2.6026490066225163,9.572147887525222
2.622516556291391,9.763870664073158
2.642384105960265,9.946447766646576
2.662251655629139,10.119672097815908
2.6821192052980134,10.283348859760999
2.7019867549668874,10.437295369173027
2.7218543046357615,10.581340920048845
2.741721854304636,10.715326684262065
2.76158940397351,10.83910564177454
2.781456953642384,10.952542533914263
2.801324503311258,11.055513834386282
2.821192052980132,11.14790773367659
2.8410596026490067,11.229624133310299
2.8609271523178808,11.300574647076347
2.8807947019867552,11.360682606866463
2.9006622516556293,11.409883071218362
2.9205298013245033,11.448122835026194
2.9403973509933774,11.475360439196665
2.9602649006622515,11.491566179303756
2.9801324503311255,11.496722112536203
3.0,11.490822062449947
3.0198675496688745,11.473871621240052
3.0397350993377485,11.445888149439527
3.0596026490066226,11.406900773142459
3.0794701986754967,11.356950379042779
3.0993377483443707,11.296089607782159
3.119205298013245,11.22438284632073
3.1390728476821192,11.14190622028702
3.1589403973509933,11.048747587540378
3.1788079470198674,10.945006534498155
3.198675496688742,10.830794377157215
3.218543046357616,10.706234169187379
3.23841059602649,10.571460720017123
3.2582781456953644,10.426620626492802
3.2781456953642385,10.271872322506649
3.2980132450331126,10.107386151998641
3.3178807947019866,9.933344472000671
3.3377483443708607,9.74994179398256
3.3576158940397347,9.557384973778245
3.3774834437086096,9.355893462951302
3.3973509933774837,9.145699637779297
3.4172185430463577,8.92704922634315
3.437086092715232,8.700201859832818
3.456953642384106,8.465431781587279
3.47682119205298,8.22302875721674
3.4966887417218544,7.973299242311896
3.5165562913907285,7.716567882008338
3.5364238410596025,7.453179440876796
3.556291390728477,7.183501294897459
3.576158940397351,6.907926663512195
3.596026490066225,6.626878824621052
3.615894039735099,6.340816647360077
3.6357615894039736,6.050241909265457
3.6556291390728477,5.7557090551989765
3.6754966887417218,5.457838334406337
3.695364238410596,5.157333663892912
3.7152317880794703,4.855007178753828
3.7350993377483444,4.551813344994897
3.754966887417219,4.248896875518225
3.774834437086093,3.9476607038423928
3.794701986754967,3.6498631494763747
3.814569536423841,3.357757227406896
3.834437086092715,3.074289199155179
3.854304635761589,2.8033750710551604
3.8741721854304636,2.550263782890549
3.8940397350993377,2.32195124485309
3.9139072847682117,2.127485350110433
3.9337748344370858,1.977757519526933
3.9536423841059607,1.8841262820139615
3.9735099337748347,1.855504734870528
3.993377483443709,1.894967204001283
4.013245033112583,1.998352226337203
4.033112582781457,2.156130046712596
4.052980132450331,2.3568672789062943
4.072847682119205,2.5899168747123213
4.0927152317880795,2.846565917211612
4.112582781456953,3.1201237893434475
4.132450331125828,3.405581093583151
4.152317880794702,3.6991978715182565
4.172185430463576,3.998153789011145
4.19205298013245,4.300285213512121
4.211920529801325,4.603897412068275
4.231788079470199,4.907633015536334
4.251655629139073,5.210380270329547
4.271523178807947,5.511208790350461
4.291390728476821,5.809324200659313
4.311258278145695,6.104035792711855
4.33112582781457,6.394733206137446
4.3509933774834435,6.680869433167073
4.370860927152318,6.9619482998590625
4.390728476821192,7.237515152918345
4.410596026490066,7.507149867708327
4.43046357615894,7.770461555475665
4.450331125827815,8.027084527528656
4.470198675496689,8.276675198451201
4.490066225165563,8.518909697369205
4.509933774834438,8.753482017708077
4.529801324503311,8.980102579728408
4.549668874172186,9.198497111746082
4.569536423841059,9.408405778967294
4.589403973509934,9.609582505792766
4.6092715231788075,9.801794449997884
4.629139072847682,9.98482159658684
4.649006622516556,10.158456446203902
4.66887417218543,10.322503778372948
4.688741721854305,10.476780473965702
4.708609271523179,10.621115384487608
4.728476821192054,10.755349238249902
4.748344370860927,10.879334575439465
4.768211920529802,10.992935705630213
4.788079470198675,11.096028682498261
4.80794701986755,11.188501291477419
4.827814569536423,11.270253046878302
4.847682119205298,11.341195195634143
4.867549668874172,11.401250725360908
4.887417218543046,11.450354374855205
4.9072847682119205,11.488452645518862
4.927152317880794,11.515503812509571
4.947019867549669,11.531477934687073
4.966887417218543,11.53635686266132
4.986754966887418,11.530134244463845
5.006622516556291,11.51281552856304
5.026490066225166,11.484417964134062
5.04635761589404,11.444970598681607
5.066225165562914,11.394514273305116
5.086092715231788,11.333101616096203
5.105960264900662,11.260797034375054
5.125827814569536,11.177676706713928
5.14569536423841,11.083828575968715
5.1655629139072845,10.979352344856641
5.185430463576159,10.864359475991805
5.205298013245033,10.738973198734616
5.225165562913908,10.603328525750069
5.245033112582782,10.457572282825915
5.264900662251656,10.301863156310626
5.28476821192053,10.136371763534704
5.304635761589404,9.961280752836172
5.324503311258278,9.77678494139351
5.344370860927152,9.583091501081613
5.364238410596027,9.380420205137202
5.3841059602649,9.169003751732856
5.403973509933775,8.949088184857814
5.4238410596026485,8.72093343852455
5.443708609271523,8.4848140377273
5.463576158940397,8.241019999420999
5.483443708609272,7.989857989976399
5.503311258278146,7.731652813394694
5.52317880794702,7.46674932888782
5.543046357615895,7.195514929934897
5.562913907284768,6.918342763540298
5.582781456953643,6.63565593394527
5.602649006622516,6.3479130281394385
5.622516556291391,6.055615434209564
5.642384105960264,5.759317117638156
5.662251655629139,5.459637805366785
5.682119205298013,5.157280949166598
5.701986754966887,4.853058469671914
5.7218543046357615,4.547925227939865
5.741721854304636,4.243027590766885
5.7615894039735105,3.939772565977744
5.781456953642384,3.6399270318339454
5.801324503311259,3.345760690302846
5.821192052980132,3.0602509728187473
5.841059602649007,2.7873703254009166
5.860927152317881,2.5324666467453225
5.880794701986755,2.302701424940124
5.900662251655629,2.1073780482079774
5.920529801324503,1.9577275932602503
5.940397350993377,1.8654451349806198
5.960264900662251,1.8395882289382897
5.980132450331126,1.8830184894182296
6.0,1.9910684767333673
6.0198675496688745,2.1536717761919975
6.039735099337749,2.359031022921764
6.059602649006623,2.5963347360554896
6.079470198675497,2.8568377537010403
6.099337748344371,3.1338799695846857
6.119205298013245,3.422502929838551
6.139072847682119,3.719018255879118
6.158940397350993,4.020650545147828
6.178807947019867,4.325272862110855
6.198675496688741,4.631219548524596
6.218543046357616,4.937155942071419
6.23841059602649,5.2419879095198
6.258278145695365,5.544798703307011
6.2781456953642385,5.844804494471827
6.298013245033113,6.1413227218418465
6.317880794701987,6.4337493079913965
6.337748344370861,6.721542073018523
6.357615894039735,7.004208529668696
6.377483443708609,7.28129681174379
6.397350993377484,7.5523888690688725
6.417218543046357,7.817095320335939
6.437086092715232,8.07505153151187
6.456953642384105,8.325914609324862
6.47682119205298,8.569361084409797
6.496688741721854,8.805085118732572
6.516556291390729,9.032797114737948
6.5364238410596025,9.25222263452503
6.556291390728477,9.463101559812374
6.5761589403973515,9.665187439954689
6.596026490066225,9.85824698750594
6.6158940397351,10.042059689973769
6.635761589403973,10.216417513310196
6.655629139072848,10.381124677931219
6.675496688741721,10.535997492077406
6.695364238410596,10.68086423043234
6.715231788079469,10.81556504832917
6.735099337748344,10.939951923766618
6.754966887417219,11.053888620947427
6.774834437086093,11.157250670237941
6.794701986754967,11.249925360396212
6.814569536423841,11.331811739681667
6.8344370860927155,11.402820623082093
6.854304635761589,11.462874603405236
6.874172185430464,11.511908064405755
6.894039735099337,11.549867194475347
6.913907284768212,11.576709999725942
6.933774834437086,11.592406315559394
6.95364238410596,11.596937816048259
6.973509933774834,11.590298020662477
6.993377483443709,11.572492298070943
7.013245033112583,11.543537866933528
7.033112582781457,11.50346379378254
7.052980132450331,11.452310988279796
7.072847682119205,11.39013219633249
7.0927152317880795,11.316991991763688
7.112582781456954,11.232966767470597
7.132450331125828,11.138144727271882
7.152317880794702,11.032625879958267
7.172185430463576,10.916522037427082
7.19205298013245,10.78995681922112
7.211920529801324,10.653065666322213
7.231788079470198,10.505995867698413
7.251655629139073,10.34890660390166
7.271523178807947,10.181969013005782
7.291390728476822,10.005366285416708
7.311258278145695,9.819293795655211
7.33112582781457,9.623959281204089
7.3509933774834435,9.419583081063022
7.370860927152318,9.206398449941869
7.390728476821192,8.984651968296019
7.410596026490066,8.754604074000095
7.430463576158941,8.516529748835854
7.450331125827814,8.27071940279007
7.470198675496689,8.017480012335286
7.490066225165562,7.757136586710603
7.509933774834438,7.490034060610996
7.52980132450331,7.216539745361379
7.549668874172186,6.937046517602025
7.569536423841059,6.651976990679204
7.589403973509934,6.361789008211253
7.6092715231788075,6.066982935130902
7.629139072847682,5.768111419421382
7.649006622516557,5.465792589346147
7.66887417218543,5.160728085047191
7.6887417218543055,4.853727975457801
7.708609271523178,4.545745597315018
7.728476821192054,4.237926845847192
7.748344370860927,3.931680690483294
7.768211920529802,3.628780978947768
7.788079470198675,3.3315141264890222
7.80794701986755,3.0428925978419263
7.827814569536423,2.766957304441586
7.847682119205298,2.509183220833865
7.8675496688741715,2.2769546195894845
7.887417218543046,2.079933219143162
7.907284768211921,1.9298460007466205
7.927152317880795,1.8389034115267409
7.9470198675496695,1.8164177525369087
7.966887417218543,1.8649854646508497
7.986754966887418,1.9792344884123552
8.006622516556291,2.148336864547563
8.026490066225167,2.35997398464569
8.046357615894038,2.60309324476022
8.066225165562914,2.868893870773793
8.086092715231787,3.1507489064600667
8.105960264900663,3.4437631330283414
8.125827814569536,3.7443139563681003
8.14569536423841,4.049683964265199
8.165562913907285,4.357793919591084
8.185430463576159,4.667016143465988
8.205298013245034,4.976045749210853
8.225165562913906,5.283811782289714
8.245033112582782,5.589415484012141
8.264900662251655,5.89208696776766
8.28476821192053,6.191154466211174
8.304635761589404,6.486022241960102
8.324503311258278,6.776154535981534
8.344370860927151,7.061063774138698
8.364238410596027,7.340301813252203
8.3841059602649,7.6134533825799995
8.403973509933774,7.880131129161854
8.42384105960265,8.139971847583121
8.443708609271523,8.392633593324163
8.463576158940398,8.637793461525558
8.483443708609272,8.875145871253991
8.503311258278146,9.104401236851317
8.52317880794702,9.325284937820935
8.543046357615895,9.537536520425293
8.562913907284768,9.740909080114085
8.582781456953642,9.935168785716835
8.602649006622515,10.120094515166391
8.62251655629139,10.29547757917705
8.642384105960264,10.461121514362826
8.66225165562914,10.61684193115669
8.682119205298013,10.762466404884691
8.701986754966887,10.897834400674887
8.721854304635762,11.022797224703043
8.741721854304636,11.1372179957152
8.76158940397351,11.240971631908538
8.781456953642383,11.333944849166814
8.801324503311259,11.416036167384544
8.821192052980132,11.48715592221356
8.841059602649008,11.547226280059228
8.86092715231788,11.596181254561882
8.880794701986755,11.633966723143
8.90066225165563,11.660540442487996
8.920529801324504,11.675872062090871
8.940397350993377,11.679943135210847
8.960264900662251,11.672747126792812
8.980132450331126,11.654289418092986
9.0,11.624587307930996
9.019867549668875,11.583670010667944
9.039735099337747,11.53157865119233
9.059602649006623,11.468366257386638
9.079470198675496,11.39409775075511
9.099337748344372,11.308849936124226
9.119205298013245,11.212711491589394
9.139072847682119,11.105782960186524
9.158940397350994,10.988176745126138
9.178807947019868,10.860017110856969
9.198675496688743,10.721440192745801
9.218543046357615,10.572594018795169
9.23841059602649,10.413638547604114
9.258278145695364,10.244745727750937
9.27814569536424,10.066099584998977
9.298013245033111,9.877896345267937
9.317880794701987,9.68034460327667
9.33774834437086,9.473665549277325
9.357615894039736,9.258093269548882
9.37748344370861,9.033875140541953
9.397350993377483,8.801272342105985
9.417218543046358,8.560560522551123
9.437086092715232,8.312030658055823
9.456953642384107,8.055990162054147
9.47682119205298,7.792764318045896
9.496688741721854,7.522698133674967
9.516556291390728,7.246158747696048
9.536423841059603,6.963538568688891
9.556291390728477,6.675259391178385
9.57615894039735,6.381777830353159
9.596026490066224,6.083592554809057
9.6158940397351,5.781253999144983
9.635761589403973,5.4753775381088
9.655629139072847,5.166661553335266
9.675496688741722,4.855912503960898
9.695364238410596,4.544080150421576
9.715231788079471,4.232307670580046
9.735099337748345,3.922003831932693
9.754966887417218,3.6149480089764667
9.774834437086092,3.313443978084512
9.794701986754967,3.020544787309016
9.814569536423841,2.7403758144785177
9.834437086092716,2.478575901049942
9.854304635761588,2.242826909650526
9.874172185430464,2.04328374010638
9.894039735099337,1.8923731511628796
9.913907284768213,1.8030459001931283
9.933774834437086,1.7849820889610288
9.95364238410596,1.8403928091334802
9.973509933774835,1.962903141246571
9.993377483443709,2.1406314534595983
10.013245033112582,2.3605635052032783
10.033112582781456,2.6113407444425416
10.052980132450331,2.8841027030433297
10.072847682119205,3.1722751907133575
10.09271523178808,3.4710510444743967
10.112582781456952,3.776896322639478
10.132450331125828,4.08717053455791
10.152317880794701,4.399857127790012
10.172185430463577,4.713378040743394
10.192052980132452,5.026467133933888
10.211920529801324,5.338083535734391
10.2317880794702,5.647351793565698
10.251655629139073,5.953520064236903
10.271523178807948,6.255930540907056
10.29139072847682,6.5539982716640335
10.311258278145695,6.847195803953941
10.331125827814569,7.1350419253745665
10.350993377483444,7.417093321433721
10.370860927152318,7.6929383360816495
10.390728476821192,7.962192265945695
10.410596026490065,8.224493785637554
10.43046357615894,8.479502215868461
10.450331125827816,8.726895425621205
10.470198675496688,8.96636821554908
10.490066225165563,9.197631069541929
10.509933774834437,9.420409189987692
10.529801324503312,9.634441753020143
10.549668874172186,9.839481335271113
10.56953642384106,10.03529347491913
10.589403973509933,10.221656338247712
10.609271523178808,10.398360469271934
10.629139072847682,10.565208604811769
10.649006622516556,10.72201554108202
10.66887417218543,10.868608040715817
10.688741721854305,11.00482477135342
10.70860927152318,11.13051626866062
10.728476821192054,11.24554491800909
10.748344370860927,11.349784950137217
10.7682119205298,11.443122446979554
10.788079470198676,11.525455354555204
10.80794701986755,11.596693500375817
10.827814569536423,11.656758613303838
