Time (s),Filtered Signal
0.0,-0.011325429750766442
0.03337028824833703,-0.5005050420855802
0.06674057649667406,-0.8831877431464749
0.10011086474501109,-1.090495513510022
0.13348115299334812,-1.1132555946818419
0.16685144124168516,-0.9992433929282233
0.20022172949002218,-0.8277392947918948
0.2335920177383592,-0.6735459015220795
0.26696230598669624,-0.5771252267040203
0.3003325942350333,-0.5340687568414314
0.3337028824833703,-0.5071831594073067
0.3670731707317073,-0.45305036857948316
0.40044345898004435,-0.34806323225451485
0.4338137472283814,-0.20035536247039498
0.4671840354767184,-0.042770475215665266
0.5005543237250555,0.08714902371434467
0.5339246119733925,0.16753283658268625
0.5672949002217295,0.2013735410131845
0.6006651884700666,0.21054131225304792
0.6340354767184035,0.21968976261462447
0.6674057649667406,0.2403818365493164
0.7007760532150776,0.26467079436772006
0.7341463414634146,0.2712195768012787
0.7675166297117517,0.23973124752320518
0.8008869179600887,0.1650591477392925
0.8342572062084257,0.0629833727325129
0.8676274944567628,-0.03540858221185634
0.9009977827050998,-0.0974328172696799
0.9343680709534368,-0.10306537293014961
0.9677383592017739,-0.05234759113994745
1.001108647450111,0.037175659726446195
1.0344789356984478,0.14036565726908928
1.067849223946785,0.23544610811737562
1.101219512195122,0.31020170221580506
1.134589800443459,0.3616115759797802
1.167960088691796,0.39159924988582007
1.2013303769401331,0.40339534209079925
1.23470066518847,0.40113095277856375
1.268070953436807,0.3915193153025495
1.3014412416851442,0.3840275185411082
1.3348115299334813,0.3868896679232578
1.3681818181818182,0.4000716439101807
1.4015521064301553,0.4099769051354211
1.4349223946784924,0.3911953571107959
1.4682926829268292,0.3169367012837102
1.5016629711751663,0.1739207612700519
1.5350332594235034,-0.026741524842696394
1.5684035476718403,-0.2504627169485619
1.6017738359201774,-0.45362954569986624
1.6351441241685145,-0.6050201445677938
1.6685144124168514,-0.702153418943002
1.7018847006651885,-0.7719156986820798
1.7352549889135256,-0.8531021137959849
1.7686252771618625,-0.9693147188228143
1.8019955654101996,-1.107497240123712
1.8353658536585367,-1.21567273594187
1.8687361419068735,-1.223524955701796
1.9021064301552106,-1.0766626609940284
1.9354767184035477,-0.7670372767567291
1.9688470066518848,-0.34304366851997287
2.002217294900222,0.10695627541596016
2.035587583148559,0.4900569661150521
2.0689578713968957,0.7455955118730404
2.102328159645233,0.8651813256149546
2.13569844789357,0.8869653895804126
2.1690687361419068,0.8687876255129753
2.202439024390244,0.8554912885875087
2.235809312638581,0.8577249873635029
2.269179600886918,0.8522850770351155
2.302549889135255,0.8018954144602689
2.335920177383592,0.6821002618561254
2.369290465631929,0.5000239875303315
2.4026607538802662,0.2951762195228052
2.436031042128603,0.12268641569471986
2.46940133037694,0.028464573996418392
2.5027716186252773,0.029072861344432332
2.536141906873614,0.10547908852230961
2.569512195121951,0.21212076796121218
2.6028824833702884,0.2954413209465565
2.6362527716186253,0.31288568708889486
2.6696230598669626,0.24504170519018337
2.7029933481152995,0.09820446733236361
2.7363636363636363,-0.1009545544729302
2.7697339246119737,-0.314871571751376
2.8031042128603105,-0.5054128523711544
2.8364745011086474,-0.6431474151050042
2.8698447893569847,-0.7144361273757659
2.9032150776053216,-0.7248271751354656
2.9365853658536585,-0.696794760081304
2.969955654101996,-0.6608543713999347
3.0033259423503327,-0.6419919014093189
3.0366962305986696,-0.6467682315002302
3.070066518847007,-0.6578865514511834
3.1034368070953438,-0.6405906027210104
3.1368070953436806,-0.5594659925631656
3.170177383592018,-0.39803325977369547
3.203547671840355,-0.17085146738049878
3.2369179600886917,0.07904845208312049
3.270288248337029,0.29691525587285
3.303658536585366,0.43882904903187014
3.337028824833703,0.48842176099369433
3.37039911308204,0.45970524787820943
3.403769401330377,0.38611076090319735
3.437139689578714,0.30336450337844356
3.470509977827051,0.23604397923268428
3.503880266075388,0.19370084236494337
3.537250554323725,0.17558689619658296
3.5706208425720622,0.17811826315987264
3.603991130820399,0.199143384462528
3.637361419068736,0.23702294537905017
3.6707317073170733,0.28703381683511286
3.70410199556541,0.3393884055089043
3.737472283813747,0.38137914370864556
3.7708425720620844,0.40263278039239286
3.8042128603104213,0.39995048288748514
3.8375831485587586,0.3783477080029253
3.8709534368070955,0.3473055853572596
3.9043237250554323,0.31415475470695625
3.9376940133037697,0.2781942279479445
3.9710643015521065,0.22887146475995263
4.004434589800444,0.14951023638160837
4.037804878048781,0.025645139704368713
4.071175166297118,-0.1450648708195282
4.1045454545454545,-0.345499663830115
4.137915742793791,-0.5382551600998259
4.171286031042128,-0.6734819421112166
4.204656319290466,-0.7043365894615626
4.238026607538803,-0.6053064897237864
4.27139689578714,-0.3861361442990057
4.304767184035477,-0.09441903781286909
4.3381374722838135,0.19622474469931367
4.371507760532151,0.40930657297732975
4.404878048780488,0.49127249564906234
4.438248337028825,0.42926865424962374
4.471618625277162,0.2532740556854822
4.504988913525499,0.021949020824716368
4.538359201773836,-0.20107859918764126
4.571729490022173,-0.3697384720298342
4.60509977827051,-0.467432876387424
4.638470066518847,-0.5047410260166795
4.671840354767184,-0.5063938057581013
4.705210643015521,-0.49559648444091847
4.738580931263858,-0.4837119453921261
4.771951219512196,-0.4691176925297042
4.8053215077605325,-0.44348785909831273
4.838691796008869,-0.40009767733404
4.872062084257206,-0.3388087980494304
4.905432372505543,-0.26554482581581634
4.93880266075388,-0.187887898967319
4.972172949002218,-0.11046438901142788
5.005543237250555,-0.03314008725269022
5.0389135254988915,0.047329276979629555
5.072283813747228,0.1338318143275402
5.105654101995565,0.22610928641102418
5.139024390243902,0.3203473173374042
5.17239467849224,0.4111570453042893
5.205764966740577,0.4944292824268459
5.239135254988914,0.5690327664232577
5.2725055432372505,0.6361198448930853
5.305875831485587,0.6964381145745009
5.339246119733925,0.7475078196716601
5.372616407982262,0.7828188050415539
5.405986696230599,0.7940389056886998
5.439356984478936,0.775281408867125
5.472727272727273,0.7269823569403427
5.5060975609756095,0.6568812557565457
5.539467849223947,0.5770977760689865
5.572838137472284,0.4985144848477395
5.606208425720621,0.42533164678086033
5.639578713968958,0.35279281732792067
5.672949002217295,0.26956418669194193
5.706319290465632,0.16380526641841528
5.7396895787139695,0.029777748640708732
5.773059866962306,-0.12892264122737263
5.806430155210643,-0.30205804984213935
5.83980044345898,-0.48065575722966897
5.873170731707317,-0.665741189366565
5.906541019955654,-0.8716589863762436
5.939911308203992,-1.1195038775605621
5.9732815964523285,-1.4213860285794453
6.006651884700665,-1.762379189770423
6.040022172949002,-2.0903909481822485
6.073392461197339,-2.322283340794192
6.106762749445676,-2.3676027106891393
6.140133037694014,-2.162392528222425
6.173503325942351,-1.699198098145228
6.2068736141906875,-1.0389656472690691
6.240243902439024,-0.29685233305898384
6.273614190687361,0.39525219912492277
6.306984478935698,0.9358169405164796
6.340354767184036,1.2906330910302461
6.373725055432373,1.5021426918848584
6.40709534368071,1.6643972609651834
6.4404656319290465,1.8723601554858216
6.473835920177383,2.167480906776198
6.507206208425721,2.5055411271054355
6.540576496674058,2.7645044087075457
6.573946784922395,2.792285664253817
6.607317073170732,2.4750436955446626
6.640687361419069,1.7954207093240433
6.674057649667406,0.8533053589875593
6.707427937915743,-0.1617025779083203
6.74079822616408,-1.0348858816069588
6.774168514412417,-1.6003057535961938
6.807538802660754,-1.7932571664637782
6.840909090909091,-1.6617497952794615
6.874279379157428,-1.3363489526547192
6.9076496674057655,-0.9746794541416206
6.941019955654102,-0.7046670206679819
6.974390243902439,-0.5873336474642479
7.007760532150776,-0.6091046012604081
7.041130820399113,-0.7010986732076546
7.07450110864745,-0.7740068208847246
7.107871396895788,-0.7543200034656936
7.1412416851441245,-0.6101576225746953
7.174611973392461,-0.36028628363419274
7.207982261640798,-0.06559721755469348
7.241352549889135,0.19306565079590024
7.274722838137472,0.3435951492232736
7.30809312638581,0.348916966271145
7.341463414634147,0.22212649077741295
7.3748337028824835,0.02443213705687849
7.40820399113082,-0.15478953303149237
7.441574279379157,-0.2299079394108165
7.474944567627494,-0.1516553238847085
7.508314855875832,0.07226805582339127
7.541685144124169,0.3775923844560231
7.575055432372506,0.6659732316766993
7.6084257206208425,0.8416376270226491
7.641796008869179,0.8478950653317077
7.675166297117517,0.688548468346897
7.708536585365854,0.4249517172701865
7.741906873614191,0.14954373764235626
7.775277161862528,-0.05302469503415383
7.808647450110865,-0.1402559124731682
7.842017738359202,-0.12647116503433553
7.875388026607539,-0.07146706982967856
7.908758314855876,-0.048898283537682274
7.942128603104213,-0.10950930352758127
7.97549889135255,-0.2564248333072871
8.008869179600888,-0.44354336311709225
8.042239467849225,-0.5968962922716518
8.075609756097561,-0.6482565190676578
8.108980044345898,-0.5653195110901441
8.142350332594235,-0.36535151802064436
8.175720620842572,-0.10743319040586002
8.209090909090909,0.13201073073699596
8.242461197339246,0.28918895322341526
8.275831485587583,0.3360878605232874
8.30920177383592,0.2883137735168192
8.342572062084257,0.19574561224122106
8.375942350332595,0.12060209887466726
8.409312638580932,0.11174739257891088
8.442682926829269,0.1849203355671655
8.476053215077606,0.31611063908624387
8.509423503325943,0.45048105882908024
8.54279379157428,0.5236186754929433
8.576164079822616,0.48729565741795133
8.609534368070953,0.3299496027055311
8.64290465631929,0.08368928431742843
8.676274944567627,-0.18546078352889372
8.709645232815964,-0.40078181543852837
8.743015521064303,-0.5025972809701307
8.77638580931264,-0.46938698892116076
8.809756097560976,-0.32370058673241453
8.843126385809313,-0.12079204509831701
8.87649667405765,0.074460874232348
8.909866962305987,0.2116373126258474
8.943237250554324,0.26914484731973426
8.97660753880266,0.25349066643931056
9.009977827050998,0.1860197889547724
9.043348115299334,0.08606246488101973
9.076718403547671,-0.03925221530063203
9.110088691796008,-0.19272659252655133
9.143458980044347,-0.3743346274072886
9.176829268292684,-0.5666481434769098
9.21019955654102,-0.728983428434159
9.243569844789358,-0.80656727675981
9.276940133037694,-0.7527040478264441
9.310310421286031,-0.5538476815058062
9.343680709534368,-0.24415407406333006
9.377050997782705,0.10015474966682208
9.410421286031042,0.38675581143547094
9.443791574279379,0.543022240108971
9.477161862527716,0.5451808510668822
9.510532150776053,0.42673369682083073
9.543902439024391,0.2619870888671513
9.577272727272728,0.1328719722024684
9.610643015521065,0.09523460430932901
9.644013303769402,0.1600756950092496
9.677383592017739,0.2965135864004746
9.710753880266076,0.45180668444394445
9.744124168514412,0.5760933924311501
9.77749445676275,0.639374405245098
9.810864745011086,0.6347353032993507
9.844235033259423,0.5703084762038931
9.87760532150776,0.457933259219687
9.910975609756099,0.306347216258834
9.944345898004435,0.1220756068761039
9.977716186252772,-0.08456942701782065
10.01108647450111,-0.29428208662280186
10.044456762749446,-0.4794594575025812
10.077827050997783,-0.6118645144112455
10.11119733924612,-0.6736403377634993
10.144567627494457,-0.6655816650679989
10.177937915742794,-0.607733966731867
10.21130820399113,-0.5314650608502044
10.244678492239467,-0.4667102307620396
10.278048780487804,-0.4304924748678193
10.311419068736143,-0.4218147384022477
10.34478935698448,-0.4244341183827318
10.378159645232817,-0.41512253426622714
10.411529933481154,-0.3729991548672608
10.44490022172949,-0.28617430366800856
10.478270509977827,-0.15430503135780743
10.511640798226164,0.012131470346233393
10.545011086474501,0.19433692928095875
10.578381374722838,0.3686831872588823
10.611751662971175,0.5113443725923755
10.645121951219512,0.6041102439398889
10.67849223946785,0.6401284789789876
10.711862527716187,0.6269520269492361
10.745232815964524,0.5842979082416433
10.778603104212861,0.535997473715846
10.811973392461198,0.49888241539451017
10.845343680709535,0.47385118981778707
10.878713968957872,0.4442548504348754
10.912084257206208,0.3835715628005949
10.945454545454545,0.269530524098573
10.978824833702882,0.09803170115122072
11.012195121951219,-0.11030744030751878
11.045565410199556,-0.3148460524694122
11.078935698447895,-0.46926997315075397
11.112305986696231,-0.5392902651662472
11.145676274944568,-0.5158192322133693
11.179046563192905,-0.4180170819243457
11.212416851441242,-0.2853686608440853
11.245787139689579,-0.16273982252472674
11.279157427937916,-0.08491420724093855
11.312527716186253,-0.06651264545681176
11.34589800443459,-0.10019142113456495
11.379268292682926,-0.16236217334509997
11.412638580931263,-0.22307324759978645
11.4460088691796,-0.2559662115414034
11.479379157427939,-0.24517659451623977
11.512749445676276,-0.18785740925327601
11.546119733924613,-0.09275669377066177
11.57949002217295,0.02363395481607847
11.612860310421286,0.14161618884689406
11.646230598669623,0.24223346494659123
11.67960088691796,0.31013608122570613
11.712971175166297,0.33550700939421396
11.746341463414634,0.3153913165056788
11.77971175166297,0.25451620536663455
11.813082039911308,0.16523579444460362
11.846452328159646,0.06595580089023441
11.879822616407983,-0.02241195425758717
11.91319290465632,-0.08167349739001488
11.946563192904657,-0.1019243473447446
11.979933481152994,-0.08534190723874564
12.01330376940133,-0.04612736014439411
12.046674057649668,-0.005754113115257196
12.080044345898004,0.015212754694449224
12.113414634146341,0.005447538456807843
12.146784922394678,-0.03259347354694145
12.180155210643015,-0.08440800068187136
12.213525498891352,-0.13085895715673787
12.24689578713969,-0.1575778089923713
12.280266075388028,-0.16149048426376458
12.313636363636364,-0.15110738290678136
12.347006651884701,-0.14057003483136757
12.380376940133038,-0.1407095234303161
12.413747228381375,-0.15180498769639197
12.447117516629712,-0.16174083524664626
12.480487804878049,-0.15053073883372445
12.513858093126386,-0.0991296130593268
12.547228381374723,0.0014718513825056976
12.58059866962306,0.14484862549586555
12.613968957871396,0.3095641369615551
12.647339246119735,0.46489713232221863
12.680709534368072,0.5793135489232609
12.714079822616409,0.6285969097527375
12.747450110864746,0.6014390352924218
12.780820399113082,0.5016922129449478
12.81419068736142,0.34746035894408267
12.847560975609756,0.16747105118414288
12.880931263858093,-0.004872605430632339
12.91430155210643,-0.13911204381668923
12.947671840354767,-0.215610854165922
12.981042128603104,-0.23138003521343697
13.014412416851442,-0.20130681387643348
13.04778270509978,-0.1533272535905452
13.081152993348116,-0.1184335829977408
13.114523281596453,-0.11904508140263786
13.14789356984479,-0.16069476527852403
13.181263858093127,-0.23105588957304482
13.214634146341464,-0.3071076671909838
13.2480044345898,-0.36715557058086457
13.281374722838137,-0.4016427874968433
13.314745011086474,-0.4169246567796449
13.348115299334811,-0.42962380831660907
13.381485587583148,-0.4542358298069439
13.414855875831487,-0.4906405584590462
13.448226164079824,-0.5187816006275906
13.48159645232816,-0.5044111123999958
13.514966740576497,-0.41404748926440654
13.548337028824834,-0.23217695314271888
13.581707317073171,0.02792401008852851
13.615077605321508,0.32550653161941734
13.648447893569845,0.6055843587464551
13.681818181818182,0.8179159412577287
13.715188470066519,0.9328565243790198
13.748558758314855,0.9471721822487632
13.781929046563192,0.8784095952961463
13.815299334811531,0.7523835502550836
13.848669623059868,0.591491590945708
13.882039911308205,0.4101796384443867
13.915410199556542,0.218805206144492
13.948780487804878,0.031413106129966846
13.982150776053215,-0.12986121833345746
14.015521064301552,-0.2389462736899768
14.048891352549889,-0.2777916105792561
14.082261640798226,-0.24926439088221325
14.115631929046563,-0.1819647331464326
14.1490022172949,-0.12162419868553775
14.182372505543238,-0.11150955397011861
14.215742793791575,-0.17147483142435077
14.249113082039912,-0.2872914645768455
14.282483370288249,-0.4169192333972729
14.315853658536586,-0.5110700041079669
14.349223946784923,-0.5372593260194306
14.38259423503326,-0.49449257511662004
14.415964523281596,-0.41105291007381495
14.449334811529933,-0.3273404424010603
14.48270509977827,-0.2737360407252966
14.516075388026607,-0.25548271164293557
14.549445676274944,-0.2518115696429688
14.582815964523283,-0.2282411511800919
14.61618625277162,-0.15421359899494155
14.649556541019956,-0.016668343322381596
14.682926829268293,0.17603748708633854
14.71629711751663,0.3993248897348134
14.749667405764967,0.6217111520156569
14.783037694013304,0.8127843966243626
14.81640798226164,0.9472917189527137
14.849778270509978,1.0064123195439045
14.883148558758315,0.978866117225076
14.916518847006651,0.8632260947223833
14.949889135254988,0.670179067906589
14.983259423503327,0.42205225131481666
15.016629711751664,0.14813975749376637
15.05,-0.12264081925066513
15.083370288248338,-0.3679441782053774
15.116740576496674,-0.5736957484458762
15.150110864745011,-0.7310459802558473
15.183481152993348,-0.8318180708087994
15.216851441241685,-0.8668913247664088
15.250221729490022,-0.8298356396272408
15.283592017738359,-0.7240112201296665
15.316962305986696,-0.5681086244907635
15.350332594235034,-0.3951036236984788
15.383702882483371,-0.24313184236741697
15.417073170731708,-0.1418070974633192
15.450443458980045,-0.1008781783545925
15.483813747228382,-0.10754293279389476
15.517184035476719,-0.13422485107858104
15.550554323725056,-0.15264320521731436
15.583924611973393,-0.14619723393192907
15.61729490022173,-0.11361546272390978
15.650665188470066,-0.062229480129883614
15.684035476718403,0.004084017823832473
15.71740576496674,0.09352065308128005
15.750776053215079,0.2245173103781177
15.784146341463416,0.4128894630252494
15.817516629711752,0.6547037895693149
15.85088691796009,0.9154907839646729
15.884257206208426,1.1341598834079016
15.917627494456763,1.2425048318953609
15.9509977827051,1.192428022675155
15.984368070953437,0.9779159018398602
16.017738359201775,0.6404880798762411
16.05110864745011,0.2547104652990355
16.08447893569845,-0.09972914800868642
16.117849223946784,-0.3662925097164572
16.151219512195123,-0.5273576890353043
16.184589800443458,-0.6014076319238405
16.217960088691797,-0.6250668196809278
16.251330376940132,-0.6305460626770065
16.28470066518847,-0.6302824456550734
16.31807095343681,-0.6156704967483239
16.351441241685144,-0.5687585147274757
16.384811529933483,-0.4790089224292026
16.418181818181818,-0.35509469562309814
16.451552106430157,-0.22499960785728154
16.48492239467849,-0.12436901046570199
16.51829268292683,-0.07948202573676307
16.551662971175165,-0.09406710355052127
16.585033259423504,-0.1471134313697651
16.61840354767184,-0.20303788506404527
16.651773835920178,-0.22907273784297327
16.685144124168513,-0.21085556810704068
16.71851441241685,-0.15796871273739616
16.75188470066519,-0.09636995640404847
16.785254988913525,-0.05173887736125744
16.818625277161864,-0.032940995105938384
16.8519955654102,-0.02502624138936635
16.885365853658538,0.00394978492544481
16.918736141906873,0.08565359902081213
16.95210643015521,0.23289195717133887
16.985476718403547,0.4294590644887439
17.018847006651885,0.6334656250705873
17.05221729490022,0.7922021317096236
17.08558758314856,0.8612830568131463
17.118957871396898,0.8197585814825938
17.152328159645233,0.6758674158934574
17.18569844789357,0.46279259725713323
17.219068736141907,0.22751357576357545
17.252439024390245,0.01728469567425637
17.28580931263858,-0.13225497750235157
17.31917960088692,-0.20469704653347046
