Frequency (Hz),Amplitude
0.0,3.813312529333994
0.019801980198019802,3.825171368822454
0.039603960396039604,3.8604830903636995
0.0594059405940594,3.918477255669147
0.07920792079207921,3.9979446091009634
0.09900990099009901,4.097333500166667
0.1188118811881188,4.214858886013296
0.13861386138613863,4.348608072791997
0.15841584158415842,4.496631891009764
0.1782178217821782,4.657015591732589
0.19801980198019803,4.827928559834967
0.21782178217821782,5.007655107963293
0.2376237623762376,5.194610125338188
0.25742574257425743,5.387343636631157
0.27722772277227725,5.584537894872082
0.297029702970297,5.784999904279063
0.31683168316831684,5.987651506671592
0.33663366336633666,6.191518500547916
0.3564356435643564,6.395719740025729
0.37623762376237624,6.599456779436243
0.39603960396039606,6.8020043658791005
0.4158415841584158,7.00270190895796
0.43564356435643564,7.200945948998519
0.45544554455445546,7.396183581974763
0.4752475247524752,7.587906765939188
0.495049504950495,7.775647419178387
0.5148514851485149,7.9589732172174195
0.5346534653465347,8.137483999292591
0.5544554455445545,8.310808701864659
0.5742574257425742,8.47860274520146
0.594059405940594,8.640545807852886
0.613861386138614,8.796339932309904
0.6336633663366337,8.945707912941474
0.6534653465346534,9.088391924292058
0.6732673267326733,9.224152353966469
0.6930693069306931,9.352766809662466
0.7128712871287128,9.474029274501264
0.7326732673267327,9.58774938873251
0.7524752475247525,9.693751839237079
0.7722772277227723,9.791875841096571
0.7920792079207921,9.881974697917858
0.8118811881188118,9.963915429656607
0.8316831683168316,10.037578458435286
0.8514851485148516,10.10285734434508
0.8712871287128713,10.15965856450256
0.891089108910891,10.207901329733962
0.9108910891089109,10.24751743421706
0.9306930693069307,10.278451134244861
0.9504950495049505,10.300659053014474
0.9702970297029703,10.314110109003352
0.99009900990099,10.31878546609478
1.00990099009901,10.314678504167412
1.0297029702970297,10.301794809386507
1.0495049504950495,10.280152183936996
1.0693069306930694,10.249780675436494
1.0891089108910892,10.21072262676825
1.108910891089109,10.163032747596144
1.1287128712871286,10.106778209375026
1.1485148514851484,10.042038766266883
1.1683168316831685,9.968906905030707
1.188118811881188,9.887488027687594
1.2079207920792079,9.79790067159453
1.227722772277228,9.700276772510577
1.2475247524752475,9.59476197733606
1.2673267326732673,9.481516014477963
1.2871287128712872,9.360713131280738
1.3069306930693068,9.232542609701188
1.3267326732673268,9.097209373450251
1.3465346534653466,8.954934702227895
1.3663366336633662,8.8059570715062
1.3861386138613863,8.650533139642661
1.405940594059406,8.488938908009427
1.4257425742574257,8.321471084389946
1.4455445544554455,8.148448685201604
1.4653465346534653,7.970214918221732
1.4851485148514851,7.7871393944595075
1.504950495049505,7.599620725603476
1.5247524752475248,7.40808957194288
1.5445544554455446,7.2130122144833635
1.5643564356435644,7.014894733508947
1.5841584158415842,6.814287882948077
1.6039603960396038,6.611792753671026
1.6237623762376237,6.408067316209499
1.6435643564356437,6.203833919555752
1.6633663366336633,5.999887790416491
1.683168316831683,5.797106515942147
1.7029702970297032,5.59646038752366
1.7227722772277227,5.399023313620389
1.7425742574257426,5.205983750645628
1.7623762376237624,5.018654725049789
1.782178217821782,4.838481503714985
1.801980198019802,4.6670448097857635
1.8217821782178218,4.506056719051037
1.8415841584158414,4.357345634785725
1.8613861386138615,4.2228262827031715
1.881188118811881,4.104450902214455
1.900990099009901,4.004139252508035
1.920792079207921,3.923688142811411
1.9405940594059405,3.8646659519762556
1.9603960396039604,3.8283032087003765
1.98019801980198,3.815394957563632
2.0,3.826232024983701
2.01980198019802,3.860574786240138
2.0396039603960396,3.9176749382011544
2.0594059405940595,3.99634069027472
2.0792079207920793,4.095032363308156
2.099009900990099,4.211971393208006
2.118811881188119,4.3452467127625365
2.1386138613861387,4.4929069303065825
2.1584158415841586,4.653032329878107
2.1782178217821784,4.823785601926732
2.1980198019801978,5.003443469116626
2.217821782178218,5.1904129532025625
2.237623762376238,5.383236354265454
2.257425742574257,5.580588602776298
2.2772277227722775,5.78126992135367
2.297029702970297,5.98419596674518
2.3168316831683167,6.188386950562614
2.336633663366337,6.392956707692945
2.3564356435643563,6.59710229324868
2.376237623762376,6.800094420274998
2.3960396039603964,7.001268873597811
2.4158415841584158,7.200018924696941
2.4356435643564356,7.3957887077062745
2.455445544554456,7.5880674821328284
2.4752475247524752,7.776384692657966
2.495049504950495,7.960305732914942
2.514851485148515,8.139428323441852
2.5346534653465347,8.313379420881569
2.5544554455445545,8.481812583943617
2.5742574257425743,8.644405730459585
2.594059405940594,8.80085922837429
2.6138613861386135,8.95089427136611
2.633663366336634,9.094251496828518
2.6534653465346536,9.230689810136896
2.673267326732673,9.359985384501215
2.6930693069306932,9.481930810333752
2.712871287128713,9.596334372020278
2.7326732673267324,9.703019433359017
2.7524752475247527,9.801823915801307
2.7722772277227725,9.892599856068125
2.792079207920792,9.975213031789632
2.811881188118812,10.049542645580752
2.8316831683168315,10.115481059472241
2.8514851485148514,10.172933572907759
2.8712871287128716,10.221818238628698
2.891089108910891,10.262065711731337
2.910891089108911,10.29361912802234
2.9306930693069306,10.316434008541266
2.9504950495049505,10.330478187781887
2.9702970297029703,10.335731763746777
2.99009900990099,10.332187068525116
3.00990099009901,10.319848658607508
3.0297029702970297,10.298733324656341
3.0495049504950495,10.268870120947813
3.0693069306930694,10.230300415205024
3.089108910891089,10.183077960062088
3.108910891089109,10.127268987950773
3.128712871287129,10.062952331796792
3.148514851485148,9.990219574567957
3.1683168316831685,9.90917523144883
3.1881188118811883,9.819936969244646
3.2079207920792077,9.72263586856424
3.227722772277228,9.617416735424305
3.2475247524752473,9.504438470184619
3.267326732673267,9.383874503203646
3.2871287128712874,9.255913308336659
3.3069306930693068,9.12075900743362
3.3267326732673266,8.978632081389174
3.346534653465347,8.829770206114876
3.366336633663366,8.674429235120044
3.386138613861386,8.51288435427982
3.4059405940594063,8.345431438923848
3.4257425742574257,8.172388648677302
3.4455445544554455,7.994098301600005
3.4653465346534653,7.810929076138902
3.485148514851485,7.623278597213085
3.504950495049505,7.431576471261412
3.5247524752475248,7.236287843982457
3.5445544554455446,7.037917563165204
3.564356435643564,6.8370150363387205
3.5841584158415842,6.634179877096361
3.603960396039604,6.430068431864827
3.6237623762376234,6.225401265885749
3.6435643564356437,6.020971656116477
3.6633663366336635,5.81765507914711
3.683168316831683,5.616419579218834
3.702970297029703,5.418336734997086
3.722772277227723,5.224592688791948
3.7425742574257423,5.036498330485636
3.762376237623762,4.855497216473803
3.7821782178217824,4.6831691457941185
3.801980198019802,4.5212265500199385
3.8217821782178216,4.371500102466336
3.841584158415842,4.235909466309079
3.8613861386138613,4.116415286321235
3.881188118811881,4.014949905043772
3.9009900990099013,3.93332730862995
3.9207920792079207,3.873137530359704
3.9405940594059405,3.835636389084457
3.96039603960396,3.8216462395791226
3.98019801980198,3.8314850265962757
4.0,3.864937642588017
4.01980198019802,3.9212755975177123
4.03960396039604,3.999320840159293
4.0594059405940595,4.097540920430993
4.079207920792079,4.214158422502287
4.099009900990099,4.34725838273776
4.118811881188119,4.494881786794712
4.138613861386139,4.655098890497782
4.158415841584159,4.826061092017985
4.178217821782178,5.006033439303231
4.198019801980198,5.193411512844014
4.217821782178218,5.3867267912883445
4.237623762376238,5.584644212480504
4.257425742574258,5.785954918459812
4.2772277227722775,5.989566398394101
4.297029702970297,6.194491560974439
4.316831683168317,6.399837728455898
4.336633663366336,6.6047961486006095
4.356435643564357,6.80863234630176
4.376237623762377,7.010677455773954
4.3960396039603955,7.210320561008848
4.415841584158416,7.407002005719865
4.435643564356436,7.600207598477679
4.455445544554455,7.789463622947098
4.475247524752476,7.974332559388653
4.4950495049504955,8.154409426789083
4.514851485148514,8.329318661853389
4.534653465346535,8.498711459585024
4.554455445544555,8.6622635090742
4.574257425742574,8.819673066709154
4.594059405940594,8.970659316961484
4.613861386138614,9.114960978012723
4.633663366336633,9.252335115752055
4.653465346534653,9.382556135112575
4.673267326732674,9.505414922394687
4.693069306930693,9.620718116229835
4.712871287128713,9.728287488250619
4.732673267326733,9.827959417435432
4.752475247524752,9.919584444562187
4.772277227722772,10.003026895300634
4.792079207920793,10.078164562257237
4.811881188118812,10.14488843780821
4.8316831683168315,10.20310249086007
4.851485148514852,10.252723481798558
4.871287128712871,10.29368081085863
4.891089108910891,10.325916395996686
4.910891089108912,10.349384577094572
4.930693069306931,10.364052043993263
4.9504950495049505,10.36989778646041
4.97029702970297,10.366913064754597
4.99009900990099,10.355101399975842
5.00990099009901,10.33447858389794
5.02970297029703,10.305072708478015
5.0495049504950495,10.266924215741943
5.069306930693069,10.22008596926616
5.089108910891089,10.164623349027728
5.108910891089109,10.100614371989277
5.128712871287129,10.028149841441028
5.148514851485149,9.947333528852187
5.1683168316831685,9.858282392811239
5.188118811881188,9.761126840579752
5.207920792079208,9.656011038874228
5.227722772277227,9.543093281755324
5.247524752475248,9.422546424980375
5.267326732673268,9.294558397904206
5.2871287128712865,9.159332806045123
5.306930693069307,9.017089639823867
5.326732673267327,8.868066107798446
5.346534653465346,8.71251761603104
5.366336633663367,8.550718919115893
5.3861386138613865,8.382965472953858
5.405940594059405,8.209575024666757
5.425742574257426,8.030889481175825
5.445544554455446,7.847277104968324
5.465346534653465,7.659135093432976
5.485148514851486,7.466892606738439
5.504950495049505,7.271014318259021
5.524752475247524,7.072004570420609
5.544554455445545,6.8704122264690906
5.564356435643565,6.6668363132355735
5.584158415841584,6.461932548536582
5.603960396039604,6.256420834773413
5.623762376237624,6.051093770541138
5.643564356435643,5.846826174236848
5.663366336633663,5.644585513010222
5.683168316831684,5.445442966940735
5.702970297029703,5.250584606807734
5.7227722772277225,5.061321795823813
5.742574257425743,4.879099416074611
5.762376237623762,4.705499861405605
5.782178217821782,4.542239965433727
5.801980198019803,4.391157263596554
5.821782178217822,4.254181467329662
5.841584158415841,4.133287160455842
5.861386138613861,4.030425038657547
5.881188118811881,3.9474319801085533
5.900990099009901,3.885924945331968
5.920792079207921,3.847189426667895
5.9405940594059405,3.8320781448142274
5.96039603960396,3.840937549445435
5.98019801980198,3.8735766025389182
6.0,3.9292843987505823
6.01980198019802,4.006892875891343
6.03960396039604,4.1048719416688
6.0594059405940595,4.221439791441121
6.079207920792079,4.354671789551341
6.099009900990099,4.5025956292700835
6.118811881188119,4.663266213835625
6.138613861386139,4.834818808880293
6.158415841584159,5.015502488916353
6.178217821782178,5.203697636088259
6.198019801980198,5.397921657007619
6.217821782178218,5.596826699521749
6.237623762376237,5.799192421440201
6.257425742574258,6.003916075910894
6.2772277227722775,6.210001481897447
6.297029702970296,6.416547896909081
6.316831683168317,6.622739403990254
6.336633663366337,6.827835143931272
6.356435643564356,7.031160538362189
6.376237623762377,7.232099533407783
6.396039603960396,7.430087825427817
6.415841584158415,7.6246069939095245
6.435643564356436,7.815179450326156
6.455445544554456,8.001364107852645
6.475247524752475,8.18275268002076
6.495049504950495,8.35896652334402
6.514851485148515,8.52965394755713
6.534653465346534,8.6944879261415
6.554455445544554,8.853164148536225
6.574257425742575,9.00539936349095
6.594059405940594,9.15092997024306
6.6138613861386135,9.289510820556972
6.633663366336634,9.420914200182896
6.653465346534653,9.544928963040539
6.673267326732673,9.661359795495128
6.693069306930694,9.77002659155373
6.712871287128713,9.870763922751046
6.732673267326732,9.963420588993195
6.752475247524753,10.047859238750004
6.772277227722772,10.123956048792977
6.792079207920792,10.191600455216587
6.811881188118813,10.25069492879934
6.8316831683168315,10.301154788895214
6.851485148514851,10.34290805102872
6.871287128712871,10.375895304223446
6.891089108910891,10.400069614850008
6.910891089108911,10.415396454453337
6.930693069306931,10.421853649630126
6.9504950495049505,10.419431352590847
6.97029702970297,10.408132031569341
6.99009900990099,10.387970480753145
7.00990099009901,10.35897384990812
7.02970297029703,10.32118169437751
7.0495049504950495,10.274646046656965
7.069306930693069,10.219431511300623
7.089108910891089,10.155615385508106
7.108910891089109,10.083287808398069
7.128712871287128,10.002551942704438
7.148514851485149,9.913524193458386
7.1683168316831685,9.816334469164003
7.188118811881187,9.711126492065132
7.207920792079208,9.598058165365481
7.227722772277228,9.477302006740436
7.247524752475247,9.349045659208501
7.267326732673268,9.213492492463104
7.287128712871287,9.070862310158438
7.306930693069306,8.921392181462108
7.326732673267327,8.765337418507729
7.346534653465347,8.602972725283331
7.366336633663366,8.434593548066594
7.3861386138613865,8.260517662850688
7.405940594059406,8.081087041375934
7.425742574257425,7.896670044441342
7.445544554455446,7.707663999114269
7.465346534653466,7.514498225177522
7.485148514851485,7.317637585369113
7.504950495049505,7.117586643105752
7.524752475247524,6.914894519392728
7.544554455445544,6.710160545736486
7.564356435643565,6.504040809197525
7.584158415841584,6.297255674694387
7.603960396039604,6.090598341331532
7.623762376237624,5.884944433567256
7.643564356435643,5.681262529748011
7.663366336633663,5.480625369871469
7.683168316831684,5.284221235889353
7.702970297029703,5.0933646323274
7.7227722772277225,4.909504885967857
7.742574257425743,4.734230620676217
7.762376237623762,4.569267278825896
7.782178217821782,4.416464066888254
7.801980198019803,4.277766141033318
7.821782178217822,4.155167922567994
7.841584158415841,4.050644677945725
7.861386138613862,3.966062416194375
7.881188118811881,3.90307087435675
7.900990099009901,3.862990189525304
7.92079207920792,3.846707047324934
7.9405940594059405,3.8545982263035565
7.96039603960396,3.886496589601845
7.980198019801979,3.9417066798604643
8.0,4.019066577946345
8.01980198019802,4.117043422843369
8.03960396039604,4.2338451146920715
8.05940594059406,4.36753113743423
8.07920792079208,4.516109771368326
8.099009900990099,4.677614807959549
8.118811881188119,4.850160142855153
8.138613861386139,5.031974229441277
8.158415841584159,5.221418196199346
8.178217821782178,5.416991877023737
8.198019801980198,5.617331625203073
8.217821782178218,5.8212030400704124
8.237623762376238,6.0274909300329895
8.257425742574258,6.235188121831214
8.277227722772277,6.4433841600799395
8.297029702970297,6.651254525249545
8.316831683168317,6.85805070979567
8.336633663366337,7.063091302054071
8.356435643564357,7.265754108610615
8.376237623762377,7.465469276045167
8.396039603960396,7.661713335645743
8.415841584158416,7.854004078088028
8.435643564356436,8.041896161095252
8.455445544554456,8.224977356382135
8.475247524752476,8.402865349307717
8.495049504950495,8.57520501347484
8.514851485148515,8.741666091740202
8.534653465346535,8.901941224010267
8.554455445544555,9.055744270419975
8.574257425742575,9.202808885858754
8.594059405940595,9.342887308285272
8.613861386138613,9.475749328892844
8.633663366336634,9.60118141702085
8.653465346534654,9.718985976839638
8.673267326732672,9.828980716354796
8.693069306930694,9.930998112266382
8.712871287128714,10.024884956756576
8.732673267326732,10.11050197443456
8.752475247524753,10.187723499500416
8.772277227722773,10.25643720475214
8.792079207920791,10.31654387539714
8.811881188118813,10.36795722177861
8.831683168316832,10.410603726122142
8.85148514851485,10.44442251927489
8.871287128712872,10.469365284173946
8.891089108910892,10.485396183461912
8.91089108910891,10.492491809284493
8.930693069306932,10.490641153872524
8.950495049504951,10.479845600044955
8.97029702970297,10.460118931281377
8.990099009900991,10.431487361517034
9.00990099009901,10.393989585321124
9.029702970297029,10.347676849643953
9.04950495049505,10.292613048872205
9.06930693069307,10.228874845528992
9.089108910891088,10.156551819611986
9.10891089108911,10.075746650294638
9.12871287128713,9.986575334543922
9.148514851485148,9.889167448154033
9.16831683168317,9.783666455787055
9.188118811881187,9.670230077878125
9.207920792079207,9.549030723742044
9.227722772277229,9.420256001951822
9.247524752475247,9.28410932109794
9.267326732673267,9.140810596438346
9.287128712871288,8.990597080779454
9.306930693069306,8.833724341264467
9.326732673267326,8.670467407671556
9.346534653465348,8.501122122430555
9.366336633663366,8.326006727945446
9.386138613861386,8.145463733044528
9.405940594059407,7.959862107528785
9.425742574257425,7.76959986185823
9.445544554455445,7.575107077913737
9.465346534653467,7.376849466233576
9.485148514851485,7.175332534602314
9.504950495049505,6.97110646135618
9.524752475247526,6.764771772535169
9.544554455445544,6.556985922221974
9.564356435643564,6.34847086557157
9.584158415841586,6.140021687261066
9.603960396039604,5.932516294121555
9.623762376237623,5.7269260848337575
9.643564356435645,5.524327351597623
9.663366336633663,5.325912922702965
9.683168316831683,5.133003190948008
9.702970297029704,4.947055162696516
9.722772277227723,4.769667493135385
9.742574257425742,4.6025786726547135
9.762376237623764,4.447654705143597
9.782178217821782,4.306862009084938
9.801980198019802,4.182221281584136
9.821782178217823,4.07573924185972
9.841584158415841,3.989318046383374
9.861386138613861,3.9246469144070075
9.881188118811881,3.8830864729024506
9.900990099009901,3.8655617800335964
9.92079207920792,3.8724824206841952
9.94059405940594,3.903705412973754
9.96039603960396,3.9585487586184227
9.98019801980198,4.035852709234797
10.0,4.13407614828569
10.01980198019802,4.251410245848067
10.03960396039604,4.385891773805154
10.05940594059406,4.53550282653316
10.07920792079208,4.698249692775244
10.099009900990099,4.8722190811990425
10.118811881188119,5.055613664865665
10.138613861386139,5.246770823994202
10.158415841584159,5.444168948806612
10.178217821782178,5.6464252850192365
10.198019801980198,5.852288543864685
10.217821782178218,6.060628669159323
10.237623762376238,6.270425417937438
10.257425742574258,6.480756827887132
10.277227722772277,6.690788216372737
10.297029702970297,6.8997620589980775
10.316831683168317,7.106988900327229
10.336633663366337,7.311839327409589
10.356435643564357,7.513736965312752
10.376237623762377,7.712152415825087
10.396039603960396,7.906598043675609
10.415841584158416,8.096623510717095
10.435643564356436,8.281811962030064
10.455445544554454,8.461776775307067
10.475247524752476,8.636158793979527
10.495049504950495,8.804623974047892
10.514851485148514,8.966861383732324
10.534653465346535,9.12258150349397
10.554455445544555,9.271514781525404
10.574257425742573,9.41341040643655
10.594059405940595,9.548035264608727
10.613861386138614,9.675173054626711
10.633663366336632,9.794623535415814
10.653465346534654,9.906201888299913
10.673267326732674,10.009738176242847
10.693069306930692,10.105076886120829
10.712871287128714,10.19207654206729
10.732673267326733,10.270609379795681
10.752475247524751,10.340561073394538
10.772277227722773,10.401830507447164
10.792079207920793,10.454329588495243
10.81188118811881,10.497983090874547
10.831683168316832,10.532728532830538
10.851485148514852,10.558516079595327
10.87128712871287,10.57530847079744
