Frequency (Hz),Amplitude
0.0,6.615160641225775
0.01993355481727575,6.617285122034589
0.0398671096345515,6.623646221109426
0.059800664451827246,6.634207058698286
0.079734219269103,6.648906665170589
0.09966777408637874,6.667660710837537
0.11960132890365449,6.690362498315185
0.13953488372093023,6.71688418993664
0.159468438538206,6.747078237387719
0.17940199335548174,6.780778977010864
0.19933554817275748,6.817804352171972
0.21926910299003324,6.857957723674465
0.23920265780730898,6.901029730295202
0.25913621262458475,6.946800163890382
0.27906976744186046,6.995039826906485
0.29900332225913623,7.045512344240574
0.318936877076412,7.097975905933536
0.3388704318936877,7.1521849218818545
0.3588039867109635,7.2078915743837255
0.37873754152823924,7.264847258709984
0.39867109634551495,7.322803905868957
0.4186046511627907,7.381515185228324
0.4385382059800665,7.440737587618558
0.4584717607973422,7.5002313919600905
0.47840531561461797,7.559761520347301
0.49833887043189373,7.619098287925562
0.5182724252491695,7.6780180548630605
0.5382059800664452,7.736303788307759
0.5581395348837209,7.79374554249145
0.5780730897009968,7.8501408651586635
0.5980066445182725,7.905295138313708
0.6179401993355482,7.959021860944708
0.637873754152824,8.011142880942934
0.6578073089700996,8.061488582926353
0.6777408637873754,8.109898038127401
0.6976744186046512,8.156219121941772
0.717607973421927,8.200308604175424
0.7375415282392027,8.242032216484318
0.7574750830564785,8.281264700986917
0.7774086378737541,8.317889843547382
0.7973421926910299,8.351800494783449
0.8172757475083057,8.382898581447208
0.8372093023255814,8.411095110460474
0.8571428571428572,8.436310167557002
0.877076411960133,8.4584729121901
0.8970099667774087,8.477521570103402
0.9169435215946844,8.493403424730923
0.9368770764119602,8.506074808387874
0.9568106312292359,8.515501094031727
0.9767441860465116,8.521656688210541
0.9966777408637875,8.524525025669263
1.0166112956810631,8.524098565951125
1.036544850498339,8.520378792206582
1.0564784053156147,8.51337621230408
1.0764119601328903,8.503110362220914
1.0963455149501662,8.489609811576216
1.1162790697674418,8.472912171047616
1.1362126245847177,8.453064101285712
1.1561461794019936,8.430121322802572
1.176079734219269,8.404148626158202
1.196013289036545,8.37521988159993
1.2159468438538206,8.34341804711923
1.2358803986710964,8.308835173676316
1.255813953488372,8.271572406100606
1.275747508305648,8.231739977902278
1.2956810631229239,8.189457197923286
1.3156146179401993,8.144852426413093
1.3355481727574752,8.098063037733166
1.3554817275747508,8.049235366473802
1.3754152823920267,7.998524633308495
1.3953488372093024,7.9460948464158045
1.4152823920265782,7.892118673772543
1.435215946843854,7.836777281071455
1.4551495016611296,7.780260129453174
1.4750830564784054,7.72276472668131
1.495016611295681,7.664496324851604
1.514950166112957,7.605667557237413
1.5348837209302328,7.546498006467061
1.5548172757475083,7.487213695943214
1.5747508305647842,7.428046496296695
1.5946843853820598,7.369233438769325
1.6146179401993357,7.3110159278008995
1.6345514950166113,7.2536388458141605
1.6544850498338872,7.1973495443105575
1.6744186046511629,7.14239671696536
1.6943521594684385,7.089029152490351
1.7142857142857144,7.037494367647806
1.73421926910299,6.988037123958276
1.754152823920266,6.940897835322656
1.7740863787375416,6.896310877915568
1.7940199335548175,6.854502818192341
1.8139534883720931,6.815690579533777
1.8338870431893688,6.780079572723443
1.8538205980066447,6.747861819869569
1.8737541528239203,6.7192141052644825
1.893687707641196,6.694296189728114
1.9136212624584719,6.673249126920873
1.9335548172757475,6.656193720681169
1.9534883720930232,6.643229161453151
1.9734219269102993,6.634431877214989
1.993355481727575,6.629854629998125
2.0132890365448506,6.629525883225571
2.0332225913621262,6.633449457927477
2.0531561461794023,6.641604487762451
2.073089700996678,6.653945674104238
2.0930232558139537,6.670403833717371
2.1129568106312293,6.690886723218368
2.132890365448505,6.715280117039405
2.1528239202657806,6.743449109352989
2.1727574750830567,6.775239605641557
2.1926910299003324,6.810479966466761
2.212624584717608,6.848982764536819
2.2325581395348837,6.890546616313349
2.25249169435216,6.93495805097134
2.2724252491694354,6.9819933822865545
2.292358803986711,7.03142055269629
2.312292358803987,7.083000923067198
2.332225913621263,7.136490986322448
2.352159468438538,7.191643987774521
2.3720930232558137,7.24821143956198
2.39202657807309,7.305944520830437
2.4119601328903655,7.364595359107769
2.431893687707641,7.423918191629564
2.4518272425249172,7.483670408136442
2.471760797342193,7.543613478891732
2.4916943521594686,7.603513773380252
2.511627906976744,7.663143276392132
2.5315614617940203,7.722280209020564
2.551495016611296,7.7807095625747085
2.5714285714285716,7.838223553583803
2.5913621262458477,7.894622008010896
2.611295681063123,7.949712682552064
2.6312292358803986,8.003311530523968
2.6511627906976742,8.055242919374715
2.6710963455149503,8.105339806328752
2.691029900332226,8.153443878121779
2.7109634551495017,8.199405660218972
2.7308970099667778,8.243084600356415
2.7508305647840534,8.284349130712945
2.770764119601329,8.323076712516594
2.7906976744186047,8.35915386642206
2.810631229235881,8.392476191565251
2.8305647840531565,8.422948375809577
2.850498338870432,8.450484199345766
2.870431893687708,8.475006533490573
2.8903654485049834,8.496447336247996
2.910299003322259,8.51474764594647
2.9302325581395348,8.529857574043719
2.950166112956811,8.541736297994438
2.9700996677740865,8.550352054901014
2.990033222591362,8.555682136510917
3.0099667774086383,8.557712885982417
3.029900332225914,8.556439696709898
3.0498338870431896,8.551867013377587
3.0697674418604657,8.544008335292641
3.089700996677741,8.532886221932692
3.1096345514950166,8.518532300524255
3.129568106312292,8.50098727534567
3.1495016611295683,8.480300938316303
3.169435215946844,8.456532180290244
3.1893687707641196,8.429749002314157
3.2093023255813957,8.400028525931349
3.2292358803986714,8.367457001414865
3.249169435215947,8.332129812587159
3.2691029900332227,8.294151476630178
3.289036544850499,8.253635637003432
3.3089700996677744,8.210705047267219
3.32890365448505,8.165491543249987
3.3488372093023258,8.118136000602748
3.3687707641196014,8.068788274348018
3.388704318936877,8.017607116557874
3.4086378737541527,7.964760067788187
3.428571428571429,7.910423317359406
3.4485049833887045,7.854781527017812
3.46843853820598,7.7980276119466145
3.4883720930232562,7.7403624725422615
3.508305647840532,7.68199466984881
3.5282392026578075,7.623140037082374
3.548172757475083,7.564021219312423
3.5681063122923593,7.504867133139666
3.588039867109635,7.445912338169686
3.60797342192691,7.387396312282087
3.6279069767441863,7.329562623195709
3.647840531561462,7.272657989692464
3.6677740863787376,7.216931227145773
3.6877076411960132,7.162632073757892
3.7076411960132893,7.110009896185816
3.727574750830565,7.059312276051469
3.7475083056478407,7.010783482184611
3.7674418604651168,6.964662837300734
3.787375415282392,6.92118299209087
3.807308970099668,6.880568124273532
3.8272425249169437,6.843032084855755
3.8471760797342194,6.808776518452128
3.867109634551495,6.777988988758143
3.887043189368771,6.750841143881157
3.9069767441860463,6.727486958907081
3.9269102990033224,6.708061094545551
3.9468438538205985,6.692677410719296
3.9667774086378738,6.6814276723805985
3.98671096345515,6.6743804815821735
4.0066445182724255,6.671580464944377
4.026578073089701,6.673047739308592
4.046511627906977,6.6787776708249185
4.0664451827242525,6.688740934365373
4.086378737541528,6.702883871424834
4.106312292358805,6.721129136046053
4.1262458471760795,6.7433766102472505
4.146179401993356,6.7695045633598365
4.166112956810632,6.799371023933248
4.186046511627907,6.832815328663577
4.205980066445183,6.869659810263278
4.225913621262459,6.9097115853041
4.245847176079734,6.952764403723969
4.26578073089701,6.998600523693591
4.2857142857142865,7.046992578636791
4.305647840531561,7.097705407102265
4.325581395348838,7.150497820603264
4.345514950166113,7.205124289199184
4.365448504983389,7.261336529246888
4.385382059800665,7.318884982200007
4.40531561461794,7.377520177429604
4.425249169435216,7.436993975675958
4.445182724252492,7.497060692858636
4.465116279069767,7.557478106549783
4.485049833887043,7.618008349461583
4.50498338870432,7.678418695846501
4.524916943521594,7.738482247804716
4.544850498338871,7.797978529194642
4.5647840531561465,7.856693995209726
4.584717607973422,7.914422465778786
4.604651162790698,7.970965490824103
4.624584717607974,8.026132655124485
4.644518272425249,8.079741830123899
4.664451827242526,8.131619379539732
4.6843853820598005,8.181600325090143
4.704318936877076,8.229528478102912
4.724252491694353,8.275256542209352
4.7441860465116275,8.31864619178093
4.764119601328904,8.35956813024432
4.78405315614618,8.39790213192016
4.803986710963455,8.43353707057596
4.823920265780731,8.46637093746723
4.8438538205980075,8.49631085126238
4.863787375415282,8.523273061907227
4.883720930232559,8.547182950179668
4.9036544850498345,8.567975024414762
4.92358803986711,8.585592915639175
4.943521594684386,8.599989372140877
4.963455149501661,8.611126254310394
4.983388704318937,8.618974530420855
5.003322259136213,8.623514273861653
5.023255813953488,8.624734662202437
5.043189368770764,8.622633978335312
5.063122923588041,8.617219613821785
5.083056478405315,8.60850807445276
5.102990033222592,8.596524987912401
5.122923588039868,8.581305113315187
5.142857142857143,8.562892352258915
5.162790697674419,8.541339760898817
5.182724252491695,8.51670956239848
5.20265780730897,8.489073158946194
5.222591362126246,8.458511142339312
5.242524916943522,8.425113301928853
5.262458471760797,8.388978628480286
5.282392026578074,8.350215312239325
5.3023255813953485,8.308940733191935
5.322259136212625,8.265281441172128
5.342192691029901,8.219373123098064
5.362126245847176,8.171360554205394
5.382059800664452,8.121397529696193
5.4019933554817285,8.069646772735798
5.421926910299003,8.016279814209733
5.44186046511628,7.961476839108853
5.4617940199335555,7.905426493849926
5.48172757475083,7.848325648277535
5.501661129568107,7.790379105549886
5.5215946843853825,7.731799252610609
5.541528239202658,7.672805643521668
5.561461794019934,7.613624507617665
5.5813953488372094,7.554488174282376
5.601328903654485,7.495634406195058
5.621262458471762,7.437305633204412
5.641196013289036,7.379748079620307
5.661129568106313,7.3232107787292335
5.681063122923589,7.267944469796463
5.700996677740864,7.2142003747659125
5.72093023255814,7.162228854342637
5.740863787375416,7.112277946157853
5.760797342192691,7.0645917912558405
5.780730897009967,7.0194089591559
5.800664451827243,6.976960686134687
5.820598006644518,6.9374690460041935
5.840531561461795,6.901145077337523
5.8604651162790695,6.868186895585176
5.880398671096346,6.8387778225589715
5.900332225913622,6.813084569051131
5.920265780730897,6.791255508614021
5.940199335548173,6.773419081488888
5.960132890365449,6.759682367132307
5.980066445182724,6.7501298616149645
6.0,6.7448224923311635
6.0199335548172765,6.743796897043787
6.039867109634551,6.747064987502063
6.059800664451828,6.754613810020672
6.0797342192691035,6.7664057068972765
6.099667774086379,6.782378773828466
6.119601328903655,6.802447600032649
6.139534883720931,6.826504270053927
6.159468438538206,6.854419599592568
6.179401993355482,6.8860445724833355
6.1993355481727574,6.9212119423106175
6.219269102990033,6.959737960179907
6.23920265780731,7.0014241898133625
6.259136212624584,7.046059372263536
6.279069767441861,7.09342130492573
6.299003322259137,7.14327870290976
6.318936877076412,7.195393014918361
6.338870431893688,7.249520170284903
6.3588039867109645,7.305412238483772
6.378737541528239,7.362818987015046
6.398671096345516,7.421489327897106
6.418604651162791,7.4811726469426
6.438538205980066,7.541620013455254
6.458471760797343,7.602585270921669
6.4784053156146175,7.663826011671892
6.498338870431894,7.725104440362441
6.51827242524917,7.78618813253318
6.538205980066445,7.846850695454756
6.558139534883721,7.906872339075353
6.578073089700998,7.966040365153731
6.598006644518272,8.024149582689725
6.617940199335549,8.081002657587964
6.6378737541528245,8.136410404166373
6.6578073089701,8.19019202569002
6.677740863787376,8.24217531061036
6.6976744186046515,8.292196790649601
6.717607973421927,8.340101866314065
6.737541528239203,8.385744904866698
6.7574750830564785,8.42898931525213
6.777408637873754,8.469707603956584
6.797342192691031,8.507781415306756
6.8172757475083055,8.543101559269818
6.837209302325582,8.575568029412517
6.857142857142858,8.605090013311722
6.877076411960133,8.63158589737951
6.897009966777409,8.654983267771952
6.9169435215946855,8.675218908789038
6.93687707641196,8.692238799940387
6.956810631229236,8.705998112645338
6.9767441860465125,8.716461207351806
6.996677740863787,8.723601631693942
7.016611295681064,8.727402120159569
7.036544850498339,8.727854595602055
7.056478405315615,8.724960172803561
7.076411960132891,8.718729164175004
7.096345514950166,8.709181087558212
7.116279069767442,8.696344675975489
7.136212624584719,8.680257889047063
7.156146179401993,8.660967925664274
7.17607973421927,8.638531237363395
7.196013289036546,8.613013541687192
7.21594684385382,8.584489834645671
7.235880398671097,8.553044401191414
7.2558139534883725,8.518770822402645
7.275747508305648,8.481771977818896
7.295681063122924,8.442160041092754
7.3156146179402,8.40005646680723
7.335548172757475,8.355591965957338
7.355481727574752,8.308906467205828
7.3754152823920265,8.260149060595703
7.395348837209303,8.209477919937658
7.415282392026579,8.157060199590651
7.435215946843854,8.103071900824569
7.45514950166113,8.047697702402665
7.475083056478406,7.991130749460534
7.495016611295681,7.933572394203402
7.514950166112956,7.875231881416306
7.5348837209302335,7.816325971308714
7.554817275747508,7.757078491830409
7.574750830564784,7.697719812338176
7.5946843853820605,7.63848623041025
7.614617940199336,7.579619263750421
7.634551495016611,7.521364839552288
7.6544850498338874,7.46397237446868
7.674418604651163,7.407693739508673
7.694352159468439,7.352782105822506
7.714285714285715,7.299490669475231
7.73421926910299,7.248071255982041
7.754152823920266,7.1987728085858285
7.774086378737542,7.151839767971756
7.794019933554818,7.107510355268327
7.813953488372093,7.066014774668135
7.83388704318937,7.027573356656321
7.853820598006645,6.992394667454327
7.8737541528239205,6.96067361462589
7.893687707641197,6.932589582574892
7.913621262458472,6.908304634602244
7.9335548172757475,6.887961820002478
7.953488372093024,6.871683625126877
7.9734219269103,6.85957060623566
7.9933554817275745,6.851700239213261
8.013289036544851,6.848126016836569
8.033222591362128,6.848876818393792
8.053156146179402,6.853956569289733
8.073089700996679,6.8633442001867495
8.093023255813954,6.876993906634868
8.11295681063123,6.894835701503904
8.132890365448505,6.916776244307874
8.152823920265782,6.942699924138387
8.172757475083056,6.972470166756836
8.192691029900331,7.005930931695874
8.21262458471761,7.042908362137402
8.232558139534884,7.083212548898213
8.252491694352159,7.126639369989621
8.272425249169435,7.172972368757292
8.292358803986712,7.221984636319118
8.312292358803987,7.273440667628853
8.332225913621263,7.327098164714172
8.352159468438538,7.382709765192375
8.372093023255815,7.440024678801537
8.392026578073091,7.498790219188862
8.411960132890366,7.558753222403012
8.43189368770764,7.6196613473245876
8.451827242524917,7.681264256563022
8.471760797342194,7.743314679115011
8.491694352159469,7.805569358316351
8.511627906976745,7.867789890349044
8.53156146179402,7.929743459830663
8.551495016611296,7.991203479865017
8.571428571428573,8.051950144431123
8.591362126245848,8.111770901191402
8.611295681063122,8.170460852766118
8.6312292358804,8.227823094304432
8.651162790697676,8.283668994828803
8.67109634551495,8.337818429381215
8.691029900332227,8.390099968489727
8.710963455149502,8.44035103093225
8.730897009966778,8.488418005220625
8.750830564784053,8.534156344682431
8.77076411960133,8.577430640489446
8.790697674418604,8.61811467648217
8.81063122923588,8.656091469172873
8.830564784053157,8.691253295879347
8.850498338870432,8.723501713549009
8.870431893687707,8.752747570477736
8.890365448504983,8.77891101280894
8.91029900332226,8.801921487412855
8.930232558139535,8.821717742492327
8.950166112956811,8.83824782703537
8.970099667774086,8.851469090033794
8.990033222591363,8.861348180207578
9.00996677740864,8.867861046813436
9.029900332225914,8.870992941968755
9.049833887043189,8.870738424786728
9.069767441860467,8.86710136749055
9.089700996677742,8.860094963551196
9.109634551495017,8.849741737771195
9.129568106312293,8.836073558112522
9.14950166112957,8.819131648937129
9.169435215946844,8.798966605189845
9.189368770764121,8.775638406903047
9.209302325581396,8.749216433235954
9.22923588039867,8.719779475076013
9.249169435215949,8.687415745022372
9.269102990033224,8.652222883337393
9.289036544850498,8.614307958189382
9.308970099667773,8.57378745821505
9.328903654485051,8.53078727510024
9.348837209302326,8.485442673510992
9.368770764119601,8.437898245302748
9.388704318936878,8.388307844492857
9.408637873754152,8.336834499003091
9.428571428571429,8.28365029466715
9.448504983388705,8.22893622646041
9.46843853820598,8.172882011354261
9.488372093023255,8.115685856638887
9.508305647840533,8.057554177014424
9.528239202657808,7.9987012532443185
9.548172757475083,7.939348824725701
9.56810631229236,7.879725607995465
9.588039867109636,7.820066732999885
9.60797342192691,7.760613088958397
9.627906976744187,7.701610571903062
9.647840531561462,7.643309226532634
9.667774086378738,7.585962275942674
9.687707641196015,7.5298250341400665
9.70764119601329,7.475153698070987
9.727574750830565,7.422204018225358
9.747508305647841,7.37122984974607
9.767441860465118,7.322481589361934
9.787375415282392,7.276204507335827
9.807308970099669,7.232636987893649
9.827242524916944,7.192008696146975
9.84717607973422,7.1545386941693465
9.867109634551497,7.120433533413476
9.887043189368772,7.089885354809338
9.906976744186046,7.063070031381233
9.926910299003321,7.040145390781255
9.9468438538206,7.021249556490357
9.966777408637874,7.006499446364317
9.986710963455149,6.995989465547635
10.006644518272426,6.9897904274837765
10.026578073089702,6.987948731863644
10.046511627906977,6.990485822039496
10.066445182724253,6.99739793696163
10.086378737541528,7.008656164436971
10.106312292358805,7.0242067938931925
10.126245847176081,7.043971958321089
10.146179401993356,7.067850547113727
10.16611295681063,7.0957193645287475
10.186046511627907,7.127434502796051
10.205980066445184,7.162832894701307
10.225913621262459,7.201734007906426
10.245847176079735,7.243941642319073
10.26578073089701,7.289245792390021
10.285714285714286,7.3374245381132575
10.305647840531563,7.3882459314842786
10.325581395348838,7.441469848961215
10.345514950166113,7.496849784787713
10.36544850498339,7.554134564607078
10.385382059800666,7.613069963385796
10.40531561461794,7.673400216072627
10.425249169435217,7.73486941349615
10.445182724252492,7.797222779641815
10.465116279069768,7.860207829588283
10.485049833887045,7.923575409994681
10.50498338870432,7.987080626122695
10.524916943521594,8.050483660976441
10.544850498338871,8.113550493294131
10.564784053156147,8.176053521882041
10.584717607973422,8.237772104201532
10.604651162790697,8.29849301726259
10.624584717607974,8.358010848798305
10.64451827242525,8.416128326445468
10.664451827242525,8.472656592281822
10.684385382059801,8.527415429609997
10.704318936877076,8.58023344836392
10.724252491694353,8.630948234971786
10.74418604651163,8.679406471961434
10.764119601328904,8.725464032054939
10.784053156146179,8.768986050980688
10.803986710963457,8.809846982741387
10.823920265780732,8.847930640620131
10.843853820598007,8.883130226786829
10.863787375415283,8.915348352984322
10.88372093023256,8.944497054427769
10.903654485049834,8.970497798739556
10.923588039867111,8.993281491464359
10.943521594684386,9.012788479460836
10.96345514950166,9.028968553245598
