Frequency (Hz),Amplitude
0.0,2.1035268814839876
0.01978021978021978,2.120894131476731
0.03956043956043956,2.1720962255187453
0.05934065934065934,2.254636972498796
0.07912087912087912,2.3649327823042086
0.0989010989010989,2.4989093870367167
0.11868131868131868,2.652496662196163
0.13846153846153844,2.8219416884855435
0.15824175824175823,3.0039532557654267
0.17802197802197803,3.195730465072726
0.1978021978021978,3.3949278727674677
0.21758241758241756,3.599594210695576
0.23736263736263735,3.8081060099198663
0.2571428571428572,4.0191063869903045
0.2769230769230769,4.231452788712507
0.2967032967032967,4.444174212287049
0.31648351648351647,4.656436994038687
0.3362637362637363,4.867517799123444
0.35604395604395606,5.076782431273608
0.3758241758241758,5.28366924597556
0.3956043956043956,5.487676162582432
0.4153846153846154,5.688350474315256
0.4351648351648351,5.8852808295424275
0.45494505494505494,6.078090899242909
0.4747252747252747,6.2664343569611844
0.4945054945054945,6.449990883795177
0.5142857142857143,6.628462977102365
0.5340659340659341,6.801573392127125
0.5538461538461538,6.96906308428893
0.5736263736263736,7.130689549294879
0.5934065934065934,7.28622548075665
0.6131868131868132,7.435457682279443
0.6329670329670329,7.578186184314728
0.6527472527472528,7.714223526382913
0.6725274725274726,7.843394173293484
0.6923076923076923,7.965534040258725
0.7120879120879121,8.080490106720221
0.7318681318681318,8.188120102593507
0.7516483516483516,8.288292253719934
0.7714285714285715,8.380885075774277
0.7912087912087912,8.465787207849667
0.810989010989011,8.542897278532608
0.8307692307692308,8.612123798571776
0.8505494505494506,8.67338507529922
0.8703296703296702,8.726609144829624
0.8901098901098901,8.771733718782656
0.9098901098901099,8.808706142875248
0.9296703296703297,8.837483365240049
0.9494505494505494,8.858031912762785
0.9692307692307692,8.870327874111418
0.989010989010989,8.87435688846734
1.0087912087912088,8.870114139274524
1.0285714285714287,8.857604352607202
1.0483516483516484,8.836841800028465
1.0681318681318681,8.8078503060805
1.087912087912088,8.770663260819571
1.1076923076923075,8.725323638094286
1.1274725274725275,8.671884020572879
1.1472527472527472,8.610406632864526
1.1670329670329669,8.540963384462483
1.1868131868131868,8.463635924676943
1.2065934065934065,8.378515712239103
1.2263736263736265,8.285704102865598
1.2461538461538462,8.18531245879853
1.2659340659340659,8.077462285212826
1.2857142857142858,7.962285399448367
1.3054945054945055,7.83992414032973
1.3252747252747252,7.710531626445845
1.3450549450549452,7.574272074257852
1.3648351648351649,7.43132118939233
1.3846153846153846,7.28186664759904
1.4043956043956045,7.126108685787062
1.4241758241758242,6.964260828539823
1.443956043956044,6.796550781860615
1.4637362637362636,6.6232215340290965
1.4835164835164834,6.4445327139054704
1.5032967032967033,6.260762270529186
1.523076923076923,6.0722085553927165
1.542857142857143,5.879192911613834
1.5626373626373626,5.682062904085346
1.5824175824175823,5.481196363790161
1.6021978021978023,5.2770064707417985
1.621978021978022,5.069948167141124
1.6417582417582417,4.860526279843756
1.6615384615384616,4.649305844226208
1.6813186813186813,4.436925264949653
1.7010989010989013,4.224113125598408
1.720879120879121,4.0117096643341545
1.7406593406593405,3.8006941450403717
1.7604395604395604,3.5922195139903956
1.7802197802197801,3.387655705885393
1.7999999999999998,3.1886424707988006
1.8197802197802198,2.997151103556556
1.8395604395604395,2.815551053317476
1.8593406593406594,2.646670722920206
1.879120879120879,2.493830426664956
1.8989010989010988,2.3608095626408647
1.9186813186813187,2.2516948823296046
1.9384615384615385,2.1705578181089917
1.9582417582417584,2.120950883039327
1.978021978021978,2.105308712651065
1.9978021978021978,2.124447914105149
2.0175824175824175,2.177382809228996
2.0373626373626372,2.2615474740115324
2.0571428571428574,2.373315716567669
2.076923076923077,2.5085977011016283
2.096703296703297,2.6633276906456955
2.1164835164835165,2.833768472729933
2.1362637362637362,3.0166489741656473
2.1560439560439564,3.2091885746623854
2.175824175824176,3.409060106698312
2.195604395604396,3.6143278036040325
2.215384615384615,3.8233808875591193
2.2351648351648348,4.034872649061384
2.254945054945055,4.24766858967653
2.2747252747252746,4.460804036781605
2.2945054945054943,4.673450279614278
2.314285714285714,4.884887847223158
2.3340659340659338,5.0944855499279385
2.353846153846154,5.301684075534238
2.3736263736263736,5.5059831447198055
2.3934065934065933,5.706931432751239
2.413186813186813,5.904118637833003
2.4329670329670328,6.097169216555568
2.452747252747253,6.285737417114722
2.4725274725274726,6.469503326218372
2.4923076923076923,6.648169710957574
2.512087912087912,6.821459486826834
2.5318681318681318,6.989113681149371
2.5516483516483515,7.15088979023046
2.5714285714285716,7.306560450809308
2.5912087912087913,7.455912363461875
2.610989010989011,7.598745418775874
2.6307692307692307,7.734871987314642
2.6505494505494505,7.86411634231758
2.6703296703296706,7.986314190283576
2.6901098901098903,8.101312289453965
2.70989010989011,8.20896814005585
2.7296703296703297,8.3091497332187
2.7494505494505495,8.401735347911384
2.769230769230769,8.4866133872005
2.7890109890109893,8.563682246706456
2.808791208791209,8.632850209413174
2.8285714285714287,8.69403536203206
2.8483516483516484,8.747165528981004
2.8681318681318677,8.79217822075229
2.887912087912088,8.82902059404074
2.9076923076923076,8.857649421508915
2.9274725274725273,8.87803106950024
2.947252747252747,8.890141482388728
2.9670329670329667,8.893966172590085
2.986813186813187,8.88950021556348
3.0065934065934066,8.876748249417563
3.0263736263736263,8.855724479006138
3.046153846153846,8.826452684667384
3.0659340659340657,8.788966236034176
3.085714285714286,8.743308111629304
3.1054945054945056,8.689530925268912
3.1252747252747253,8.627696960639186
3.145054945054945,8.557878215796952
3.1648351648351647,8.480156459789862
3.184615384615385,8.394623304109928
3.2043956043956046,8.301380292308878
3.2241758241758243,8.20053901183812
3.243956043956044,8.09222123306306
3.2637362637362637,7.976559081480036
3.2835164835164834,7.85369525048699
3.3032967032967036,7.723783263688676
3.3230769230769233,7.586987797740568
3.342857142857143,7.443485079259019
3.3626373626373627,7.293463372490957
3.3824175824175824,7.137123578428642
3.4021978021978025,6.974679971115365
3.4219780219780223,6.8063611033357185
3.441758241758242,6.632410922139437
3.4615384615384617,6.45309014527003
3.481318681318681,6.2686779632996785
3.501098901098901,6.079474150096895
3.520879120879121,5.885801687484277
3.5406593406593405,5.688010040316129
3.5604395604395602,5.486479258004537
3.58021978021978,5.281625130712199
3.5999999999999996,5.07390569677614
3.61978021978022,4.863829487019052
3.6395604395604395,4.6519660066373305
3.659340659340659,4.4389591012820855
3.679120879120879,4.225544033327012
3.6989010989010986,4.012569302346119
3.718681318681319,3.801024457868521
3.7384615384615385,3.5920753110107957
3.758241758241758,3.3871079142169673
3.7780219780219784,3.187782155164542
3.7978021978021976,2.996094251784136
3.8175824175824173,2.8144438960760496
3.8373626373626375,2.645694894055907
3.8571428571428568,2.4932064825250366
3.876923076923077,2.3607963007742083
3.896703296703296,2.2525809702048636
3.916483516483517,2.172642596413889
3.936263736263736,2.124514375190599
3.956043956043956,2.110577012359737
3.9758241758241755,2.131565712130176
3.9956043956043956,2.186404024308331
4.015384615384615,2.272446369898829
4.035164835164835,2.386011089870498
4.054945054945055,2.5229792404936973
4.0747252747252745,2.6792768884064837
4.094505494505494,2.851171724761641
4.114285714285715,3.035403986471673
4.134065934065934,3.229206318997649
4.153846153846154,3.430264327374582
4.173626373626373,3.636653431498785
4.193406593406594,3.846772137638912
4.213186813186813,4.05928118613517
4.232967032967033,4.273051920164161
4.252747252747253,4.487124166923711
4.2725274725274724,4.700672626675794
4.292307692307692,4.912980369842749
4.312087912087913,5.123418059556194
4.331868131868132,5.331427693696188
4.351648351648352,5.536509876059487
4.371428571428571,5.738213829359828
4.391208791208792,5.936129535362904
4.410989010989011,6.129881526813837
4.43076923076923,6.319123965205744
4.450549450549451,6.503536722967378
4.4703296703296695,6.682822253417746
4.49010989010989,6.8567030812746035
4.50989010989011,7.024919784206349
4.52967032967033,7.187229364701411
4.549450549450549,7.343403933558251
4.569230769230769,7.493229643215058
4.589010989010989,7.636505822178995
4.608791208791209,7.773044271913117
4.628571428571428,7.90266869539494
4.648351648351649,8.025214232702059
4.6681318681318675,8.140527083805445
4.687912087912088,8.24846420256146
4.707692307692308,8.348893048918509
4.7274725274725276,8.441691388768062
4.747252747252747,8.526747132806811
4.767032967032967,8.603958207339922
4.786813186813187,8.673232451224417
4.806593406593407,8.734487534188911
4.826373626373626,8.787650892619569
4.846153846153847,8.832659679610712
4.8659340659340655,8.869460726671873
4.885714285714286,8.89801051498606
4.905494505494506,8.91827515454545
4.9252747252747255,8.930230369867532
4.945054945054945,8.933861491329127
4.964835164835165,8.929163451460326
4.984615384615385,8.916140785824137
5.004395604395604,8.894807638379865
5.024175824175824,8.865187771497702
5.043956043956045,8.827314581066528
5.0637362637362635,8.78123111742513
5.083516483516483,8.726990113158946
5.103296703296703,8.664654019148724
5.123076923076923,8.594295050647608
5.142857142857143,8.515995245612102
5.162637362637362,8.429846538037351
5.182417582417583,8.33595084966879
5.2021978021978015,8.23442020420636
5.221978021978022,8.125376869015934
5.241758241758242,8.008953530456845
5.2615384615384615,7.885293510275076
5.281318681318681,7.754551032166645
5.301098901098901,7.616891549668584
5.320879120879121,7.472492149098437
5.340659340659341,7.321542044478916
5.36043956043956,7.164243185442269
5.380219780219781,7.0008110042543
5.3999999999999995,6.8314753346567745
5.41978021978022,6.656481543628668
5.43956043956044,6.476091927981738
5.4593406593406595,6.290587441692444
5.479120879120879,6.100269838038774
5.498901098901099,5.9054643342980775
5.518681318681319,5.7065229377484075
5.538461538461538,5.503828612338831
5.558241758241758,5.297800518693062
5.578021978021979,5.088900629941694
5.5978021978021975,4.8776421169465385
5.617582417582418,4.664600014099538
5.637362637362637,4.450424826104531
5.6571428571428575,4.235859919525952
5.676923076923077,4.0217637553021435
5.696703296703297,3.8091382361985424
5.716483516483517,3.5991646021891794
5.736263736263735,3.3932482608446444
5.756043956043956,3.193073387406403
5.775824175824176,3.0006664987390654
5.795604395604395,2.8184645182042
5.815384615384615,2.6493756823122845
5.835164835164835,2.4968095774215606
5.854945054945055,2.364635987295579
5.874725274725275,2.25701722802459
5.894505494505494,2.1780622735105206
5.914285714285715,2.1312989470191166
5.934065934065933,2.119062633423997
5.953846153846154,2.142008131655696
5.973626373626374,2.1989613351783697
5.993406593406593,2.287184123266209
6.013186813186813,2.4029234914291635
6.032967032967033,2.542015330470895
6.052747252747253,2.700363104106713
6.072527472527473,2.8742274292896135
6.092307692307692,3.0603503484894556
6.112087912087913,3.255970419670634
6.131868131868131,3.458780386063244
6.151648351648352,3.6668625285770964
6.171428571428572,3.8786212825876665
6.191208791208791,4.092722194029086
6.210989010989011,4.308040322119668
6.230769230769231,4.523618247902666
6.2505494505494505,4.738632616510817
6.270329670329671,4.952367782031068
6.29010989010989,5.164195159999903
6.309890109890111,5.373557078470147
6.329670329670329,5.579954138336136
6.349450549450549,5.782935298228856
6.36923076923077,5.982090072225099
6.3890109890109885,6.177042367770988
6.408791208791209,6.3674456002226085
6.428571428571428,6.5529788045165205
6.4483516483516485,6.733343528869641
6.468131868131868,6.908261344521807
6.487912087912088,7.07747184297233
6.507692307692308,7.240731020735364
6.527472527472527,7.397809973502717
6.547252747252747,7.5484938383892075
6.567032967032967,7.692580935876892
6.5868131868131865,7.8298820730947325
6.606593406593407,7.960219977866398
6.626373626373626,8.083428839053537
6.6461538461538465,8.19935393351108
6.665934065934065,8.307851323753287
6.685714285714286,8.408787613432123
6.705494505494506,8.5020397501264
6.725274725274725,8.587494866863368
6.745054945054945,8.665050155347387
6.764835164835165,8.734612765130784
6.7846153846153845,8.796099723992908
6.804395604395605,8.849437875641796
6.824175824175824,8.894563831557385
6.8439560439560445,8.93142393438581
6.863736263736263,8.959974230794497
6.883516483516484,8.980180452128055
6.903296703296704,8.992018001580105
6.923076923076923,8.995471946930412
6.942857142857143,8.990537018200627
6.962637362637362,8.977217609866058
6.9824175824175825,8.955527787533715
7.002197802197802,8.92549129926726
7.021978021978022,8.887141592015398
7.041758241758242,8.840521833890735
7.061538461538461,8.785684943360229
7.081318681318681,8.722693626756175
7.101098901098901,8.65162042591105
7.1208791208791204,8.57254777817359
7.140659340659341,8.485568091594946
7.16043956043956,8.390783838703928
7.1802197802197805,8.288307673044482
7.199999999999999,8.178262573560325
7.21978021978022,8.060782023021961
7.23956043956044,7.936010228053054
7.259340659340659,7.804102389994393
7.279120879120879,7.665225037930553
7.298901098901099,7.519556437811159
7.318681318681318,7.367287094870893
7.338461538461539,7.208620370683083
7.358241758241758,7.04377324142274
7.3780219780219785,6.872977230599071
7.397802197802197,6.696479558084674
7.417582417582418,6.514544558304144
7.437362637362638,6.327455434725083
7.457142857142857,6.135516436355949
7.476923076923077,5.939055566175408
7.496703296703297,5.738427963125784
7.516483516483516,5.534020140906593
7.536263736263736,5.326255321437142
7.556043956043957,5.1156001725022335
7.575824175824176,4.902573352619305
7.595604395604395,4.687756387076897
7.615384615384615,4.471807552652135
7.635164835164835,4.255479637395612
7.654945054945055,4.039642660834171
7.674725274725275,3.825312864478462
7.694505494505494,3.6136894460247366
7.7142857142857135,3.406200460961489
7.734065934065935,3.2045587379739846
7.753846153846154,3.010826952912801
7.7736263736263735,2.8274871587533106
7.793406593406592,2.657502595511726
7.813186813186814,2.504347049848657
7.832967032967034,2.37195985205344
7.852747252747252,2.2645694053195444
7.872527472527472,2.1863329581035744
7.892307692307693,2.1407917889030355
7.912087912087912,2.130247811031784
7.931868131868132,2.155276968509529
7.951648351648351,2.214598340170398
7.971428571428572,2.305364128270524
7.991208791208791,2.4237291718006406
8.010989010989011,2.5654635881857013
8.03076923076923,2.7264302077232783
8.05054945054945,2.9028679918611644
8.07032967032967,3.0915095528326586
8.09010989010989,3.2895909281501576
8.10989010989011,3.4948057326306365
8.129670329670331,3.7052384401926
8.149450549450549,3.9192958968868896
8.169230769230769,4.135645752030926
8.189010989010988,4.353164655898864
8.20879120879121,4.570896227437424
8.22857142857143,4.788017632441877
8.248351648351647,5.0038132945816285
8.268131868131867,5.217654321007377
8.287912087912087,5.42898242272962
8.307692307692308,5.637297336220111
8.327472527472528,5.8421469605313705
8.347252747252746,6.043119598635443
8.367032967032966,6.239837831417663
8.386813186813187,6.431953661903938
8.406593406593407,6.619144651350946
8.426373626373627,6.801110833078213
8.446153846153845,6.977572238878775
8.465934065934066,7.14826691013537
8.485714285714286,7.312949294213159
8.505494505494505,7.471388948455209
8.525274725274725,7.6233694908048095
8.545054945054945,7.768687748948488
8.564835164835165,7.907153069836898
8.584615384615384,8.038586759191574
8.604395604395604,8.162821626664519
8.624175824175826,8.279701617078562
8.643956043956043,8.389081511936144
8.663736263736263,8.490826688369665
8.683516483516483,8.584812925089086
8.703296703296704,8.670926246795164
8.723076923076924,8.74906280007029
8.742857142857142,8.819128755013269
8.762637362637362,8.881040227908944
8.782417582417583,8.934723221068461
8.802197802197803,8.980113576676642
8.821978021978023,9.017156942071171
8.84175824175824,9.04580874437649
8.86153846153846,9.066034172844228
8.881318681318682,9.077808167626163
8.901098901098901,9.081115414039356
8.920879120879121,9.075950341687173
8.940659340659339,9.062317128084002
8.96043956043956,9.040229706705093
8.98021978021978,9.009711779654424
9.0,8.970796835420822
9.01978021978022,8.923528172485128
9.03956043956044,8.867958929857897
9.05934065934066,8.80415212597837
9.079120879120879,8.732180707803945
9.098901098901099,8.652127612378841
9.11868131868132,8.5640858437088
9.138461538461538,8.46815856840722
9.158241758241758,8.36445923434279
9.178021978021977,8.253111717443975
9.197802197802199,8.134250502942805
9.217582417582419,8.00802090872406
9.237362637362637,7.87457936015444
9.257142857142856,7.734093727889338
9.276923076923078,7.586743742807314
9.296703296703297,7.4327215055547216
9.316483516483517,7.272232112392129
9.336263736263735,7.105494424378454
9.356043956043957,6.9327420137495785
9.375824175824176,6.754224330098078
9.395604395604396,6.570208140240116
9.415384615384616,6.380979310265881
9.435164835164835,6.186845017278853
9.454945054945055,5.988136503159954
9.474725274725275,5.785212515238425
9.494505494505495,5.578463621509545
9.514285714285714,5.368317644268535
9.534065934065934,5.1552465298863535
9.553846153846154,4.939775069036417
9.573626373626373,4.7224920068035905
9.593406593406593,4.50406424139445
9.613186813186815,4.285255006672552
9.632967032967032,4.066947162435043
9.652747252747252,3.850172952319617
9.672527472527472,3.636151763842244
9.692307692307693,3.4263373803089903
9.712087912087913,3.222475621816696
9.731868131868131,3.026671506212416
9.75164835164835,2.841461044847519
9.771428571428572,2.6698749585655555
9.791208791208792,2.515468421812352
9.810989010989012,2.3822729268674547
9.83076923076923,2.2746106188979653
9.850549450549451,2.1967172435085414
9.87032967032967,2.1521752614486056
9.89010989010989,2.143271720096636
9.90989010989011,2.170507869270318
9.92967032967033,2.2324846689464604
9.94945054945055,2.3262217116667285
9.96923076923077,2.447753435924439
9.989010989010989,2.5927563237300753
10.008791208791209,2.7570284989370197
10.028571428571428,2.9367681491503212
10.048351648351648,3.12868404916518
10.068131868131868,3.329999178120953
10.08791208791209,3.538400414313325
10.107692307692307,3.7519689322010805
10.127472527472527,3.96910998239969
10.147252747252747,4.188490340341606
10.167032967032966,4.408985977507689
10.186813186813188,4.629639766747742
10.206593406593406,4.84962794511322
10.226373626373626,5.068233788218187
10.246153846153845,5.284827039113627
10.265934065934067,5.498847850491523
10.285714285714286,5.709794235227218
10.305494505494504,5.917212233677323
10.325274725274724,6.120688183615709
10.345054945054946,6.319842620067799
10.364835164835165,6.514325442299451
10.384615384615385,6.703812069686557
10.404395604395603,6.888000372625437
10.424175824175824,7.066608213663416
10.443956043956044,7.239371471318757
10.463736263736264,7.406042447474828
10.483516483516484,7.566388580949579
10.503296703296703,7.720191406498448
10.523076923076923,7.867245711340561
10.542857142857143,8.007358851227984
10.562637362637362,8.140350195799696
10.582417582417584,8.266050678996963
10.602197802197802,8.384302435057556
10.621978021978022,8.494958504349784
10.641758241758241,8.597882596279291
10.661538461538463,8.692948898873217
10.681318681318682,8.780041926550044
10.7010989010989,8.859056399120194
10.72087912087912,8.929897146310497
10.740659340659342,8.99247903312617
10.760439560439561,9.04672690220458
10.780219780219781,9.09257553001297
10.799999999999999,9.129969594328392
10.819780219780219,9.158863650934178
10.83956043956044,9.179222117895105
