Time (s),Filtered Signal
0.0,0.03378541257913238
0.033370165745856356,-0.421118836847113
0.06674033149171271,-0.7734720353767266
0.10011049723756907,-0.9560713665610334
0.13348066298342542,-0.9588491652144195
0.16685082872928178,-0.8263008985951286
0.20022099447513814,-0.6345842419868317
0.2335911602209945,-0.4601459047212172
0.26696132596685085,-0.353941890526875
0.30033149171270723,-0.33059506261687316
0.33370165745856356,-0.37345147143336993
0.3670718232044199,-0.44922876966456154
0.4004419889502763,-0.5232892803607163
0.43381215469613266,-0.5689867172212429
0.467182320441989,-0.5696805278590391
0.5005524861878453,-0.5164899537529708
0.5339226519337017,-0.4062934798810713
0.5672928176795581,-0.24265422492593774
0.6006629834254145,-0.03898680463859935
0.6340331491712707,0.17924020853740935
0.6674033149171271,0.37658934230279567
0.7007734806629835,0.5151540680684178
0.7341436464088398,0.565557889946379
0.7675138121546962,0.5174113563720671
0.8008839779005525,0.3849871938038044
0.8342541436464089,0.20550235066979416
0.8676243093922653,0.029996710113419763
0.9009944751381216,-0.09065401880517668
0.934364640883978,-0.12037767942839189
0.9677348066298344,-0.048663489818433825
1.0011049723756906,0.10596642273071187
1.0344751381215471,0.3009507769880477
1.0678453038674034,0.4817450308847822
1.1012154696132597,0.5974529833366989
1.1345856353591162,0.6155609037710498
1.1679558011049724,0.5315507774834642
1.201325966850829,0.3704605563732563
1.2346961325966852,0.17952573187383733
1.2680662983425415,0.013600391285393833
1.301436464088398,-0.08239983242199134
1.3348066298342542,-0.08819394715327865
1.3681767955801105,-0.014521369947996009
1.401546961325967,0.10145152412166555
1.4349171270718233,0.2100474262270854
1.4682872928176796,0.26674587490210955
1.501657458563536,0.24657043578257246
1.5350276243093923,0.149982860386849
1.5683977900552488,-0.0008316019216638495
1.601767955801105,-0.17227527349076865
1.6351381215469614,-0.3311362396970145
1.6685082872928179,-0.45336702081621183
1.7018784530386741,-0.5277321509983293
1.7352486187845306,-0.5547602489171048
1.768618784530387,-0.5428975323070888
1.8019889502762432,-0.5039160163992991
1.8353591160220997,-0.44905514205796754
1.868729281767956,-0.3867198476225477
1.9020994475138122,-0.32202444983351963
1.9354696132596687,-0.2579083928780548
1.968839779005525,-0.19692095878988786
2.0022099447513813,-0.14240461647272776
2.0355801104972375,-0.09811250386403461
2.0689502762430942,-0.06628089207418393
2.1023204419889505,-0.04529117349110656
2.135690607734807,-0.02855226378240264
2.169060773480663,-0.0057229779719303025
2.2024309392265193,0.033869256393767526
2.235801104972376,0.097020070625784
2.2691712707182323,0.18353985280638324
2.3025414364640886,0.28553486481758
2.335911602209945,0.38908927505406576
2.369281767955801,0.47727702222484664
2.402651933701658,0.5332628366164645
2.436022099447514,0.542979999700294
2.4693922651933704,0.4977187459173529
2.5027624309392267,0.39701517412186016
2.536132596685083,0.2512894476342878
2.5695027624309392,0.08253045950419426
2.602872928176796,-0.07883695089386517
2.636243093922652,-0.20134045839573544
2.6696132596685085,-0.26214373832948595
2.7029834254143648,-0.25517809599311986
2.736353591160221,-0.19383807492222435
2.7697237569060777,-0.10643760384606746
2.803093922651934,-0.025842795967613394
2.8364640883977903,0.02258091423063565
2.8698342541436466,0.02972380024456403
2.903204419889503,0.004643096529362726
2.936574585635359,-0.03092166886134396
2.969944751381216,-0.05286078546991198
3.003314917127072,-0.04538578006405275
3.0366850828729284,-0.0076884915631329695
3.0700552486187846,0.046066767618163224
3.103425414364641,0.09330089280586244
3.1367955801104976,0.1132895950319896
3.170165745856354,0.0966232014809149
3.20353591160221,0.04947163281621882
3.2369060773480665,-0.009564889518055794
3.2702762430939227,-0.05874962637035468
3.3036464088397794,-0.08412910851037089
3.3370165745856357,-0.086319957260126
3.370386740331492,-0.07914865560939618
3.4037569060773483,-0.08031779585963433
3.4371270718232045,-0.09889420068304824
3.4704972375690613,-0.12690875134666454
3.5038674033149175,-0.14096518116932905
3.537237569060774,-0.11464439815733266
3.57060773480663,-0.03603125106616916
3.6039779005524863,0.07947612918451546
3.6373480662983426,0.1898202823308467
3.6707182320441993,0.24254643085756286
3.7040883977900556,0.19992463903426475
3.737458563535912,0.060177525171813996
3.770828729281768,-0.13707557061107864
3.8041988950276244,-0.32526623393941834
3.837569060773481,-0.4388302051930447
3.8709392265193374,-0.44102920559327513
3.9043093922651937,-0.33809933752338966
3.93767955801105,-0.17348094519305826
3.9710497237569062,-0.006195660950662526
4.0044198895027625,0.11495859045197311
4.037790055248619,0.16878705017339685
4.071160220994475,0.16379774183614243
4.104530386740332,0.12685907194098073
4.1379005524861885,0.08675387690923034
4.171270718232044,0.06188821755262638
4.204640883977901,0.05699824510500993
4.238011049723757,0.06737443435785903
4.271381215469614,0.0850937181957739
4.30475138121547,0.10226489880260137
4.338121546961326,0.1103382025089947
4.371491712707183,0.09873679129929636
4.404861878453039,0.05713647167022404
4.438232044198895,-0.01728822725063056
4.471602209944752,-0.11132259260093524
4.504972375690608,-0.19274582301519508
4.538342541436465,-0.21831978945594332
4.5717127071823205,-0.15203497982705358
4.605082872928177,0.014320748400601822
4.638453038674034,0.24978557260494536
4.67182320441989,0.49040139399015115
4.7051933701657465,0.662433110740476
4.738563535911602,0.7124402940664417
4.771933701657459,0.6294480624030937
4.805303867403316,0.4480544916811671
4.8386740331491715,0.23112961807733262
4.872044198895028,0.04114761493993451
4.905414364640884,-0.08559866820899963
4.938784530386741,-0.15005528726442421
4.972154696132597,-0.18300573596552602
5.005524861878453,-0.2246473759741373
5.03889502762431,-0.3021773728077776
5.072265193370166,-0.41614957571549704
5.105635359116023,-0.541060421919189
5.1390055248618784,-0.6383969803312658
5.172375690607735,-0.674824635827113
5.205745856353592,-0.6366451310236595
5.239116022099448,-0.5343394198095552
5.272486187845304,-0.39622622454456813
5.30585635359116,-0.2553651650621318
5.339226519337017,-0.13645734728878106
5.372596685082874,-0.04862970273778658
5.4059668508287295,0.013626179171221378
5.439337016574586,0.06337756957856334
5.472707182320442,0.11271966394544683
5.506077348066299,0.1672728770328371
5.5394475138121555,0.22560235751802118
5.572817679558011,0.2823052160879692
5.606187845303868,0.33175926545510465
5.639558011049724,0.3700119467164364
5.672928176795581,0.39431674690106694
5.706298342541437,0.40180259097046594
5.739668508287293,0.38933054975488784
5.77303867403315,0.35546839731523605
5.806408839779006,0.3035651321782981
5.839779005524862,0.2435308725647281
5.873149171270718,0.19015050445171044
5.906519337016575,0.15759315062066453
5.939889502762432,0.152191349600172
5.9732596685082875,0.16709312196889864
6.006629834254144,0.18203364202854286
6.04,0.16929358145913884
6.073370165745857,0.10400004228826484
6.1067403314917135,-0.025227714760183543
6.140110497237569,-0.20961709194338823
6.173480662983426,-0.4203073646566305
6.206850828729282,-0.615241283431836
6.240220994475139,-0.7505688506587417
6.273591160220995,-0.7929931470552751
6.306961325966851,-0.7295084377786536
6.340331491712708,-0.571798166712183
6.373701657458564,-0.3537581238682766
6.40707182320442,-0.12221670941235217
6.440441988950277,0.07693768567303143
6.473812154696133,0.212829153200231
6.50718232044199,0.2784997409892172
6.5405524861878455,0.2907082617195263
6.573922651933702,0.28043164847673324
6.607292817679559,0.27819685273786854
6.640662983425415,0.3008209410941862
6.674033149171271,0.34526736454749213
6.707403314917127,0.3916867084418867
6.740773480662984,0.41342053028776976
6.774143646408841,0.38904505079817386
6.8075138121546965,0.3114350764861143
6.840883977900553,0.19080772378799907
6.874254143646409,0.051384992655769256
6.907624309392266,-0.0765269717701503
6.9409944751381225,-0.1661381290605109
6.974364640883978,-0.20244410698085874
7.007734806629835,-0.18677689633916444
7.041104972375691,-0.13634620583178167
7.074475138121548,-0.07884564998665905
7.107845303867403,-0.043598299443565296
7.14121546961326,-0.051841726145811035
7.174585635359117,-0.10922939709115907
7.207955801104973,-0.20315194905696785
7.241325966850829,-0.3060461218456806
7.274696132596685,-0.3838692795715622
7.308066298342542,-0.4070957917761738
7.341436464088399,-0.36064108544165946
7.3748066298342545,-0.24937549058727193
7.408176795580111,-0.09721915275891013
7.441546961325967,0.06020224663823274
7.474917127071824,0.18718939442483534
7.5082872928176805,0.25993834569687624
7.541657458563536,0.27421855732913686
7.575027624309393,0.2453031850110764
7.608397790055249,0.19978486039916502
7.641767955801106,0.1627962136235317
7.675138121546962,0.14677863011141187
7.708508287292818,0.14748189097139097
7.741878453038675,0.14911811108110498
7.775248618784531,0.1354450821263502
7.808618784530387,0.1001006885148778
7.841988950276244,0.050045200579577
7.8753591160221,0.0003294970801795908
7.908729281767957,-0.036108450547809284
7.9420994475138125,-0.05683351328194668
7.975469613259669,-0.07099076778131767
8.008839779005525,-0.09232182568652847
8.042209944751383,-0.1284953455738465
8.075580110497238,-0.173458005190004
8.108950276243094,-0.2077812797127215
8.14232044198895,-0.20738259580311555
8.175690607734808,-0.1562464640255913
8.209060773480664,-0.05644546339845846
8.24243093922652,0.06999956838810699
8.275801104972377,0.1888075138103419
8.309171270718233,0.26726297629421175
8.342541436464089,0.28766968629028894
8.375911602209946,0.2540811375011468
8.409281767955802,0.18929409419928583
8.442651933701658,0.12385641281278097
8.476022099447514,0.08253300948961045
8.509392265193371,0.074443741940329
8.542762430939227,0.09079252135752525
8.576132596685083,0.11027046974395634
8.60950276243094,0.1089434443100679
8.642872928176796,0.0701326926084372
8.676243093922652,-0.009423758504128101
8.709613259668508,-0.11884816023240098
8.742983425414366,-0.23741772195430344
8.776353591160222,-0.3418705710375488
8.809723756906077,-0.41395272239150677
8.843093922651935,-0.4455462296209258
8.87646408839779,-0.4396644650741276
8.909834254143647,-0.4071576203165473
8.943204419889504,-0.3606394831784252
8.97657458563536,-0.30827847829066907
9.009944751381216,-0.25019699898237435
9.043314917127072,-0.17918951627710217
9.07668508287293,-0.0856422024731858
9.110055248618785,0.03539732190356354
9.143425414364641,0.17825958005923556
9.176795580110499,0.32488899501308943
9.210165745856354,0.44870246386998675
9.24353591160221,0.5229772725644805
9.276906077348068,0.5304534203107526
9.310276243093924,0.4700497685408759
9.34364640883978,0.3577401189735594
9.377016574585635,0.22123309308593672
9.410386740331493,0.09086703673498397
9.443756906077349,-0.009350041466010659
9.477127071823205,-0.06710622599184485
9.510497237569062,-0.08222409486936968
9.543867403314918,-0.06332559806650571
9.577237569060774,-0.02332666841379694
9.610607734806631,0.02393446580014378
9.643977900552487,0.06527132466263244
9.677348066298343,0.08897689816056939
9.710718232044199,0.08646095333593201
9.744088397790057,0.05516042345850437
9.777458563535912,0.001352528307133348
9.810828729281768,-0.05955940269373386
9.844198895027626,-0.10696768412148333
9.877569060773482,-0.12257535244835963
9.910939226519337,-0.09846877905593318
9.944309392265193,-0.04176788754610518
9.97767955801105,0.026851690735910497
10.011049723756907,0.08056122602651082
10.044419889502763,0.09653499438501767
10.07779005524862,0.06432722964307763
10.111160220994476,-0.011046927537722554
10.144530386740332,-0.11206559078958751
10.17790055248619,-0.2155273287856235
10.211270718232045,-0.2996968520596681
10.244640883977901,-0.34894054950640524
10.278011049723757,-0.3551333349228208
10.311381215469615,-0.31709369397306886
10.34475138121547,-0.23987949634807035
10.378121546961326,-0.1347662416159956
10.411491712707184,-0.01909650635501685
10.44486187845304,0.08566711777091769
10.478232044198895,0.15861772282089706
10.511602209944753,0.18579508886535878
10.544972375690609,0.1654802714900321
10.578342541436465,0.10933508653915885
10.61171270718232,0.03808077251820479
10.645082872928178,-0.026723480738191533
10.678453038674034,-0.07095968330072121
10.71182320441989,-0.0921834137073715
10.745193370165747,-0.09773351464853261
10.778563535911603,-0.09790410006564797
10.811933701657459,-0.09807905897603383
10.845303867403315,-0.0943750231804999
10.878674033149172,-0.07546517523369806
10.912044198895028,-0.029774681566790962
10.945414364640884,0.045978063769023476
10.978784530386742,0.14200189982549996
11.012154696132598,0.23768500633191597
11.045524861878453,0.3102608830249152
11.078895027624311,0.34547966462396945
11.112265193370167,0.34441815183283786
11.145635359116023,0.32242721512465866
11.179005524861878,0.30048091259547427
11.212375690607736,0.2934703506106968
11.245745856353592,0.3017890664292974
11.279116022099448,0.3107905650451686
11.312486187845305,0.29836083558154264
11.345856353591161,0.24645876143845738
11.379226519337017,0.15054857509627584
11.412596685082875,0.022359885193063294
11.44596685082873,-0.11474270908985154
11.479337016574586,-0.23473178620126517
11.512707182320442,-0.3176370360500031
11.5460773480663,-0.354617430301199
11.579447513812156,-0.3486443637349337
11.612817679558011,-0.3121568475079529
11.646187845303869,-0.2634127991477306
11.679558011049725,-0.2222946205625558
11.71292817679558,-0.2054706569517685
11.746298342541436,-0.22116169230264374
11.779668508287294,-0.2650795016450465
11.81303867403315,-0.32002702459258947
11.846408839779006,-0.36085785380059876
11.879779005524863,-0.3639131176288724
11.91314917127072,-0.317127718722797
11.946519337016575,-0.22576966136837004
11.979889502762433,-0.11043213416115173
12.013259668508288,0.0021880748339913733
12.046629834254144,0.09120066806540747
12.08,0.14993655611999526
12.113370165745858,0.18647426666085073
12.146740331491714,0.2162097459639787
12.18011049723757,0.250826673155237
12.213480662983427,0.2900320098784839
12.246850828729283,0.3208572562275919
12.280220994475139,0.3250359921196676
12.313591160220996,0.2903277414114961
12.346961325966852,0.21928039241398056
12.380331491712708,0.13020778350558362
12.413701657458564,0.04945061578268646
12.447071823204421,-0.0011123858977002958
12.480441988950277,-0.01461435264529325
12.513812154696133,-0.0021255907698826924
12.54718232044199,0.013585244643404692
12.580552486187846,0.010062910998754681
12.613922651933702,-0.023395025203868
12.64729281767956,-0.08062680412104914
12.680662983425416,-0.141960873966514
12.714033149171271,-0.1837417199707161
12.747403314917127,-0.18896910293007757
12.780773480662985,-0.1541341098822585
12.81414364640884,-0.08979938201362328
12.847513812154697,-0.015530179098494322
12.880883977900554,0.04814309571857967
12.91425414364641,0.08750859020126411
12.947624309392266,0.10056524870132785
12.980994475138122,0.09746896865151648
13.01436464088398,0.09627560895186801
13.047734806629835,0.11521091950648704
13.081104972375691,0.1641401278753088
13.114475138121549,0.238666320731287
13.147845303867404,0.3196863228946878
13.18121546961326,0.3791968882204749
13.214585635359118,0.3904511329517571
13.247955801104974,0.3384978322251148
13.28132596685083,0.2267660427008172
13.314696132596685,0.07693974991896142
13.348066298342543,-0.07782333408636243
13.381436464088399,-0.20358977919830498
13.414806629834255,-0.27622764989333737
13.448176795580112,-0.28837403006913737
13.481546961325968,-0.2511150631707
13.514917127071824,-0.19060037675046543
13.548287292817681,-0.14090766951132191
13.581657458563537,-0.13473452539583874
13.615027624309393,-0.19356805767794666
13.648397790055249,-0.31940037390786125
13.681767955801106,-0.490607196405423
13.715138121546962,-0.6644518613775162
13.748508287292818,-0.7871205339319836
13.781878453038676,-0.8094182772720768
13.815248618784532,-0.7034214825492542
13.848618784530387,-0.47402471388818024
13.881988950276245,-0.16044902566359504
13.9153591160221,0.1737625449042838
13.948729281767957,0.45929935439572545
13.982099447513813,0.6417401484222154
14.01546961325967,0.6969118703964192
14.048839779005526,0.6355998205274654
14.082209944751382,0.49647448365685853
14.11558011049724,0.3306948357484841
14.148950276243095,0.18463851474692522
14.182320441988951,0.08731361887973378
14.215690607734807,0.046308683894693184
14.249060773480664,0.05207862439870455
14.28243093922652,0.08695804692221641
14.315801104972376,0.13402950930260304
14.349171270718234,0.1821223001856475
14.38254143646409,0.2258745366074363
14.415911602209945,0.2624940578783967
14.449281767955803,0.28830644153574264
14.482651933701659,0.2977763216935131
14.516022099447515,0.28573927346031697
14.54939226519337,0.2512114357802932
14.582762430939228,0.1998019913905256
14.616132596685084,0.1423839931057349
14.64950276243094,0.09001493854766829
14.682872928176797,0.047693917525086754
14.716243093922653,0.010682730932902253
14.749613259668509,-0.03400649900761476
14.782983425414367,-0.10110408050616203
14.816353591160222,-0.1984505063180561
14.849723756906078,-0.3203568747765008
14.883093922651934,-0.4462572234062104
14.916464088397792,-0.545713419272665
14.949834254143648,-0.5883285748293114
14.983204419889503,-0.5552773811913608
15.016574585635361,-0.44835301507873704
15.049944751381217,-0.2927440180597363
15.083314917127073,-0.13129982114839037
15.116685082872928,-0.010847960555143008
15.150055248618786,0.035363326813540416
15.183425414364642,0.002238791040199503
15.216795580110498,-0.08265386211318741
15.250165745856355,-0.1683332677866023
15.283535911602211,-0.20099702574877015
15.316906077348067,-0.14755331451624734
15.350276243093925,-0.011241822815999546
15.38364640883978,0.16852923545708048
15.417016574585636,0.3326702182084531
15.450386740331492,0.4277329058834337
15.48375690607735,0.42813294803896557
15.517127071823205,0.3449267835527288
15.550497237569061,0.21763289470611571
15.583867403314919,0.0940299501742148
15.617237569060775,0.008464396708991915
15.65060773480663,-0.03083786947051189
15.683977900552488,-0.04029549807001102
15.717348066298344,-0.04765916789932827
15.7507182320442,-0.07477795036414753
15.784088397790056,-0.12536242497965813
15.817458563535913,-0.18310468409887012
15.85082872928177,-0.21982663639342045
15.884198895027625,-0.20870828884642842
15.917569060773483,-0.1361994150754954
15.950939226519338,-0.007979917815827532
15.984309392265194,0.15233127341949235
16.01767955801105,0.3101296597450119
16.051049723756908,0.42954946792500115
16.084419889502765,0.4831912817276833
16.11779005524862,0.4597204706499823
16.151160220994477,0.3676435984976537
16.18453038674033,0.2338916735826055
16.21790055248619,0.09666596203192603
16.251270718232046,-0.006268564788717431
16.2846408839779,-0.0504666578957939
16.318011049723758,-0.03404450645191224
16.351381215469615,0.021003977859078277
16.38475138121547,0.07686297782380404
16.418121546961327,0.0946827721333831
16.451491712707185,0.050152418821111086
16.48486187845304,-0.05675701994921271
16.518232044198896,-0.20200104454016218
16.551602209944754,-0.3472989924394608
16.584972375690608,-0.4550972769155466
16.618342541436466,-0.502203192393453
16.651712707182323,-0.486636189985574
16.685082872928177,-0.42551834351620116
16.718453038674035,-0.3457862055561533
16.751823204419892,-0.2724192697917037
16.785193370165747,-0.21953506678626913
16.818563535911604,-0.1878582080585705
16.851933701657458,-0.16862530328384806
16.885303867403316,-0.1506999623830596
16.918674033149173,-0.12636378704213203
16.952044198895027,-0.0927165047766296
16.985414364640885,-0.048952013539998694
17.018784530386743,0.0072432876649609615
17.052154696132597,0.08039765791192886
17.085524861878454,0.1736654618306512
17.118895027624312,0.2831550502902011
17.152265193370166,0.3945988717254995
17.185635359116024,0.4858740002875541
17.21900552486188,0.5352802546549063
