Frequency (Hz),Amplitude
0.0,2.9801155334849705
0.01993355481727575,2.9788729581187456
0.0398671096345515,2.975146992673227
0.059800664451827246,2.9689429220923484
0.079734219269103,2.960269564636001
0.09966777408637874,2.949139287162137
0.11960132890365449,2.9355680270315876
0.13953488372093023,2.919575321160108
0.159468438538206,2.901184342912234
0.17940199335548174,2.880421947718739
0.19933554817275748,2.857318728507143
0.21926910299003324,2.8319090822687705
0.23920265780730898,2.8042312893517347
0.25913621262458475,2.7743276073734804
0.27906976744186046,2.7422443819979927
0.29900332225913623,2.708032177228471
0.318936877076412,2.6717459283380727
0.3388704318936877,2.6334451211102983
0.3588039867109635,2.5931940016982193
0.37873754152823924,2.5510618221551495
0.39867109634551495,2.5071231275498205
0.4186046511627907,2.46145809157582
0.4385382059800665,2.414152908707452
0.4584717607973422,2.365300252257083
0.47840531561461797,2.3149998091512387
0.49833887043189373,2.263358903855165
0.5182724252491695,2.210493225603744
0.5382059800664452,2.156527674866842
0.5581395348837209,2.101597346656829
0.5780730897009968,2.0458486696486933
0.5980066445182725,1.989440720760532
0.6179401993355482,1.9325467342574698
0.637873754152824,1.8753558217166717
0.6578073089700996,1.81807491302131
0.6777408637873754,1.760930917057434
0.6976744186046512,1.704173081351
0.717607973421927,1.648075499002487
0.7375415282392027,1.5929396645575407
0.7574750830564785,1.5390969128759318
0.7774086378737541,1.4869104818714747
0.7973421926910299,1.4367768186400514
0.8172757475083057,1.389125602191279
0.8372093023255814,1.3444177993567323
0.8571428571428572,1.303140936758423
0.877076411960133,1.2658007197222005
0.8970099667774087,1.2329082435615877
0.9169435215946844,1.204962420090341
0.9368770764119602,1.1824279509685778
0.9568106312292359,1.1657101956246454
0.9767441860465116,1.155129423061505
0.9966777408637875,1.150897850058559
1.0166112956810631,1.1531031234610842
1.036544850498339,1.1617012037168943
1.0564784053156147,1.1765200016756159
1.0764119601328903,1.1972730698797485
1.0963455149501662,1.2235808317195653
1.1162790697674418,1.2549958092793778
1.1362126245847177,1.2910282729579574
1.1561461794019936,1.3311694796570086
1.176079734219269,1.3749107786220558
1.196013289036545,1.4217579496190613
1.2159468438538206,1.4712409561934643
1.2358803986710964,1.5229197777917183
1.255813953488372,1.5763871746795453
1.275747508305648,1.631269231743753
1.2956810631229239,1.6872244126182345
1.3156146179401993,1.7439417018060328
1.3355481727574752,1.8011382605686355
1.3554817275747508,1.8585568921748972
1.3754152823920267,1.9159635098697596
1.3953488372093024,1.973144725488377
1.4152823920265782,2.029905623696294
1.435215946843854,2.086067751313811
1.4551495016611296,2.1414673284395827
1.4750830564784054,2.195953674323993
1.495016611295681,2.249387833267943
1.514950166112957,2.3016413821326522
1.5348837209302328,2.3525953998702134
1.5548172757475083,2.4021395798192637
1.5747508305647842,2.4501714666920553
1.5946843853820598,2.496595801781528
1.6146179401993357,2.541323961671359
1.6345514950166113,2.584273477481543
1.6544850498338872,2.6253676233334993
1.6744186046511629,2.6645350642312966
1.6943521594684385,2.7017095549074095
1.7142857142857144,2.7368296823747227
1.73421926910299,2.769838645967788
1.754152823920266,2.8006840695586437
1.7740863787375416,2.8293178414118105
1.7940199335548175,2.8556959778128737
1.8139534883720931,2.8797785071811357
1.8338870431893688,2.9015293718720847
1.8538205980066447,2.920916345301321
1.8737541528239203,2.937910962389589
1.893687707641196,2.952488461647164
1.9136212624584719,2.9646277374936183
1.9335548172757475,2.974311301652702
1.9534883720930232,2.981525252678024
1.9734219269102993,2.9862592528585092
1.993355481727575,2.9885065119284357
2.0132890365448506,2.9882637771689087
2.0332225913621262,2.9855313296401267
2.0531561461794023,2.9803129864303335
2.073089700996678,2.9726161089510215
2.0930232558139537,2.962451617452344
2.1129568106312293,2.9498340120811184
2.132890365448505,2.934781400959767
2.1528239202657806,2.917315535931091
2.1727574750830567,2.897461856796269
2.1926910299003324,2.8752495450744298
2.212624584717608,2.8507115885384797
2.2325581395348837,2.82388485803721
2.25249169435216,2.794810198406432
2.2724252491694354,2.763532535607504
2.292358803986711,2.7301010026197225
2.312292358803987,2.694569087063304
2.332225913621263,2.656994804051612
2.352159468438538,2.617440898379158
2.3720930232558137,2.575975080857688
2.39202657807309,2.532670304430855
2.4119601328903655,2.487605086644274
2.431893687707641,2.440863886134165
2.4518272425249172,2.3925375420364983
2.471760797342193,2.3427237866123365
2.4916943521594686,2.2915278429271044
2.511627906976744,2.2390631210827907
2.5315614617940203,2.1854520282211287
2.551495016611296,2.1308269091771823
2.5714285714285716,2.075331136069366
2.5913621262458477,2.0191203659407684
2.611295681063123,1.9623639853109431
2.6312292358803986,1.9052467583805808
2.6511627906976742,1.8479706904992588
2.6710963455149503,1.790757108685663
2.691029900332226,1.733848944135216
2.7109634551495017,1.677513174597343
2.7308970099667778,1.6220433432210455
2.7508305647840534,1.5677620102213674
2.770764119601329,1.5150229097556072
2.7906976744186047,1.4642124734872943
2.810631229235881,1.4157502457190718
2.8305647840531565,1.3700875632793479
2.850498338870432,1.3277037331089017
2.870431893687708,1.2890988611728302
2.8903654485049834,1.2547825432114212
2.910299003322259,1.2252579131544286
2.9302325581395348,1.2010011375766638
2.950166112956811,1.1824373541566686
2.9700996677740865,1.1699151531511667
2.990033222591362,1.1636826984257855
3.0099667774086383,1.1638690704234134
3.029900332225914,1.1704740374185714
3.0498338870431896,1.1833681514240897
3.0697674418604657,1.202303146332791
3.089700996677741,1.2269307050633906
3.1096345514950166,1.2568263723076083
3.129568106312292,1.291515035629757
3.1495016611295683,1.330494899271807
3.169435215946844,1.3732578781101452
3.1893687707641196,1.419305437141857
3.2093023255813957,1.4681598038216368
3.2292358803986714,1.5193710649395895
3.249169435215947,1.5725209386680696
3.2691029900332227,1.6272240654275578
3.289036544850499,1.6831275802091288
3.3089700996677744,1.7399095885263638
3.32890365448505,1.7972770170343808
3.3488372093023258,1.8549631741172692
3.3687707641196014,1.9127252457066577
3.388704318936877,1.970341868377969
3.4086378737541527,2.0276108621079176
3.428571428571429,2.0843471642155045
3.4485049833887045,2.1403809792478565
3.46843853820598,2.1955561429074435
3.4883720930232562,2.2497286884142382
3.508305647840532,2.302765598631439
3.5282392026578075,2.3545437252013626
3.548172757475083,2.404948855695498
3.5681063122923593,2.4538749106128885
3.588039867109635,2.5012232534606604
3.60797342192691,2.546902098802593
3.6279069767441863,2.590826004868575
3.647840531561462,2.6329154389682414
3.6677740863787376,2.673096405482721
3.6877076411960132,2.7113001275928528
3.7076411960132893,2.7474627751316394
3.727574750830565,2.7815252320283825
3.7475083056478407,2.8134328977508365
3.7674418604651168,2.8431355179653837
3.787375415282392,2.8705870403359333
3.807308970099668,2.8957454919864705
3.8272425249169437,2.9185728756713454
3.8471760797342194,2.9390350821449713
3.867109634551495,2.9571018166088026
3.887043189368771,2.9727465374479487
3.9069767441860463,2.9859464057609504
3.9269102990033224,2.996682244441885
3.9468438538205985,3.0049385057985822
3.9667774086378738,3.010703246893352
3.98671096345515,3.0139681119740427
4.0066445182724255,3.0147283215311265
4.026578073089701,3.012982667673206
4.046511627906977,3.00873351566294
4.0664451827242525,3.001986811600826
4.086378737541528,2.9927520963904364
4.106312292358805,2.981042526266623
4.1262458471760795,2.966874900323212
4.146179401993356,2.950269695641743
4.166112956810632,2.9312511108012367
4.186046511627907,2.9098471187457196
4.205980066445183,2.8860895302062217
4.225913621262459,2.860014069120823
4.245847176079734,2.831660461779188
4.26578073089701,2.801072541740102
4.2857142857142865,2.768298372943411
4.305647840531561,2.7333903938670283
4.325581395348838,2.696405586078762
4.345514950166113,2.6574056711101055
4.365448504983389,2.616457340249391
4.385382059800665,2.5736325226271464
4.40531561461794,2.5290086978608777
4.425249169435216,2.4826692605518863
4.445182724252492,2.434703945094089
4.465116279069767,2.3852093205659313
4.485049833887043,2.3342893669264355
4.50498338870432,2.282056145297417
4.524916943521594,2.2286305767317205
4.544850498338871,2.174143345436447
4.5647840531561465,2.1187359437640128
4.584717607973422,2.062561877112373
4.604651162790698,2.0057880467351974
4.624584717607974,1.948596326659981
4.644518272425249,1.8911853464177253
4.664451827242526,1.8337724826134594
4.6843853820598005,1.7765960474224693
4.704318936877076,1.7199176380610652
4.724252491694353,1.6640245745323823
4.7441860465116275,1.6092322991875991
4.764119601328904,1.5558865364194345
4.78405315614618,1.5043649107587185
4.803986710963455,1.455077596960474
4.823920265780731,1.4084664341195436
4.8438538205980075,1.3650017985959517
4.863787375415282,1.3251764385058018
4.883720930232559,1.289495490382528
4.9036544850498345,1.2584621096451152
4.92358803986711,1.2325586302661473
4.943521594684386,1.2122239558843957
4.963455149501661,1.1978288953663334
4.983388704318937,1.1896521583304362
5.003322259136213,1.187860360096116
5.023255813953488,1.192495291004133
5.043189368770764,1.2034707215293163
5.063122923588041,1.2205793314153441
5.083056478405315,1.2435084781779997
5.102990033222592,1.2718620596228263
5.122923588039868,1.3051850806416683
5.142857142857143,1.3429877526794023
5.162790697674419,1.384766774191969
5.182724252491695,1.4300224811353457
5.20265780730897,1.4782714982118328
5.222591362126246,1.529055193154117
5.242524916943522,1.5819446077038022
5.262458471760797,1.636542665908727
5.282392026578074,1.6924844277087063
5.3023255813953485,1.7494360409067822
5.322259136212625,1.8070929028500444
5.342192691029901,1.8651774070458051
5.362126245847176,1.923436534748667
5.382059800664452,1.9816394615639088
5.4019933554817285,2.039575282790259
5.421926910299003,2.0970509146179244
5.44186046511628,2.1538891969358827
5.4617940199335555,2.209927203338414
5.48172757475083,2.2650147516517642
5.501661129568107,2.3190131014125264
5.5215946843853825,2.3717938213820116
5.541528239202658,2.423237809084112
5.561461794019934,2.4732344446223107
5.5813953488372094,2.5216808620738433
5.601328903654485,2.5684813231935815
5.621262458471762,2.613546679744467
5.641196013289036,2.656793912360015
5.661129568106313,2.6981457353538816
5.681063122923589,2.737530258278457
5.700996677740864,2.7748806962817527
5.72093023255814,2.8101351224159528
5.740863787375416,2.8432362560191304
5.760797342192691,2.8741312821335887
5.780730897009967,2.9027716976544125
5.800664451827243,2.9291131805315778
5.820598006644518,2.9531154788926757
5.840531561461795,2.9747423174229617
5.8604651162790695,2.993961318744366
5.880398671096346,3.010743937887177
5.900332225913622,3.0250654082538118
5.920265780730897,3.0369046977423606
5.940199335548173,3.0462444739341725
5.960132890365449,3.053071077460802
5.980066445182724,3.0573745028558355
6.0,3.0591483863715667
6.0199335548172765,3.0583900004026163
6.039867109634551,3.0551002543128085
6.059800664451828,3.049283701610714
6.0797342192691035,3.0409485535673673
6.099667774086379,3.030106699519535
6.119601328903655,3.0167737342574608
6.139534883720931,3.0009689930598404
6.159468438538206,2.9827155951162077
6.179401993355482,2.9620404962702764
6.1993355481727574,2.9389745522328474
6.219269102990033,2.9135525936545044
6.23920265780731,2.885813514721324
6.259136212624584,2.855800377249467
6.279069767441861,2.82356053261227
6.299003322259137,2.7891457642459017
6.318936877076412,2.7526124539558787
6.338870431893688,2.714021775797123
6.3588039867109645,2.673439921935504
6.378737541528239,2.6309383656323884
6.398671096345516,2.5865941673355604
6.418604651162791,2.540490330822107
6.438538205980066,2.4927162174288138
6.458471760797343,2.4433680276255028
6.4784053156146175,2.3925493605276293
6.498338870431894,2.340371863380626
6.51827242524917,2.2869559845265552
6.538205980066445,2.2324318447830547
6.558139534883721,2.176940243362425
6.578073089700998,2.120633815165762
6.598006644518272,2.063678356090193
6.617940199335549,2.00625433125816
6.6378737541528245,1.948558576890082
6.6578073089701,1.8908061985667954
6.677740863787376,1.833232655007378
6.6976744186046515,1.7760959947269093
6.717607973421927,1.7196791798415125
6.737541528239203,1.6642923830615206
6.7574750830564785,1.610275076590936
6.777408637873754,1.5579976421289645
6.797342192691031,1.5078621192147028
6.8172757475083055,1.4603015807743247
6.837209302325582,1.4157774970007226
6.857142857142858,1.3747743553622698
6.877076411960133,1.3377907999187844
6.897009966777409,1.305326709408273
6.9169435215946855,1.277866024432483
6.93687707641196,1.255855799002876
6.956810631229236,1.23968284487774
6.9767441860465125,1.2296502833044451
6.996677740863787,1.2259570176455261
7.016611295681064,1.2286832559769743
7.036544850498339,1.2377845376630494
7.056478405315615,1.253095327475838
7.076411960132891,1.274341519338354
7.096345514950166,1.3011596782749517
7.116279069767442,1.3331199842534625
7.136212624584719,1.369749777956289
7.156146179401993,1.4105551948365067
7.17607973421927,1.4550392888766677
7.196013289036546,1.502715971698809
7.21594684385382,1.5531198185685091
7.235880398671097,1.605812246938124
7.2558139534883725,1.6603847794083482
7.275747508305648,1.716460130520445
7.295681063122924,1.7736917799579492
7.3156146179402,1.8317625724765993
7.335548172757475,1.8903827554827708
7.355481727574752,1.9492877491362066
7.3754152823920265,2.0082358493240675
7.395348837209303,2.0670059917674393
7.415282392026579,2.125395653271261
7.435215946843854,2.1832189298729974
7.45514950166113,2.240304807521699
7.475083056478406,2.2964956255992517
7.495016611295681,2.351645724433347
7.514950166112956,2.4056202629582577
7.5348837209302335,2.4582941904188176
7.554817275747508,2.5095513554749083
7.574750830564784,2.5592837365618064
7.5946843853820605,2.607390778437504
7.614617940199336,2.653778821203806
7.634551495016611,2.6983606095383332
7.6544850498338874,2.741054871306224
7.674418604651163,2.7817859560697125
7.694352159468439,2.820483525250151
7.714285714285715,2.8570822868057
7.73421926910299,2.89152176827136
7.754152823920266,2.9237461228695163
7.774086378737542,2.95370396415179
7.794019933554818,2.9813482252856356
7.813953488372093,3.006636039665153
7.83388704318937,3.0295286400155605
7.853820598006645,3.0499912735858024
7.8737541528239205,3.0679931313923743
7.893687707641197,3.0835072897994076
7.913621262458472,3.096510663002026
7.9335548172757475,3.1069839652286366
7.953488372093024,3.1149116816997404
7.9734219269103,3.120282047580448
7.9933554817275745,3.1230870343462724
8.013289036544851,3.1233223431506825
8.033222591362128,3.1209874049433206
8.053156146179402,3.1160853872409535
8.073089700996679,3.1086232076061617
8.093023255813954,3.098611554040582
8.11295681063123,3.086064912657235
8.132890365448505,3.0710016031617933
8.152823920265782,3.0534438228488705
8.172757475083056,3.0334177000121687
8.192691029900331,3.0109533578791914
8.21262458471761,2.986084990418285
8.232558139534884,2.9588509516326043
8.252491694352159,2.929293860258908
8.272425249169435,2.8974607221352193
8.292358803986712,2.8634030728980373
8.312292358803987,2.8271771441261344
8.332225913621263,2.7888440565719796
8.352159468438538,2.7484700447248995
8.372093023255815,2.706126717641582
8.392026578073091,2.6618913617692503
8.411960132890366,2.6158472923840788
8.43189368770764,2.568084261276205
8.451827242524917,2.5186989294329405
8.471760797342194,2.4677954146917522
8.491694352159469,2.4154859256255565
8.511627906976745,2.361891494229512
8.53156146179402,2.3071428212032803
8.551495016611296,2.2513812486058966
8.571428571428573,2.194759875149303
8.591362126245848,2.1374448290038908
8.611295681063122,2.0796167111384456
8.6312292358804,2.021472218065603
8.651162790697676,1.9632259452168022
8.67109634551495,1.9051123593805055
8.691029900332227,1.8473879085076037
8.710963455149502,1.7903332069445248
8.730897009966778,1.7342551905300092
8.750830564784053,1.6794890756120546
8.77076411960133,1.6263998762913967
8.790697674418604,1.5753831349011815
8.81063122923588,1.5268644069129904
8.830564784053157,1.48129692730394
8.850498338870432,1.4391567988754743
8.870431893687707,1.4009350291918337
8.890365448504983,1.3671258623894982
8.91029900332226,1.3382111692497571
8.930232558139535,1.3146412137991863
8.950166112956811,1.2968128823659448
8.970099667774086,1.28504731211002
8.990033222591363,1.279569550446891
9.00996677740864,1.280493122675753
9.029900332225914,1.287811965269879
9.049833887043189,1.3014010924647297
9.069767441860467,1.3210258689553394
9.089700996677742,1.3463583067017666
9.109634551495017,1.3769978154227724
9.129568106312293,1.4124935352132075
9.14950166112957,1.4523657179542926
9.169435215946844,1.4961243618969362
9.189368770764121,1.5432841514319857
9.209302325581396,1.59337548899701
9.22923588039867,1.6459519188309761
9.249169435215949,1.7005945220114738
9.269102990033224,1.7569139553806203
9.289036544850498,1.814550778190123
9.308970099667773,1.8731746177524162
9.328903654485051,1.9324826109650173
9.348837209302326,1.9921974474902449
9.368770764119601,2.0520652449177845
9.388704318936878,2.111853410343953
9.408637873754152,2.1713485857634898
9.428571428571429,2.230354733704839
9.448504983388705,2.288691391288133
9.46843853820598,2.346192102181547
9.488372093023255,2.4027030241204868
9.508305647840533,2.458081702654641
9.528239202657808,2.512195998046062
9.548172757475083,2.5649231506340477
9.56810631229236,2.616148969724123
9.588039867109636,2.6657671316083187
9.60797342192691,2.7136785733233184
9.627906976744187,2.7597909699667666
9.647840531561462,2.804018284673086
9.667774086378738,2.8462803816076483
9.687707641196015,2.886502693523224
9.70764119601329,2.924615936507647
9.727574750830565,2.960555865528285
9.747508305647841,2.9942630652464013
9.767441860465118,3.0256827713383125
9.787375415282392,3.0547647182293023
9.807308970099669,3.0814630097294198
9.827242524916944,3.1057360095683713
9.84717607973422,3.127546249269433
9.867109634551497,3.1468603511872733
9.887043189368772,3.163648964872469
9.906976744186046,3.1778867152210313
9.926910299003321,3.1895521611295763
9.9468438538206,3.1986277636094798
9.966777408637874,3.205099862523786
9.986710963455149,3.2089586613017835
10.006644518272426,3.2101982191636003
10.026578073089702,3.208816450553876
10.046511627906977,3.2048151316438087
10.066445182724253,3.198199913917592
10.086378737541528,3.1889803450167182
10.106312292358805,3.1771698971756224
10.126245847176081,3.1627860037500826
10.146179401993356,3.1458501045177147
10.16611295681063,3.126387700622217
10.186046511627907,3.1044284202442474
10.205980066445184,3.080006096315705
10.225913621262459,3.0531588578567073
10.245847176079735,3.0239292368104747
10.26578073089701,2.9923642925874914
10.285714285714286,2.958515756913695
10.305647840531563,2.92244020201449
10.325581395348838,2.8841992356669945
10.345514950166113,2.8438597272238786
10.36544850498339,2.801494069362591
10.385382059800666,2.757180481051051
10.40531561461794,2.711003358050796
10.425249169435217,2.6630536782023753
10.445182724252492,2.613429469751079
10.465116279069768,2.562236352058039
10.485049833887045,2.5095881591690907
10.50498338870432,2.4556076578215755
10.524916943521594,2.4004273724586866
10.544850498338871,2.344190530531084
10.564784053156147,2.2870521415529965
10.584717607973422,2.2291802226748385
10.604651162790697,2.170757181398057
10.624584717607974,2.111981361717779
10.64451827242525,2.05306875235458
10.664451827242525,1.9942548433646115
10.684385382059801,1.935796598381725
10.704318936877076,1.8779744816682657
10.724252491694353,1.8210944392984023
10.74418604651163,1.7654896794281076
10.764119601328904,1.7115220257362294
