Time (s),Filtered Signal
0.0,0.03172911082495229
0.033370535714285714,0.7778291115432333
0.06674107142857143,1.3686844646650096
0.10011160714285713,1.7036713716162275
0.13348214285714285,1.767643350373735
0.16685267857142858,1.627041748217382
0.20022321428571427,1.3951819578154996
0.23359375,1.184101546142743
0.2669642857142857,1.0642529012989976
0.30033482142857143,1.047091492527947
0.33370535714285715,1.0934964622634322
0.36707589285714287,1.1395721840177182
0.40044642857142854,1.1259593478113301
0.43381696428571426,1.0186622086174193
0.4671875,0.8159779916761842
0.5005580357142857,0.5430778481631544
0.5339285714285714,0.23983074095967752
0.5672991071428571,-0.052227325957633075
0.6006696428571429,-0.2999695192142372
0.6340401785714286,-0.4844874910188529
0.6674107142857143,-0.6028868750110906
0.70078125,-0.6667504275733794
0.7341517857142857,-0.6978125291343394
0.7675223214285715,-0.7213885913049768
0.8008928571428571,-0.7585949963895784
0.8342633928571428,-0.8192085733278104
0.8676339285714285,-0.8975592124740285
0.9010044642857142,-0.973469828252423
0.934375,-1.0187085569385632
0.9677455357142857,-1.0071629250223482
1.0011160714285714,-0.9250242268490645
1.0344866071428571,-0.7767674100987327
1.0678571428571428,-0.5841448047370158
1.1012276785714286,-0.37836136777964546
1.1345982142857143,-0.18877050025963518
1.16796875,-0.03319338130029718
1.2013392857142857,0.08578205038796426
1.2347098214285714,0.17724153328729686
1.2680803571428572,0.25366708337187327
1.3014508928571429,0.322870492031433
1.3348214285714286,0.38455129709322733
1.3681919642857143,0.43274937458384555
1.4015625,0.4616497066194975
1.4349330357142858,0.4701813082568932
1.4683035714285715,0.4620077619985156
1.5016741071428572,0.44113098503619363
1.535044642857143,0.40697395507959944
1.5684151785714286,0.3538124655667431
1.6017857142857141,0.27674095613950817
1.6351562499999999,0.18143425845516936
1.6685267857142856,0.0910123750173174
1.7018973214285713,0.04328653179073735
1.735267857142857,0.07628658456429273
1.7686383928571427,0.20706879162187924
1.8020089285714285,0.4143838558415107
1.8353794642857142,0.6362197292438145
1.86875,0.78736763918869
1.9021205357142856,0.792248105194963
1.9354910714285714,0.6191585481286367
1.968861607142857,0.2990662608854522
2.002232142857143,-0.08229052602299683
2.0356026785714287,-0.4177908808867957
2.0689732142857142,-0.6234036529396368
2.10234375,-0.6726205720203551
2.1357142857142857,-0.6037829923707448
2.169084821428571,-0.4965561155837798
2.202455357142857,-0.4295423781193606
2.2358258928571426,-0.4407116008418557
2.2691964285714286,-0.5106458069372503
2.302566964285714,-0.5764065630584898
2.3359375,-0.5677081693347917
2.3693080357142855,-0.4457077384553329
2.4026785714285714,-0.22412545353659985
2.436049107142857,0.03738196006475394
2.469419642857143,0.2625822131378324
2.5027901785714284,0.3942088908635819
2.5361607142857143,0.4171784935528461
2.56953125,0.3589703959941619
2.6029017857142858,0.26947844186900677
2.6362723214285713,0.1930356558105329
2.669642857142857,0.14800916532634553
2.7030133928571427,0.12365796719857906
2.7363839285714286,0.09363100044430078
2.769754464285714,0.03649618670484958
2.803125,-0.04915807351653915
2.8364955357142856,-0.14310685781655283
2.8698660714285715,-0.21485207032125092
2.903236607142857,-0.24007178152896733
2.936607142857143,-0.2123170762504455
2.9699776785714285,-0.14420426667254038
3.0033482142857144,-0.05925796864475517
3.03671875,0.019332407126211978
3.070089285714286,0.0763659418854614
3.1034598214285714,0.10576913877554033
3.1368303571428573,0.10706599837949567
3.170200892857143,0.08150386105401314
3.2035714285714283,0.031120901886911766
3.2369419642857142,-0.03915660943284905
3.2703124999999997,-0.1190275593985465
3.3036830357142857,-0.1929210896741073
3.337053571428571,-0.243645148753602
3.370424107142857,-0.25783221798225114
3.4037946428571426,-0.23008378299726526
3.4371651785714286,-0.16359271411027704
3.470535714285714,-0.06736936196543304
3.50390625,0.047727421994117517
3.5372767857142855,0.17158970851789732
3.5706473214285714,0.2950243679714645
3.604017857142857,0.4085677831095791
3.637388392857143,0.5021545812391794
3.6707589285714284,0.5669982677191301
3.7041294642857143,0.5988276414396316
3.7375,0.5998185172174769
3.7708705357142858,0.5768183743942076
3.8042410714285713,0.5359348179383746
3.837611607142857,0.47658623204272277
3.8709821428571427,0.38935875688565813
3.9043526785714286,0.2602499891598264
3.937723214285714,0.08000775560568568
3.97109375,-0.14623900256037647
4.004464285714286,-0.3946809656827756
4.0378348214285715,-0.6269997773253377
4.0712053571428575,-0.8018085812863238
4.1045758928571425,-0.8884605806565712
4.1379464285714285,-0.8772273900903346
4.171316964285714,-0.7817197784203959
4.2046875,-0.6330496737480615
4.238058035714285,-0.46869640349013253
4.271428571428571,-0.3207860871345082
4.304799107142857,-0.20801662518617994
4.338169642857142,-0.1333696777364283
4.371540178571428,-0.087263684859469
4.404910714285714,-0.054018757312216524
4.43828125,-0.018895451984767272
4.471651785714285,0.02664903348878343
4.505022321428571,0.08293177898508125
4.538392857142857,0.14356898679643135
4.571763392857143,0.19967189077622866
4.605133928571428,0.2447258881223043
4.638504464285714,0.27769853605279676
4.671875,0.30269814921969623
4.705245535714286,0.3254807250484616
4.738616071428571,0.34917827587581585
4.771986607142857,0.3722311022975153
4.805357142857143,0.3899406338881055
4.838727678571429,0.39830860213515995
4.872098214285714,0.3969851447124263
4.90546875,0.38873585971889785
4.938839285714286,0.375516146636421
4.972209821428572,0.35403270124036745
5.005580357142857,0.31447306138451353
5.038950892857143,0.24420511530674247
5.072321428571429,0.134874817290016
5.105691964285715,-0.011284836969466682
5.1390625,-0.18011734358398787
5.172433035714286,-0.35050400159619277
5.2058035714285715,-0.5028974300252904
5.2391741071428575,-0.6260985041566507
5.2725446428571425,-0.71773622221907
5.3059151785714285,-0.7779411324502273
5.339285714285714,-0.800602717419533
5.3726562499999995,-0.7691259876044066
5.406026785714285,-0.6617114682674484
5.439397321428571,-0.4655015040845967
5.472767857142857,-0.19260050880789853
5.506138392857142,0.11212577418380036
5.539508928571428,0.3790935698127728
5.572879464285714,0.5381039442283095
5.60625,0.5498185475257596
5.639620535714285,0.43007909077172135
5.672991071428571,0.2532287838291084
5.706361607142857,0.12843335135532144
5.739732142857143,0.15519575203691882
5.773102678571428,0.3754822936325365
5.806473214285714,0.744419884801119
5.83984375,1.1360420100624022
5.873214285714286,1.3862147563660978
5.906584821428571,1.357550226326993
5.939955357142857,0.9991277087773394
5.973325892857143,0.3738697314853061
6.006696428571429,-0.3603419602400895
6.040066964285714,-1.008910345276914
6.0734375,-1.4129477377513966
6.106808035714286,-1.5043238882389054
6.140178571428572,-1.3206513402684605
6.173549107142857,-0.9769429486217149
6.206919642857143,-0.6105233661041725
6.240290178571429,-0.3261686316670268
6.273660714285715,-0.16501748114660567
6.30703125,-0.10659946963877277
6.340401785714286,-0.09659799050170402
6.3737723214285715,-0.08230923346430202
6.407142857142857,-0.03758129892784619
6.4405133928571425,0.0322403511255587
6.4738839285714285,0.10304710412262472
6.507254464285714,0.1516906694661952
6.5406249999999995,0.17064645806092038
6.573995535714285,0.17062781047486372
6.607366071428571,0.17188972599351005
6.640736607142857,0.1909157619162185
6.674107142857142,0.2306136711371896
6.707477678571428,0.27909303368202265
6.740848214285714,0.3168638781747393
6.77421875,0.3278646902211276
6.807589285714285,0.3081757896306873
6.840959821428571,0.26796146912152813
6.874330357142857,0.22591822165679162
6.907700892857143,0.19931881254144415
6.941071428571428,0.19483265704361982
6.974441964285714,0.20478798233477652
7.0078125,0.2107765977063733
7.041183035714286,0.19287984372636913
7.074553571428571,0.14008088136947205
7.107924107142857,0.056907821988565824
7.141294642857143,-0.036819958509718885
7.174665178571429,-0.11311460257570959
7.208035714285714,-0.14687447729895212
7.24140625,-0.1265001839431777
7.274776785714286,-0.06007436541692898
7.308147321428572,0.025199361970811105
7.341517857142857,0.09039637354126516
7.374888392857143,0.09714672374616636
7.408258928571429,0.02127009955690549
7.441629464285715,-0.13657253595069993
7.475,-0.3473457461411787
7.508370535714286,-0.5597276382642581
7.5417410714285715,-0.7151890543196948
7.575111607142857,-0.7675900423042987
7.6084821428571425,-0.6999954641005134
7.6418526785714285,-0.5314681774176828
7.675223214285714,-0.31021462778782694
7.7085937499999995,-0.09533260159078459
7.741964285714285,0.06526794759909202
7.775334821428571,0.15123494972771284
7.808705357142857,0.17348840774522273
7.842075892857142,0.1643456721721603
7.875446428571428,0.15960077580386842
7.908816964285714,0.18171525389484952
7.9421875,0.2321157250157956
7.975558035714285,0.29529721804241194
8.008928571428571,0.3509614870176495
8.042299107142856,0.38640768710396944
8.075669642857143,0.40201016768346187
8.109040178571428,0.4072954651071704
8.142410714285715,0.4109551245824508
8.17578125,0.41165923188070075
8.209151785714285,0.3958425009308134
8.242522321428572,0.3443273213716865
8.275892857142857,0.24433067847895507
8.309263392857142,0.10007989716490462
8.342633928571429,-0.06429724427340693
8.376004464285714,-0.2120307119302037
8.409375,-0.30822045366377343
8.442745535714286,-0.3347323523734624
8.47611607142857,-0.29806112359728976
8.509486607142858,-0.22603065231999347
8.542857142857143,-0.154761249812233
8.576227678571428,-0.11232371683349184
8.609598214285715,-0.10724641921036009
8.64296875,-0.12750906640053694
8.676339285714285,-0.15010250443354686
8.709709821428572,-0.15560512549355984
8.743080357142857,-0.13959146110647636
8.776450892857143,-0.11453665377279638
8.809821428571428,-0.10124786866555564
8.843191964285714,-0.11480265408038103
8.8765625,-0.15319391019408066
8.909933035714285,-0.19552617909406284
8.94330357142857,-0.21135612465916934
8.976674107142857,-0.17649887932095562
9.010044642857142,-0.08683869707923272
9.04341517857143,0.03745748434673272
9.076785714285714,0.15986958293608602
9.11015625,0.24368760239196058
9.143526785714286,0.26816647812648053
9.176897321428571,0.2365047558998935
9.210267857142856,0.1718478963825509
9.243638392857143,0.10383957966788968
9.277008928571428,0.053192325036379697
9.310379464285715,0.0226719778675682
9.34375,-0.0007897696572823217
9.377120535714285,-0.0344853592083292
9.410491071428572,-0.08591765068519176
9.443861607142857,-0.14488462245071906
9.477232142857142,-0.18664421671099768
9.510602678571429,-0.18470602928039384
9.543973214285714,-0.12614971139905568
9.57734375,-0.020710330845053845
9.610714285714286,0.10188744780882725
9.64408482142857,0.20548443167104438
9.677455357142858,0.26496662768726
9.710825892857143,0.2781860987749738
9.744196428571428,0.2654385644726688
9.777566964285715,0.2562175904636233
9.8109375,0.27017377575610235
9.844308035714285,0.3029690643348826
9.877678571428572,0.3256000410580985
9.911049107142857,0.29858466766792174
9.944419642857143,0.19402864595372984
9.977790178571428,0.013795487653917285
10.011160714285714,-0.2063301089441441
10.04453125,-0.4092807050414235
10.077901785714285,-0.5400422243081149
10.11127232142857,-0.5680598730400911
10.144642857142857,-0.49791057747913453
10.178013392857142,-0.3639251524601996
10.21138392857143,-0.2127650949405767
10.244754464285714,-0.08349475348255522
10.278125,0.005276663612415195
10.311495535714286,0.056490243811559294
10.344866071428571,0.08584799981378628
10.378236607142856,0.10955138024281007
10.411607142857143,0.13540465376577884
10.444977678571428,0.1609247370494884
10.478348214285715,0.17765687031961366
10.51171875,0.177827453029726
10.545089285714285,0.15913046062584243
10.578459821428572,0.1254240019533324
10.611830357142857,0.08383070700757181
10.645200892857142,0.04060022344422667
10.678571428571429,-0.0016458846965011166
10.711941964285714,-0.04379465891875889
10.745312499999999,-0.08751371629176664
10.778683035714286,-0.13172203648877998
10.81205357142857,-0.17069209048179895
10.845424107142858,-0.195514739684787
10.878794642857143,-0.1987579329909201
10.912165178571428,-0.17991963419752868
10.945535714285715,-0.14808595920620038
10.97890625,-0.1191295210233551
11.012276785714285,-0.10771525357230954
11.045647321428572,-0.1178194110921808
11.079017857142857,-0.13727213088449866
11.112388392857143,-0.1405525999443538
11.145758928571428,-0.09997435857218905
11.179129464285714,-0.0005486687042031798
11.2125,0.14902629611291704
11.245870535714285,0.31574694239657636
11.27924107142857,0.45377844267754247
11.312611607142857,0.5235269156225917
11.345982142857142,0.5093852795900122
11.37935267857143,0.427088319523252
11.412723214285714,0.3162034396435766
11.44609375,0.22062905992269052
11.479464285714286,0.16647665703849138
11.512834821428571,0.14884018576564986
11.546205357142856,0.1351083302144143
11.579575892857143,0.08411087441816448
11.612946428571428,-0.028361131093846314
11.646316964285715,-0.19143093118667778
11.6796875,-0.35918440772983296
11.713058035714285,-0.47039579056013137
11.746428571428572,-0.4786439868759631
11.779799107142857,-0.3772764459750083
11.813169642857142,-0.20576525138347396
11.846540178571429,-0.03354461171659096
11.879910714285714,0.07080582689542327
11.913281249999999,0.06965903924024115
11.946651785714286,-0.028920284459678595
11.98002232142857,-0.17814544284631206
12.013392857142858,-0.31638639302992394
12.046763392857143,-0.3951023931970106
12.080133928571428,-0.3970085552266326
12.113504464285715,-0.3368230932013089
12.146875,-0.24651795591319844
12.180245535714285,-0.15470886535412917
12.213616071428572,-0.07180122632112627
12.246986607142857,0.011751344662505646
12.280357142857143,0.11442664808692134
12.313727678571428,0.24707622580771324
12.347098214285714,0.40065180474449325
12.38046875,0.5453437436882602
12.413839285714285,0.6419418879991701
12.44720982142857,0.6596507805827576
12.480580357142857,0.5911298814736161
12.513950892857142,0.45692510749351883
12.54732142857143,0.2969316724018236
12.580691964285714,0.15316616050540657
12.6140625,0.052422530260076865
12.647433035714286,-0.002851084474532121
12.680803571428571,-0.03160161690002368
12.714174107142856,-0.06149862971066527
12.747544642857143,-0.11353022549669342
12.780915178571428,-0.1916618799584254
12.814285714285713,-0.28218972237548373
12.84765625,-0.36218839344930265
12.881026785714285,-0.41194819873447824
12.914397321428572,-0.4247072759652604
12.947767857142857,-0.40884911328822326
12.981138392857142,-0.3818466158493764
13.014508928571429,-0.3594338404886993
13.047879464285714,-0.3457909215003408
13.081249999999999,-0.3299696297015572
13.114620535714286,-0.29071235473402407
13.14799107142857,-0.20767078280325013
13.181361607142858,-0.07374921647870637
13.214732142857143,0.09754037131277263
13.248102678571428,0.27376816157452594
13.281473214285715,0.41434374863435536
13.31484375,0.48616678652907347
13.348214285714285,0.47749520203596035
13.381584821428572,0.4036986388207164
13.414955357142857,0.30177652518853687
13.448325892857143,0.21539702693453416
13.481696428571428,0.17664591752438144
13.515066964285714,0.19250727394245454
13.5484375,0.24225059431857457
13.581808035714285,0.28706630674337197
13.61517857142857,0.2876965424238896
13.648549107142857,0.22210903420178804
13.681919642857142,0.0952325133866669
13.71529017857143,-0.06356169807673329
13.748660714285714,-0.21390497204555334
13.78203125,-0.32248075710044805
13.815401785714286,-0.3772725191417993
13.848772321428571,-0.3913221686304336
13.882142857142856,-0.394039819860678
13.915513392857143,-0.4138357542945564
13.948883928571428,-0.46017930126251955
13.982254464285713,-0.5141817142777894
14.015625,-0.5336526943219875
14.048995535714285,-0.4721293282729368
14.082366071428572,-0.3041529847965316
14.115736607142857,-0.044585016397696096
14.149107142857142,0.2490891286723818
14.182477678571429,0.49528625278399313
14.215848214285714,0.62116974036401
14.249218749999999,0.5951660594147984
14.282589285714286,0.443309452254309
14.31595982142857,0.24051434808199573
14.349330357142858,0.07967324136714596
14.382700892857143,0.03214162225130468
14.416071428571428,0.11734725508349358
14.449441964285715,0.29500699198087005
14.4828125,0.4829966767779965
14.516183035714285,0.5924012307005085
14.549553571428572,0.5640596046700456
14.582924107142857,0.39111524407032866
14.616294642857143,0.11913115857816409
14.649665178571428,-0.17449080698535838
14.683035714285714,-0.4115640704839849
14.71640625,-0.5411636881511904
14.749776785714285,-0.5539188825213579
14.78314732142857,-0.47862445080631816
14.816517857142857,-0.3648076988495072
14.849888392857142,-0.2600328428124123
14.88325892857143,-0.1917034740672485
14.916629464285714,-0.16009288136440764
14.95,-0.14402056804321509
14.983370535714286,-0.1153708641751476
15.016741071428571,-0.05548348737980398
15.050111607142856,0.03375104375637255
15.083482142857143,0.1287059521080527
15.116852678571428,0.19312351288280766
15.150223214285713,0.19354556955702198
15.18359375,0.11435110356307168
15.216964285714285,-0.03419431164973335
15.250334821428572,-0.2183379501773422
15.283705357142857,-0.3923907309500175
15.317075892857142,-0.5141313594433119
15.350446428571429,-0.5575567273329883
15.383816964285714,-0.5184654613650047
15.417187499999999,-0.41211821992846026
15.450558035714286,-0.2654801956115723
15.48392857142857,-0.10778322841220196
15.517299107142858,0.03759021865702807
15.550669642857143,0.15835723463375698
15.584040178571428,0.25516946440514465
15.617410714285715,0.33980625189506647
15.65078125,0.4297911073556818
15.684151785714285,0.5403699615519951
15.717522321428572,0.6761040266115731
15.750892857142857,0.8252377213649756
15.784263392857143,0.9596345766232867
15.817633928571428,1.0412569443515478
15.851004464285714,1.0336067326388796
15.884375,0.9144003504828758
15.917745535714285,0.6849567166273097
15.95111607142857,0.3726475955521012
15.984486607142857,0.025014684127841955
16.017857142857142,-0.3028912334530659
16.05122767857143,-0.5637439027955888
16.084598214285712,-0.7303354952498545
16.11796875,-0.800734367506376
16.151339285714286,-0.794807824120071
16.18470982142857,-0.744280109216378
16.218080357142856,-0.6808194936084419
16.251450892857143,-0.6266755778012629
16.28482142857143,-0.5904622255299885
16.318191964285713,-0.5681496352533244
16.3515625,-0.5475340061720758
16.384933035714287,-0.5139387350021499
16.41830357142857,-0.45534405068983574
16.451674107142857,-0.365876532378366
16.485044642857144,-0.2471811435177624
16.518415178571427,-0.10763082520352744
16.551785714285714,0.04022369704309158
16.58515625,0.18308002365232037
16.618526785714284,0.3100258010810233
16.65189732142857,0.4144158514418835
16.685267857142858,0.49409174213945234
16.71863839285714,0.5501850750278204
16.752008928571428,0.5850892147707244
16.785379464285715,0.6002264580736353
16.81875,0.5942299088265645
16.852120535714285,0.5622593465583818
16.88549107142857,0.4971951654302063
16.91886160714286,0.3930179984939503
16.95223214285714,0.24962187926072238
16.98560267857143,0.07703423462853878
17.018973214285715,-0.10358444215276397
17.05234375,-0.263928658740938
17.085714285714285,-0.37699772842176404
17.119084821428572,-0.4268462129143406
17.152455357142856,-0.41511696387210445
17.185825892857142,-0.36084071356464553
17.21919642857143,-0.2930434547967908
17.252566964285712,-0.23919732322323933
17.2859375,-0.21456376983976871
17.319308035714286,-0.2170020721496979
17.35267857142857,-0.22926246685581037
17.386049107142856,-0.22752696765879363
17.419419642857143,-0.19245399628973836
17.45279017857143,-0.11811129171933
17.486160714285713,-0.015107439802273831
17.51953125,0.09346830482190746
17.552901785714287,0.18182371274616996
17.58627232142857,0.23304582587466202
17.619642857142857,0.24749998714529653
17.653013392857144,0.2439362321904041
17.686383928571427,0.25195267522995796
