Frequency (Hz),Amplitude
0.0,8.672061986695914
0.020066889632107024,8.668005282092905
0.04013377926421405,8.655839825071267
0.060200668896321065,8.63557958797866
0.0802675585284281,8.607247864807576
0.10033444816053512,8.570877281766334
0.12040133779264213,8.526509812995668
0.14046822742474915,8.474196802382824
0.1605351170568562,8.413998992747786
0.1806020066889632,8.345986564040913
0.20066889632107024,8.270239182610528
0.22073578595317725,8.186846064088321
0.24080267558528426,8.095906053020194
0.2608695652173913,7.997527723063002
0.2809364548494983,7.891829502405035
0.3010033444816054,7.778939830087098
0.3210702341137124,7.658997350150775
0.34113712374581934,7.532151152082997
0.3612040133779264,7.398561067941359
0.3812709030100334,7.258398038937108
0.4013377926421405,7.111844567257423
0.42140468227424743,6.959095272703151
0.4414715719063545,6.80035757853573
0.4615384615384615,6.635852557075914
0.4816053511705685,6.465815973485984
0.5016722408026756,6.290499576340632
0.5217391304347826,6.110172696776533
0.5418060200668896,5.9251242351781
0.5618729096989966,5.735665136808141
0.5819397993311036,5.542131487263071
0.6020066889632107,5.3448883974323875
0.6220735785953176,5.144334898809995
0.6421404682274248,4.940910137472846
0.6622073578595318,4.735101243740892
0.6822742474916387,4.527453370303952
0.7023411371237458,4.31858254060126
0.7224080267558528,4.1091921361635855
0.7424749163879598,3.900094075396982
0.7625418060200668,3.6922359804917013
0.7826086956521738,3.486735842166315
0.802675585284281,3.284925747883411
0.8227424749163879,3.0884058658224296
0.8428093645484949,2.899108536471387
0.862876254180602,2.7193690516609306
0.882943143812709,2.551992998583036
0.903010033444816,2.4002981803603487
0.923076923076923,2.268091690705744
0.9431438127090299,2.1595247126071726
0.963210702341137,2.0787655675550347
0.983277591973244,2.029473984222142
1.0033444816053512,2.0141639931938893
1.0234113712374582,2.0336668907566477
1.0434782608695652,2.086935606649916
1.0635451505016722,2.171290165559423
1.0836120401337792,2.282980049893319
1.1036789297658862,2.417816984136636
1.1237458193979932,2.5716790545755215
1.1438127090301002,2.7408138043368564
1.1638795986622072,2.921965602062064
1.1839464882943145,3.11238821497891
1.2040133779264215,3.309798242860733
1.2240802675585283,3.512306549523193
1.2441471571906353,3.7183479580670777
1.2642140468227423,3.9266182982604927
1.2842809364548495,4.136021693709099
1.3043478260869565,4.345628001980469
1.3244147157190636,4.554639135639822
1.3444816053511706,4.76236269105826
1.3645484949832773,4.968191396651819
1.3846153846153846,5.171587113345799
1.4046822742474916,5.372068363414057
1.4247491638795986,5.569200583539333
1.4448160535117056,5.762588480153387
1.4648829431438126,5.951870009804508
1.4849498327759196,6.136711619484459
1.5050167224080266,6.316804467701003
1.5250836120401337,6.491861412352837
1.5451505016722407,6.661614600959482
1.5652173913043477,6.82581353633536
1.5852842809364547,6.984223519318253
1.605351170568562,7.136624391897947
1.625418060200669,7.282809520720708
1.6454849498327757,7.422584973723186
1.6655518394648827,7.555768852515482
1.6856187290969897,7.682190750787954
1.705685618729097,7.801691314986756
1.725752508361204,7.9141218881836926
1.745819397993311,8.019344221754912
1.765886287625418,8.117230242406139
1.7859531772575248,8.20766186441119
1.806020066889632,8.290530838796267
1.826086956521739,8.36573863270656
1.846153846153846,8.433196333410661
1.866220735785953,8.492824572393836
1.8862876254180598,8.544553465809182
1.9063545150501673,8.588322568234322
1.926421404682274,8.624080837248881
1.9464882943143813,8.651786606828637
1.966555183946488,8.671407567964387
1.9866220735785953,8.682920755273173
2.0066889632107023,8.686312538688444
2.026755852842809,8.681578619606276
2.0468227424749164,8.668724031135152
2.0668896321070234,8.647763142356363
2.0869565217391304,8.61871966675901
2.1070234113712374,8.581626675275189
2.1270903010033444,8.536526614616196
2.1471571906354514,8.483471331907909
2.1672240802675584,8.422522106952687
2.1872909698996654,8.35374969381783
2.2073578595317724,8.277234373880143
2.2274247491638794,8.193066022958538
2.2474916387959865,8.101344195762467
2.267558528428094,8.002178231597155
2.2876254180602005,7.895687386129272
2.3076923076923075,7.7820009950674915
2.3277591973244145,7.661258676901871
2.3478260869565215,7.533610583438997
2.367892976588629,7.3992177088483455
2.3879598662207355,7.258252270408637
2.408026755852843,7.1108981772503785
2.4280936454849495,6.957351607316696
2.4481605351170566,6.797821717751348
2.468227424749164,6.632531520289711
2.4882943143812706,6.461718961400219
2.508361204013378,6.285638257464864
2.5284280936454846,6.104561548951215
2.548494983277592,5.9187809553228
2.568561872909699,5.728611135705259
2.5886287625418056,5.534392490869182
2.608695652173913,5.336495182287666
2.6287625418060196,5.135324197003898
2.648829431438127,4.931325756822483
2.668896321070234,4.724995461920777
2.688963210702341,4.51688867820002
2.709030100334448,4.307633830509587
2.7290969899665547,4.0979494543097905
2.749163879598662,3.8886660836599045
2.769230769230769,3.6807542935836626
2.789297658862876,3.4753604107948037
2.809364548494983,3.2738514181064753
2.82943143812709,3.0778701063916496
2.849498327759197,2.8893999935951
2.869565217391304,2.7108359122202996
2.8896321070234112,2.5450489270190775
2.9096989966555182,2.3954217343171496
2.9297658862876252,2.265812957522476
2.9498327759197323,2.1603918973426643
2.9698996655518393,2.0832874152206355
2.9899665551839463,2.0380442615936523
3.0100334448160533,2.026989671042255
3.0301003344481603,2.0507304732607237
3.0501672240802673,2.108010940436468
3.0702341137123748,2.1960038199037424
3.0903010033444813,2.3108893517798785
3.1103678929765888,2.448476435339114
3.1304347826086953,2.60468208048435
3.1505016722408024,2.7758111090880906
3.1705685618729094,2.958667700372302
3.1906354515050164,3.1505597147388458
3.210702341137124,3.349249075726704
3.2307692307692304,3.5528829894117786
3.250836120401338,3.7599246749626585
3.270903010033445,3.9690918165228957
3.2909698996655514,4.179305213396085
3.311036789297659,4.389647387291173
3.3311036789297654,4.5993298432843535
3.351170568561873,4.807667431083733
3.3712374581939795,5.014058353967778
3.391304347826087,5.2179685946177985
3.411371237458194,5.418919765512313
3.4314381270903005,5.616479605052136
3.451505016722408,5.810254517047575
3.471571906354515,5.999883691125604
3.491638795986622,6.185034450068923
3.511705685618729,6.36539855311669
3.531772575250836,6.540689247406623
3.551839464882943,6.710638907661975
3.5719063545150496,6.874997140603484
3.591973244147157,7.033529258231222
3.612040133779264,7.186015045225512
3.632107023411371,7.3322477618777
3.652173913043478,7.472033336392692
3.672240802675585,7.605189710011798
3.692307692307692,7.731546305865669
3.712374581939799,7.850943598291431
3.732441471571906,7.963232763918233
3.752508361204013,8.068275399431013
3.7725752508361197,8.165943293781243
3.7926421404682276,8.2561182448938
3.8127090301003346,8.338691912747308
3.832775919732441,8.41356570218029
3.852842809364548,8.480650669972434
3.872909698996655,8.539867451728377
3.8929765886287626,8.591146204896404
3.9130434782608696,8.634426564922927
3.933110367892976,8.669657612103688
3.953177257525083,8.696797847167707
3.9732441471571907,8.715815174038354
3.9933110367892977,8.726686888572885
4.013377926421405,8.729399672399735
4.033444816053511,8.723949591263176
4.053511705685618,8.710342097556333
4.073578595317726,8.688592036985266
4.093645484949833,8.658723659566823
4.113712374581939,8.620770635429102
4.133779264214047,8.574776076164294
4.153846153846153,8.520792562788394
4.173913043478261,8.458882181700625
4.193979933110368,8.38911657041963
4.214046822742475,8.311576975316916
4.234113712374581,8.226354324088163
4.254180602006689,8.133549316319971
4.274247491638796,8.03327253624981
4.294314381270903,7.925644592712105
4.314381270903009,7.810796292355568
4.334448160535117,7.688868853557002
4.354515050167224,7.560014170113875
4.374581939799331,7.424395135856568
4.394648829431437,7.282186043895751
4.414715719063545,7.13357307745552
4.434782608695651,6.978754913331907
4.454849498327759,6.817943464210414
4.474916387959866,6.651364792709222
4.494983277591973,6.479260238527985
4.5150501672240795,6.3018878110633425
4.535117056856188,6.119523914084529
4.555183946488294,5.932465487591406
4.575250836120401,5.741032676196682
4.595317725752508,5.545572165139851
4.615384615384615,5.346461366802268
4.635451505016722,5.144113695549811
4.655518394648829,4.9389852409627375
4.6755852842809364,4.731583244032675
4.695652173913043,4.522476903420359
4.71571906354515,4.312311194884971
4.735785953177258,4.101824579448688
4.7558528428093645,3.8918716996111
4.775919732441471,3.6834523929951093
4.795986622073578,3.477748520526651
4.816053511705686,3.276170053683792
4.8361204013377925,3.0804112643535233
4.856187290969899,2.8925160864261255
4.8762541806020065,2.7149476990720456
4.896321070234113,2.5506495711894277
4.916387959866221,2.4030721251522387
4.936454849498328,2.276121477793892
4.956521739130435,2.1739717727538284
4.976588628762541,2.100689889217873
4.996655518394649,2.0596782903314863
5.016722408026756,2.053054126723372
5.036789297658863,2.0811893827241175
5.056856187290969,2.142625182668884
5.076923076923077,2.234403595216964
5.096989966555184,2.3526548552433506
5.117056856187291,2.493200278180112
5.137123745819398,2.6520044503246423
5.157190635451505,2.8254320286012145
5.177257525083611,3.010345222906614
5.197324414715719,3.204101666833648
5.217391304347826,3.4045030990151917
5.237458193979933,3.609727233084234
5.257525083612039,3.8182600099619197
5.277591973244148,4.028835693593541
5.297658862876254,4.240386976512627
5.317725752508361,4.452004765924957
5.337792642140468,4.662906355994017
5.357859531772575,4.872410475710588
5.377926421404682,5.079917807924583
5.397993311036789,5.284895791512947
5.418060200668896,5.486866748738325
5.438127090301003,5.6853985852936155
5.458193979933109,5.880097480283122
5.478260869565218,6.070602118104752
5.498327759197324,6.2565791187428
5.518394648829431,6.437719403126146
5.538461538461538,6.613735291268044
5.558528428093646,6.784358177317079
5.578595317725752,6.949336660935296
5.598662207357859,7.10843504129689
5.618729096989966,7.261432100535294
5.638795986622073,7.408120119214594
5.65886287625418,7.548304078530915
5.678929765886288,7.681801013335934
5.698996655518394,7.808439487373784
5.719063545150501,7.928059167827822
5.739130434782608,8.040510480755412
5.759197324414716,8.145654332528663
5.7792642140468224,8.243361885209323
5.799331103678929,8.333514376029543
5.8193979933110365,8.41600297295132
5.839464882943144,8.490728659731806
5.8595317725752505,8.557602145103479
5.879598662207358,8.616543791645023
5.8996655518394645,8.667483560715487
5.919732441471571,8.710360970487073
5.9397993311036785,8.745125064667976
5.959866220735786,8.771734389979484
5.9799331103678925,8.79015698085892
5.999999999999999,8.800370350216856
6.020066889632107,8.802361485396483
6.040133779264214,8.79612684877519
6.060200668896321,8.781672382723078
6.080267558528428,8.759013518899273
6.100334448160535,8.728175192132051
6.120401337792642,8.689191859402072
6.1404682274247495,8.64210752473713
6.160535117056856,8.586975771141901
6.180602006688963,8.523859801037046
6.200668896321069,8.452832487081436
6.2207357859531776,8.37397643571331
6.240802675585284,8.287384066288995
6.260869565217391,8.193157709342481
6.280936454849498,8.091409728263423
6.301003344481605,7.982262669628429
6.321070234113712,7.865849448564235
6.341137123745819,7.742313576926344
6.361204013377926,7.611809443813456
6.381270903010033,7.474502660097331
6.40133779264214,7.330570481347876
6.421404682274248,7.180202326927061
6.441471571906354,7.023600417314759
6.461538461538461,6.860980557178154
6.481605351170568,6.6925730986530985
6.501672240802676,6.518624128232545
6.521739130434782,6.339396932167045
6.54180602006689,6.155173810191391
6.561872909698996,5.966258326786564
6.581939799331103,5.772978114511605
6.60200668896321,5.575688377110351
6.622073578595318,5.374776283626193
6.642140468227424,5.170666501898115
6.662207357859531,4.9638281946652265
6.682274247491639,4.754783899009344
6.702341137123746,4.544120835434739
6.722408026755852,4.332505351289558
6.742474916387959,4.120701395769726
6.762541806020066,3.9095941419099036
6.782608695652174,3.7002200832202603
6.80267558528428,3.493805058140995
6.822742474916388,3.2918115150052225
6.842809364548494,3.095995561377206
6.862876254180601,2.9084722728692265
6.882943143812709,2.7317832558844057
6.903010033444816,2.5689520534864236
6.9230769230769225,2.423499450209948
6.94314381270903,2.299373510987969
6.963210702341137,2.200737051467942
6.983277591973244,2.131568656184452
7.0033444816053505,2.095097499163257
7.023411371237458,2.0932046003285594
7.0434782608695645,2.126014850619039
7.063545150501672,2.1918700063663663
7.083612040133779,2.2876959845633014
7.103678929765886,2.409590127975344
7.123745819397993,2.5533998497287334
7.143812709030099,2.7151453153299223
7.1638795986622075,2.8912537693122666
7.183946488294314,3.0786444314840185
7.204013377926421,3.274721412324581
7.224080267558528,3.477321828057147
7.2441471571906355,3.6846490593797565
7.264214046822742,3.8952069568117222
7.2842809364548495,4.1077418066643645
7.304347826086956,4.321193993044527
7.324414715719063,4.534658992196182
7.34448160535117,4.747356447327061
7.364548494983278,4.958605875875732
7.384615384615384,5.167807664205348
7.404682274247491,5.374428210501892
7.424749163879598,5.5779882953735545
7.444816053511706,5.778053955333215
7.464882943143812,5.974229296469691
7.48494983277592,6.166150814631365
7.505016722408026,6.353482888851592
7.525083612040134,6.535914191925656
7.545150501672239,6.7131548210036724
7.565217391304348,6.884933995986317
7.585284280936455,7.0509982077419915
7.605351170568561,7.211109724295197
7.625418060200669,7.365045383141519
7.645484949832775,7.512595613216533
7.665551839464882,7.653563641907894
7.685618729096991,7.787764851694796
7.705685618729096,7.915026258160957
7.725752508361204,8.035186086733837
7.74581939799331,8.148093429913732
7.765886287625418,8.253607970244829
7.785953177257525,8.351599757054188
7.806020066889631,8.44194902720153
7.826086956521739,8.524546061864985
7.846153846153847,8.599291072829416
7.866220735785952,8.666094112916104
7.88628762541806,8.724875006153743
7.906354515050166,8.775563294083474
7.926421404682274,8.818098195251478
7.946488294314381,8.852428575498182
7.966555183946488,8.878512927126627
7.986622073578595,8.896319355441355
8.006688963210701,8.905825571508954
8.02675585284281,8.907018890313978
8.046822742474916,8.899896233780858
8.066889632107022,8.884464138412502
8.08695652173913,8.860738767568973
8.107023411371236,8.82874592868289
8.127090301003344,8.788521095990864
8.147157190635452,8.740109439660928
8.167224080267557,8.683565862524544
8.187290969899665,8.618955045989168
8.207357859531772,8.546351507126428
8.227424749163879,8.465839669417052
8.247491638795987,8.377513950205316
8.267558528428093,8.281478868595999
8.2876254180602,8.177849178344074
8.307692307692307,8.06675003127782
8.327759197324415,7.94831717800491
8.347826086956522,7.8226972141368805
8.367892976588628,7.690047882104305
8.387959866220736,7.550538440919294
8.408026755852843,7.404350119098161
8.42809364548495,7.2516766695473995
8.448160535117056,7.09272504975227
8.468227424749163,6.927716256368178
8.488294314381271,6.756886350666901
8.508361204013378,6.5804877207183425
8.528428093645484,6.398790638335582
8.548494983277592,6.212085184530262
8.568561872909697,6.0206836376474655
8.588628762541806,5.824923444971954
8.608695652173914,5.625170933392271
8.628762541806019,5.421825960243551
8.648829431438127,5.215327765007848
8.668896321070234,5.00616236019997
8.68896321070234,4.794871900256205
8.709030100334449,4.582066595489824
8.729096989966555,4.368439897816974
8.749163879598662,4.1547878749415545
8.769230769230768,3.942033896925933
8.789297658862875,3.731259943440072
8.809364548494983,3.5237459053149713
8.82943143812709,3.32101799542318
8.849498327759196,3.124906400413348
8.869565217391303,2.937609878265272
8.889632107023411,2.7617600012360297
8.909698996655518,2.6004687393115113
8.929765886287624,2.45732928150835
8.949832775919733,2.3363238281579637
8.96989966555184,2.241583789687343
8.989966555183946,2.17696833357199
9.010033444816054,2.1454978560355875
9.030100334448159,2.1487879199719115
9.050167224080267,2.1867018370596485
9.070234113712376,2.2573837568831037
9.09030100334448,2.357655753753333
9.110367892976589,2.483597322440441
9.130434782608695,2.631094305595382
9.150501672240802,2.796230064120101
9.17056856187291,2.9754976157457835
9.190635451505017,3.1658731052432088
9.210702341137123,3.3648049623984195
9.23076923076923,3.5701623797121687
9.250836120401337,3.780170587281626
9.270903010033445,3.9933473988540005
9.290969899665551,4.2084472698959905
9.311036789297658,4.424414631725936
9.331103678929765,4.640346145298262
9.351170568561873,4.855460692366881
9.37123745819398,5.069075735448284
9.391304347826086,5.280588771170815
9.411371237458194,5.489462792560921
9.4314381270903,5.695214880576962
9.451505016722408,5.897407229568814
9.471571906354516,6.095640064908475
9.49163879598662,6.289546033827221
9.511705685618729,6.478785746463918
9.531772575250837,6.663044218187808
9.551839464882942,6.842028021032969
9.57190635451505,7.015462995485032
9.591973244147155,7.1830924070365505
9.612040133779264,7.34467545732427
9.632107023411372,7.4999860791560025
9.652173913043477,7.648811959751081
9.672240802675585,7.790953748132208
9.692307692307692,7.926224411628468
9.712374581939798,8.054448713491002
9.732441471571907,8.175462789145218
9.752508361204013,8.289113802956585
9.77257525083612,8.395259670835467
9.792642140468226,8.493768836752835
9.812709030100335,8.584520093437696
9.832775919732441,8.66740243929747
9.852842809364548,8.742314965036357
9.872909698996656,8.809166764615505
9.89297658862876,8.867876866157742
9.91304347826087,8.918374179192876
9.933110367892976,8.960597455301608
9.953177257525082,8.994495259774332
9.97324414715719,9.02002595237783
9.993311036789297,9.03715767573603
10.013377926421404,9.045868350195894
10.033444816053512,9.046145674377813
10.053511705685617,9.037987130913907
10.073578595317725,9.02139999716544
10.093645484949834,8.99640136099273
10.113712374581938,8.963018141934832
10.133779264214047,8.92128711845176
10.153846153846153,8.871254962197499
10.17391304347826,8.812978280638523
10.193979933110368,8.746523669721
10.214046822742475,8.67196777873429
10.234113712374581,8.58939739003476
10.254180602006688,8.498909516902721
10.274247491638796,8.400611523529683
10.294314381270903,8.29462127200545
10.31438127090301,8.18106730223125
10.334448160535118,8.060089051976425
10.354515050167223,7.931837125882862
10.37458193979933,7.796473624183934
10.394648829431437,7.65417254434461
10.414715719063544,7.505120271880242
10.434782608695652,7.349516180444788
10.454849498327757,7.1875733661212005
10.474916387959865,7.019519546991535
10.494983277591974,6.845598166901348
10.515050167224079,6.666069752373433
10.535117056856187,6.48121358454643
10.555183946488295,6.291329764708398
10.5752508361204,6.096741773643798
10.595317725752508,5.897799653166369
10.615384615384615,5.694883974895309
10.635451505016722,5.488410809154964
10.65551839464883,5.278837969117527
10.675585284280936,5.066672885917521
10.695652173913043,4.852482573857309
10.71571906354515,4.636906275117938
10.735785953177256,4.42067153256474
10.755852842809364,4.2046146229664085
10.775919732441471,3.9897064719582325
10.795986622073578,3.7770853150769854
10.816053511705684,3.568097350821871
10.836120401337793,3.364346216442021
10.856187290969899,3.1677508613714993
10.876254180602006,2.980608535619221
10.896321070234114,2.80565401871315
10.916387959866219,2.646096642424785
10.936454849498327,2.505602886894425
10.956521739130435,2.388177970475544
10.97658862876254,2.297896568567358
10.996655518394649,2.2384611652188897
