Time (s),Filtered Signal
0.0,0.00878361873152579
0.033370535714285714,0.026472490409992996
0.06674107142857143,0.10028271873787381
0.10011160714285713,0.2638789279354302
0.13348214285714285,0.5141948386045481
0.16685267857142858,0.811148401130158
0.20022321428571427,1.0909723712233848
0.23359375,1.287719144846286
0.2669642857142857,1.3546897881391653
0.30033482142857143,1.2781983174647733
0.33370535714285715,1.0796284921883113
0.36707589285714287,0.8063485021716046
0.40044642857142854,0.51573697699195
0.43381696428571426,0.25818815963705694
0.4671875,0.06444999118168794
0.5005580357142857,-0.05935225518018398
0.5339285714285714,-0.12833686964963834
0.5672991071428571,-0.16909231428235413
0.6006696428571429,-0.20737547221635244
0.6340401785714286,-0.2577556395731547
0.6674107142857143,-0.3187575378294391
0.70078125,-0.3749245028349993
0.7341517857142857,-0.4046736315649777
0.7675223214285715,-0.3907669055949817
0.8008928571428571,-0.3293473793758416
0.8342633928571428,-0.234027603747877
0.8676339285714285,-0.13327909674438257
0.9010044642857142,-0.061808823391966014
0.934375,-0.04890776958269999
0.9677455357142857,-0.10802647376820508
1.0011160714285714,-0.23145740039464618
1.0344866071428571,-0.3920408534286199
1.0678571428571428,-0.5510968979769206
1.1012276785714286,-0.6695417458088642
1.1345982142857143,-0.7182959420020797
1.16796875,-0.6847996802978712
1.2013392857142857,-0.5741908746230935
1.2347098214285714,-0.40566572953420404
1.2680803571428572,-0.2060197983274074
1.3014508928571429,-0.00292008926856356
1.3348214285714286,0.1800229047031661
1.3681919642857143,0.32554654649059306
1.4015625,0.4229007685065544
1.4349330357142858,0.46716587517347985
1.4683035714285715,0.4588801903489565
1.5016741071428572,0.40436888793862513
1.535044642857143,0.316325120757771
1.5684151785714286,0.21372633324216708
1.6017857142857141,0.12018324219200645
1.6351562499999999,0.06021682340264582
1.6685267857142856,0.05364458295518826
1.7018973214285713,0.10916511615817649
1.735267857142857,0.2191559855463466
1.7686383928571427,0.35818584086099053
1.8020089285714285,0.4872209926024105
1.8353794642857142,0.5637108874453238
1.86875,0.5551021681247121
1.9021205357142856,0.45103675274647004
1.9354910714285714,0.2689435340210532
1.968861607142857,0.04972103415407223
2.002232142857143,-0.15577176631246714
2.0356026785714287,-0.3044259226825615
2.0689732142857142,-0.3755076569050161
2.10234375,-0.37599372282844884
2.1357142857142857,-0.3345045879699593
2.169084821428571,-0.2868141618307431
2.202455357142857,-0.2595278639414077
2.2358258928571426,-0.25907545087489414
2.2691964285714286,-0.2706174405447892
2.302566964285714,-0.2670479120219406
2.3359375,-0.22382988514612165
2.3693080357142855,-0.1327283447371575
2.4026785714285714,-0.0078304356010948
2.436049107142857,0.11934011083673139
2.469419642857143,0.21362015365130413
2.5027901785714284,0.2523661899148771
2.5361607142857143,0.2359000247326958
2.56953125,0.18673372538490482
2.6029017857142858,0.13767688366741562
2.6362723214285713,0.11476728353232547
2.669642857142857,0.12387114166323895
2.7030133928571427,0.14803166721948
2.7363839285714286,0.15699337925176576
2.769754464285714,0.12381955532513232
2.803125,0.03975708126899687
2.8364955357142856,-0.0804267910814483
2.8698660714285715,-0.20517661532040693
2.903236607142857,-0.3010853276987472
2.936607142857143,-0.34811322145104756
2.9699776785714285,-0.3474926318100461
3.0033482142857144,-0.3189543380898737
3.03671875,-0.28951554443525546
3.070089285714286,-0.2799940840204886
3.1034598214285714,-0.29579996290711574
3.1368303571428573,-0.32564304029858215
3.170200892857143,-0.34756951154587895
3.2035714285714283,-0.338594499864123
3.2369419642857142,-0.2834954362572104
3.2703124999999997,-0.17978856952766797
3.3036830357142857,-0.03814812670907549
3.337053571428571,0.12078492191643811
3.370424107142857,0.27160435854375636
3.4037946428571426,0.38984466590245476
3.4371651785714286,0.4570696333067221
3.470535714285714,0.4646676987849016
3.50390625,0.4160893662422993
3.5372767857142855,0.3274445602894821
3.5706473214285714,0.22614783934121704
3.604017857142857,0.14685425632673318
3.637388392857143,0.12394999426259086
3.6707589285714284,0.1810238700982837
3.7041294642857143,0.31993932186520496
3.7375,0.5141298301264153
3.7708705357142858,0.7108295547503295
3.8042410714285713,0.8441727712912495
3.837611607142857,0.856256830366864
3.8709821428571427,0.7187511615200951
3.9043526785714286,0.446063766544794
3.937723214285714,0.09367703623089152
3.97109375,-0.25889596222481537
4.004464285714286,-0.5346171928733331
4.0378348214285715,-0.6848271674318805
4.0712053571428575,-0.7045231712248154
4.1045758928571425,-0.6311968556161083
4.1379464285714285,-0.5279695456145322
4.171316964285714,-0.4579099283356831
4.2046875,-0.4596793764640384
4.238058035714285,-0.5338289538246888
4.271428571428571,-0.6446555704880443
4.304799107142857,-0.7363662103563472
4.338169642857142,-0.756801507538727
4.371540178571428,-0.679164137916118
4.404910714285714,-0.5130754594802553
4.43828125,-0.3005361195246885
4.471651785714285,-0.09847750808631485
4.505022321428571,0.0447684148847316
4.538392857142857,0.10899537813138685
4.571763392857143,0.10914911382392757
4.605133928571428,0.0868901989049512
4.638504464285714,0.09078561035074403
4.671875,0.15438203108627527
4.705245535714286,0.2820662829590911
4.738616071428571,0.44848458176395234
4.771986607142857,0.6106441434134957
4.805357142857143,0.7261508239964478
4.838727678571429,0.7690443688121552
4.872098214285714,0.7368960726736223
4.90546875,0.6475899520200132
4.938839285714286,0.5289126506105118
4.972209821428572,0.40662381740092013
5.005580357142857,0.29633836010292397
5.038950892857143,0.20196731608662227
5.072321428571429,0.12005451174135257
5.105691964285715,0.046627904226272596
5.1390625,-0.017719949522946653
5.172433035714286,-0.06751493495801517
5.2058035714285715,-0.09694220601211795
5.2391741071428575,-0.10631153018326989
5.2725446428571425,-0.10607059742068135
5.3059151785714285,-0.11508609149678263
5.339285714285714,-0.15306292902442353
5.3726562499999995,-0.23044584383824554
5.406026785714285,-0.340970317221616
5.439397321428571,-0.4611314858796287
5.472767857142857,-0.5576304917611853
5.506138392857142,-0.5999575994508278
5.539508928571428,-0.5726297792559096
5.572879464285714,-0.48152193473851795
5.60625,-0.3512809457279202
5.639620535714285,-0.2148318461965375
5.672991071428571,-0.09965225830780546
5.706361607142857,-0.01712573031310594
5.739732142857143,0.03994661908435141
5.773102678571428,0.09032701643232131
5.806473214285714,0.1511722269367677
5.83984375,0.22553668086482373
5.873214285714286,0.29759100391094195
5.906584821428571,0.33897497774727764
5.939955357142857,0.323761829920628
5.973325892857143,0.24442139714445563
6.006696428571429,0.11998935591376843
6.040066964285714,-0.00865019440519171
6.0734375,-0.09476805429284098
6.106808035714286,-0.10550013548342313
6.140178571428572,-0.03576521115445941
6.173549107142857,0.08995711704662525
6.206919642857143,0.22800936800458677
6.240290178571429,0.33229413530299906
6.273660714285715,0.36943758073235483
6.30703125,0.3267753932480692
6.340401785714286,0.21226652515176103
6.3737723214285715,0.04925299390341386
6.407142857142857,-0.1302038025925491
6.4405133928571425,-0.29147981619022945
6.4738839285714285,-0.4033054589550067
6.507254464285714,-0.444216989421079
6.5406249999999995,-0.4087938034748823
6.573995535714285,-0.31093403505973594
6.607366071428571,-0.18107213576064604
6.640736607142857,-0.05651641652545581
6.674107142857142,0.03208463479066247
6.707477678571428,0.07223586647756465
6.740848214285714,0.073338462499405
6.77421875,0.06053767439854918
6.807589285714285,0.06152610227941172
6.840959821428571,0.09272058147948377
6.874330357142857,0.1514377467717856
6.907700892857143,0.2176027627418336
6.941071428571428,0.26388921229182344
6.974441964285714,0.2692849932081741
7.0078125,0.22960903118244216
7.041183035714286,0.16001091228135836
7.074553571428571,0.08827037492049529
7.107924107142857,0.04209452131885481
7.141294642857143,0.03653367363488753
7.174665178571429,0.06757987711447656
7.208035714285714,0.11485339976315374
7.24140625,0.1515860945190518
7.274776785714286,0.1564418987465196
7.308147321428572,0.12118505873058973
7.341517857142857,0.05109038028025212
7.374888392857143,-0.04057230471978715
7.408258928571429,-0.1394910294775426
7.441629464285715,-0.23425996882068167
7.475,-0.31586139858774065
7.508370535714286,-0.3749200496480199
7.5417410714285715,-0.40076774728330694
7.575111607142857,-0.3849714158399198
7.6084821428571425,-0.3282962867368615
7.6418526785714285,-0.2465818436902416
7.675223214285714,-0.1701898353995256
7.7085937499999995,-0.13445224260145844
7.741964285714285,-0.16363359140572992
7.775334821428571,-0.25555808557926496
7.808705357142857,-0.37545921802160076
7.842075892857142,-0.46448660552931675
7.875446428571428,-0.46163155996078525
7.908816964285714,-0.33063533559964453
7.9421875,-0.07951590859739735
7.975558035714285,0.23766384883895372
8.008928571428571,0.5394582471394571
8.042299107142856,0.7488255584504455
8.075669642857143,0.8236897315958331
8.109040178571428,0.7719117818225886
8.142410714285715,0.6437345720941208
8.17578125,0.5058724414725895
8.209151785714285,0.4103115509147907
8.242522321428572,0.3729092772298521
8.275892857142857,0.37119759399396907
8.309263392857142,0.36073101004254315
8.342633928571429,0.3003485982104082
8.376004464285714,0.17335355601119648
8.409375,-0.0049859694387505375
8.442745535714286,-0.19554661922175606
8.47611607142857,-0.35345324959595714
8.509486607142858,-0.44678252477747854
8.542857142857143,-0.46762442237495516
8.576227678571428,-0.4319033252256899
8.609598214285715,-0.3697388941802431
8.64296875,-0.3117607154789592
8.676339285714285,-0.2775100403998279
8.709709821428572,-0.2701628547278368
8.743080357142857,-0.27856042528256736
8.776450892857143,-0.2844570098072512
8.809821428571428,-0.27115768771398524
8.843191964285714,-0.22981369867476692
8.8765625,-0.1613156065931802
8.909933035714285,-0.07409132014650631
8.94330357142857,0.02003096397172121
8.976674107142857,0.10936744128710797
9.010044642857142,0.18402890675495423
9.04341517857143,0.23621925163725851
9.076785714285714,0.2607254121599596
9.11015625,0.25647794297156656
9.143526785714286,0.22832344314718253
9.176897321428571,0.18695139126130644
9.210267857142856,0.14554987988250212
9.243638392857143,0.11402580045677926
9.277008928571428,0.0938683158685126
9.310379464285715,0.07712252866112052
9.34375,0.05088399393385325
9.377120535714285,0.005385505932301022
9.410491071428572,-0.0587353350451141
9.443861607142857,-0.1283497608826659
9.477232142857142,-0.18259916778214055
9.510602678571429,-0.20235122217025017
9.543973214285714,-0.17948193808829369
9.57734375,-0.12110713683336201
9.610714285714286,-0.04661683787880224
9.64408482142857,0.02074744643482287
9.677455357142858,0.06325632194020983
9.710825892857143,0.07438421167838989
9.744196428571428,0.05869018146727384
9.777566964285715,0.027111583559789532
9.8109375,-0.008946741058130201
9.844308035714285,-0.04149646422394675
9.877678571428572,-0.06655580456458071
9.911049107142857,-0.08239990887794932
9.944419642857143,-0.08748895673971759
9.977790178571428,-0.079620688357925
10.011160714285714,-0.05653906562206971
10.04453125,-0.01713997616211617
10.077901785714285,0.03777068753237536
10.11127232142857,0.10554321643336947
10.144642857142857,0.18205981796048962
10.178013392857142,0.26154654781773207
10.21138392857143,0.3355011734723558
10.244754464285714,0.39157807915830245
10.278125,0.414164979068725
10.311495535714286,0.38810670223467236
10.344866071428571,0.3053260161787837
10.378236607142856,0.17172563257658388
10.411607142857143,0.010240861454677754
10.444977678571428,-0.14336357700346736
10.478348214285715,-0.2521511886110014
10.51171875,-0.29300883690540047
10.545089285714285,-0.2678961652240886
10.578459821428572,-0.2047923665343926
10.611830357142857,-0.1461935036271717
10.645200892857142,-0.12940772733890768
10.678571428571429,-0.16788838911167367
10.711941964285714,-0.24337785885849472
10.745312499999999,-0.31384014621085815
10.778683035714286,-0.33416724356092625
10.81205357142857,-0.27966859677863076
10.845424107142858,-0.16038247426793115
10.878794642857143,-0.018626268324694543
10.912165178571428,0.08931145312749314
10.945535714285715,0.11843139901248916
10.97890625,0.055081562748544116
11.012276785714285,-0.07730428191629209
11.045647321428572,-0.22851197971647638
11.079017857142857,-0.34199439783374974
11.112388392857143,-0.3756004288120539
11.145758928571428,-0.3140222882006748
11.179129464285714,-0.16959897188622722
11.2125,0.026019283902253457
11.245870535714285,0.23346429991515363
11.27924107142857,0.41509395508514524
11.312611607142857,0.5401944716505181
11.345982142857142,0.58741735389642
11.37935267857143,0.5472768729111003
11.412723214285714,0.4259048003617062
11.44609375,0.24810215025909618
11.479464285714286,0.05571026967460441
11.512834821428571,-0.10154971932034061
11.546205357142856,-0.18151765479621285
11.579575892857143,-0.16541169747397758
11.612946428571428,-0.06613280352907315
11.646316964285715,0.07627046758480785
11.6796875,0.21106420719982408
11.713058035714285,0.2977625525414833
11.746428571428572,0.32118925079760763
11.779799107142857,0.29315465791046524
11.813169642857142,0.24046859719733432
11.846540178571429,0.18655683349148192
11.879910714285714,0.13737015994790985
11.913281249999999,0.07952488644086284
11.946651785714286,-0.008658508548513211
11.98002232142857,-0.14001259178828965
12.013392857142858,-0.3053950285443285
12.046763392857143,-0.4721898450792759
12.080133928571428,-0.5955067306866284
12.113504464285715,-0.6364644748559913
12.146875,-0.5786582042486992
12.180245535714285,-0.4352983343359092
12.213616071428572,-0.24431894096490264
12.246986607142857,-0.05429503604094881
12.280357142857143,0.09232173851847793
12.313727678571428,0.17173124208952087
12.347098214285714,0.18279083206933794
12.38046875,0.14235265985675385
12.413839285714285,0.07539311228809341
12.44720982142857,0.004910153746043172
12.480580357142857,-0.05437601837164436
12.513950892857142,-0.09699763348555336
12.54732142857143,-0.1234833810412188
12.580691964285714,-0.13551039271449278
12.6140625,-0.13222096634035638
12.647433035714286,-0.10950055974718646
12.680803571428571,-0.062548125371461
12.714174107142856,0.00944757735707206
12.747544642857143,0.09890968239009379
12.780915178571428,0.18853189853356506
12.814285714285713,0.25486986006658446
12.84765625,0.2765144683724114
12.881026785714285,0.2437986905091504
12.914397321428572,0.16532610258713032
12.947767857142857,0.0672721198756293
12.981138392857142,-0.015473605158390151
13.014508928571429,-0.05305274125226373
13.047879464285714,-0.03299362014947844
13.081249999999999,0.03499184104977247
13.114620535714286,0.12439139132855165
13.14799107142857,0.20480216639078028
13.181361607142858,0.25563740871248475
13.214732142857143,0.27347988929088074
13.248102678571428,0.2695658715544012
13.281473214285715,0.2595214003934301
13.31484375,0.2517870693589656
13.348214285714285,0.24162544041176381
13.381584821428572,0.2140661494213034
13.414955357142857,0.15386994293083942
13.448325892857143,0.05669268248075516
13.481696428571428,-0.06489330725401717
13.515066964285714,-0.18408426726455046
13.5484375,-0.270417762817208
13.581808035714285,-0.3035639601257739
13.61517857142857,-0.28395194570926374
13.648549107142857,-0.23493149585719447
13.681919642857142,-0.19466054323426718
13.71529017857143,-0.20040870497649022
13.748660714285714,-0.27151972415332554
13.78203125,-0.3982496069001848
13.815401785714286,-0.5416236423746114
13.848772321428571,-0.6452109095431138
13.882142857142856,-0.6550129903532057
13.915513392857143,-0.5403043342297444
13.948883928571428,-0.30752504099314226
13.982254464285713,-0.0015920990944815402
14.015625,0.30643994556428555
14.048995535714285,0.5412527662968034
14.082366071428572,0.6468678064258024
14.115736607142857,0.6036093714406934
14.149107142857142,0.43286603296471937
14.182477678571429,0.18891953228579858
14.215848214285714,-0.058295101536902955
14.249218749999999,-0.2431863056195213
14.282589285714286,-0.321221487056288
14.31595982142857,-0.27848324021624576
14.349330357142858,-0.13279957098807138
14.382700892857143,0.07278047618984045
14.416071428571428,0.2821171917274768
14.449441964285715,0.4408482889141986
14.4828125,0.510574158191373
14.516183035714285,0.4788281145844723
14.549553571428572,0.3619631569476487
14.582924107142857,0.19970677620763957
14.616294642857143,0.04254449329038411
14.649665178571428,-0.06433717404410033
14.683035714285714,-0.09515605782061622
14.71640625,-0.050632303865452775
14.749776785714285,0.04434313282643237
14.78314732142857,0.15101443881085375
14.816517857142857,0.2304604419011905
14.849888392857142,0.2553744754888515
14.88325892857143,0.21639512987439777
14.916629464285714,0.12233503001444926
14.95,-0.004188381379353466
14.983370535714286,-0.13364051374440242
15.016741071428571,-0.23739575567685423
15.050111607142856,-0.2953607260208871
15.083482142857143,-0.3019962103682556
15.116852678571428,-0.26879392977975564
15.150223214285713,-0.22144882614668635
15.18359375,-0.19152428738196522
15.216964285714285,-0.20488063367295947
15.250334821428572,-0.27112299003766244
15.283705357142857,-0.37843667753356686
15.317075892857142,-0.49609870251518445
15.350446428571429,-0.5837403769376123
15.383816964285714,-0.6038245719322185
15.417187499999999,-0.5330346939313279
15.450558035714286,-0.36934118741404987
15.48392857142857,-0.13336299178667352
15.517299107142858,0.13584956909055743
15.550669642857143,0.3896434348863486
15.584040178571428,0.5815832291550304
15.617410714285715,0.6796939497904023
15.65078125,0.6755858528188279
15.684151785714285,0.5869015325917797
15.717522321428572,0.45125707808979215
15.750892857142857,0.3130790516550509
15.784263392857143,0.20803566791261222
15.817633928571428,0.15129073177673527
15.851004464285714,0.13447662388394602
15.884375,0.13248525388928226
15.917745535714285,0.11670598535390264
15.95111607142857,0.06846655055619826
15.984486607142857,-0.01334567619195661
16.017857142857142,-0.11333944825625178
16.05122767857143,-0.2078453263524059
16.084598214285712,-0.275568617768843
16.11796875,-0.30538830436673636
16.151339285714286,-0.2981779067334774
16.18470982142857,-0.2629750377725084
16.218080357142856,-0.21065261874796803
16.251450892857143,-0.14902632455130826
16.28482142857143,-0.08183214670793915
16.318191964285713,-0.011269335435182586
16.3515625,0.05843858393200613
16.384933035714287,0.11940230543918412
16.41830357142857,0.16172817363114783
16.451674107142857,0.17755578041558073
16.485044642857144,0.16504042563853
16.518415178571427,0.1299806268232697
16.551785714285714,0.08422157215480489
16.58515625,0.04164915750790573
16.618526785714284,0.013593638019048067
16.65189732142857,0.00547356338858217
16.685267857142858,0.015783518215103497
16.71863839285714,0.03752788535278506
16.752008928571428,0.06131283264599964
16.785379464285715,0.07877154566133399
16.81875,0.08496356153127202
16.852120535714285,0.07890258841168897
16.88549107142857,0.0622620838595677
16.91886160714286,0.03717833353995052
16.95223214285714,0.004459831529991687
16.98560267857143,-0.036788187732831074
17.018973214285715,-0.08791572300510364
17.05234375,-0.14850643705147468
17.085714285714285,-0.2143419263678355
17.119084821428572,-0.27669591704473434
17.152455357142856,-0.32361831384973805
17.185825892857142,-0.3431043511193005
17.21919642857143,-0.327245813277962
17.252566964285712,-0.275901448589113
17.2859375,-0.19834108660022154
17.319308035714286,-0.1118190229193642
17.35267857142857,-0.03702116991944141
17.386049107142856,0.008478285912319356
17.419419642857143,0.016628275864022938
17.45279017857143,-0.00729357681513625
17.486160714285713,-0.04536900030775103
17.51953125,-0.07260631121360725
17.552901785714287,-0.06581206254296315
17.58627232142857,-0.012568918626250375
17.619642857142857,0.08334369423603735
17.653013392857144,0.2026134592686507
