Frequency (Hz),Amplitude
0.0,1.7654956630881151
0.019867549668874173,1.766014265299616
0.039735099337748346,1.767567124046656
0.059602649006622516,1.7701454294860774
0.07947019867549669,1.7737346103551717
0.09933774834437085,1.7783144985065762
0.11920529801324503,1.783859553066029
0.13907284768211922,1.7903391383952485
0.15894039735099338,1.7977178488818544
0.17880794701986755,1.8059558727383629
0.1986754966887417,1.8150093864933887
0.2185430463576159,1.824830971696147
0.23841059602649006,1.8353700455065354
0.2582781456953642,1.8465732972685298
0.27814569536423844,1.8583851238129752
0.2980132450331126,1.8707480570515775
0.31788079470198677,1.8836031783478937
0.33774834437086093,1.8968905151291204
0.3576158940397351,1.9105494161859098
0.3774834437086093,1.9245189030542214
0.3973509933774834,1.9387379957532866
0.4172185430463576,1.953146011943337
0.4370860927152318,1.9676828392530452
0.45695364238410596,1.9822891811029364
0.4768211920529801,1.9969067768181112
0.49668874172185434,2.0114785971859623
0.5165562913907285,2.025949016881312
0.5364238410596026,2.04026396536237
0.5562913907284769,2.0543710579491172
0.5761589403973509,2.0682197088417795
0.5960264900662252,2.081761227833801
0.6158940397350993,2.0949489024315255
0.6357615894039735,2.1077380670209376
0.6556291390728477,2.1200861606296124
0.6754966887417219,2.1319527747257307
0.695364238410596,2.1432996923818695
0.7152317880794702,2.154090920014414
0.7350993377483444,2.164292712792439
0.7549668874172186,2.17387359469642
0.7748344370860927,2.1828043740989633
0.7947019867549668,2.191058155637551
0.8145695364238411,2.198610349054787
0.8344370860927152,2.205438675594321
0.8543046357615894,2.2115231724611624
0.8741721854304636,2.216846195782639
0.8940397350993378,2.2213924224412738
0.9139072847682119,2.2251488510915816
0.9337748344370861,2.228104802619829
0.9536423841059603,2.230251920257665
0.9735099337748344,2.2315841695166343
0.9933774834437087,2.232097838070365
1.0132450331125828,2.2317915356739113
1.033112582781457,2.2306661941739256
1.0529801324503312,2.228725067629554
1.0728476821192052,2.225973732529847
1.0927152317880795,2.222420088059403
1.1125827814569538,2.2180743563291565
1.1324503311258278,2.2129490824515066
1.1523178807947019,2.207059134300079
1.1721854304635762,2.2004217017504626
1.1920529801324504,2.193056295151732
1.2119205298013245,2.184984742725732
1.2317880794701985,2.176231186533643
1.2516556291390728,2.166822076585027
1.271523178807947,2.1567861625936704
1.2913907284768211,2.1461544828063372
1.3112582781456954,2.134960349244631
1.3311258278145695,2.123239328606879
1.3509933774834437,2.11102921797657
1.370860927152318,2.0983700143762376
1.390728476821192,2.085303877093277
1.410596026490066,2.0718750815882383
1.4304635761589404,2.0581299636784482
1.4503311258278146,2.0441168525756575
1.4701986754966887,2.0298859912481255
1.4900662251655628,2.0154894424828536
1.5099337748344372,2.0009809789478
1.5298013245033113,1.9864159555060796
1.5496688741721854,1.9718511620230625
1.5695364238410596,1.9573446549446891
1.5894039735099337,1.942955566020981
1.609271523178808,1.928743886716441
1.6291390728476822,1.9147702270994165
1.6490066225165563,1.9010955483471537
1.6688741721854303,1.8877808684504793
1.6887417218543048,1.8748869412587548
1.7086092715231789,1.862473909671002
1.728476821192053,1.8506009345511074
1.7483443708609272,1.8393258018078633
1.7682119205298013,1.8287045110169815
1.7880794701986755,1.8187908499394239
1.8079470198675496,1.8096359602715104
1.8278145695364238,1.8012879008977174
1.847682119205298,1.7937912157548734
1.8675496688741722,1.7871865140977747
1.8874172185430464,1.78151007142458
1.9072847682119205,1.7767934595237453
1.9271523178807946,1.7730632140011735
1.9470198675496688,1.7703405472096365
1.9668874172185429,1.7686411137256028
1.9867549668874174,1.7679748344156785
2.0066225165562916,1.7683457837436711
2.0264900662251657,1.7697521433482508
2.0463576158940397,1.7721862231476637
2.066225165562914,1.7756345493900858
2.086092715231788,1.7800780172603328
2.1059602649006623,1.7854921039673461
2.1258278145695364,1.7918471367536561
2.1456953642384105,1.799108609054263
2.165562913907285,1.8072375371330305
2.185430463576159,1.8161908489633618
2.205298013245033,1.8259217968965131
2.2251655629139075,1.8363803857559695
2.2450331125827816,1.847513808372625
2.2649006622516556,1.8592668811848883
2.2847682119205297,1.8715824733139586
2.3046357615894038,1.8844019234302676
2.324503311258278,1.8976654396961972
2.3443708609271523,1.9113124790532103
2.364238410596027,1.9252821030757334
2.384105960264901,1.9395133085062455
2.403973509933775,1.9539453313924775
2.423841059602649,1.9685179244521251
2.443708609271523,1.9831716078869994
2.463576158940397,1.997847894354829
2.4834437086092715,2.0124894891882334
2.5033112582781456,2.0270404672339826
2.52317880794702,2.041446427882222
2.543046357615894,2.055654629976288
2.562913907284768,2.069614108351126
2.5827814569536423,2.0832757737539613
2.6026490066225163,2.096592497865508
2.622516556291391,2.109519185073818
2.642384105960265,2.122012832564245
2.662251655629139,2.134032580185288
2.6821192052980134,2.1455397514378696
2.7019867549668874,2.1564978868187064
2.7218543046357615,2.166872770632188
2.741721854304636,2.176632452270775
2.76158940397351,2.185747262855103
2.781456953642384,2.1941898280217034
2.801324503311258,2.201935077550484
2.821192052980132,2.2089602524355803
2.8410596026490067,2.215244909922232
2.8609271523178808,2.2207709269589264
2.8807947019867552,2.22552250244737
2.9006622516556293,2.2294861586129184
2.9205298013245033,2.2326507417637242
2.9403973509933774,2.2350074226579837
2.9602649006622515,2.2365496966539724
2.9801324503311255,2.2372733837765364
3.0,2.2371766287959174
3.0198675496688745,2.2362599013787694
3.0397350993377485,2.2345259963366884
3.0596026490066226,2.231980033963845
3.0794701986754967,2.2286294604210277
3.0993377483443707,2.224484048088537
3.119205298013245,2.2195558957734245
3.1390728476821192,2.2138594286174964
3.1589403973509933,2.2074113975097007
3.1788079470198674,2.200230877760232
3.198675496688742,2.192339266742084
3.218543046357616,2.183760280149077
3.23841059602649,2.1745199464564124
3.2582781456953644,2.1646465991000943
3.2781456953642385,2.154170865814746
3.2980132450331126,2.1431256544850537
3.3178807947019866,2.131546134774304
3.3377483443708607,2.119469714694257
3.3576158940397347,2.106936011175151
3.3774834437086096,2.093986813582956
3.3973509933774837,2.080666039016287
3.4172185430463577,2.0670196780984345
3.437086092715232,2.0530957298658077
3.456953642384106,2.038944124245251
3.47682119205298,2.024616630516188
3.4966887417218544,2.0101667500749767
3.5165562913907285,1.9956495917664836
3.5364238410596025,1.9811217280310287
3.556291390728477,1.966641030143623
3.576158940397351,1.9522664809082797
3.596026490066225,1.9380579633249195
3.615894039735099,1.9240760239816614
3.6357615894039736,1.9103816102525382
3.6556291390728477,1.8970357808087899
3.6754966887417218,1.884099389486932
3.695364238410596,1.871632743201706
3.7152317880794703,1.8596952353415934
3.7350993377483444,1.8483449569292805
3.754966887417219,1.8376382887492104
3.774834437086093,1.8276294786114424
3.794701986754967,1.8183702088982092
3.814569536423841,1.8099091604805069
3.834437086092715,1.8022915799451777
3.854304635761589,1.7955588577805879
3.8741721854304636,1.7897481256750705
3.8940397350993377,1.7848918813339154
3.9139072847682117,1.7810176491741097
3.9337748344370858,1.7781476848825124
3.9536423841059607,1.7762987311113498
3.9735099337748347,1.775481830545562
3.993377483443709,1.775702201242887
4.013245033112583,1.7769591775739002
4.033112582781457,1.7792462183489788
4.052980132450331,1.7825509818984957
4.072847682119205,1.786855466064017
4.0927152317880795,1.792136209353692
4.112582781456953,1.7983645479979358
4.132450331125828,1.8055069223799414
4.152317880794702,1.8135252253597347
4.172185430463576,1.8223771843862357
4.19205298013245,1.8320167690051585
4.211920529801325,1.8423946154044157
4.231788079470199,1.8534584599602404
4.251655629139073,1.8651535743098782
4.271523178807947,1.8774231952263494
4.291390728476821,1.8902089434503997
4.311258278145695,1.9034512265882015
4.33112582781457,1.9170896221603013
4.3509933774834435,1.9310632378434989
4.370860927152318,1.945311046848438
4.390728476821192,1.9597721971956719
4.410596026490066,1.9743862943750061
4.43046357615894,1.9890936574883518
4.450331125827815,2.0038355494824454
4.470198675496689,2.0185543824787886
4.490066225165563,2.0331938995099446
4.509933774834438,2.0476993341847822
4.529801324503311,2.0620175499410713
4.549668874172186,2.076097160613882
4.569536423841059,2.0898886340646907
4.589403973509934,2.103344380589229
4.6092715231788075,2.116418827762927
4.629139072847682,2.1290684832991
4.649006622516556,2.141251987395288
4.66887417218543,2.15293015593323
4.688741721854305,2.1640660157826246
4.708609271523179,2.1746248333433034
4.728476821192054,2.1845741373459573
4.748344370860927,2.1938837368224986
4.768211920529802,2.2025257350527014
4.788079470198675,2.2104745401974153
4.80794701986755,2.217706873238509
4.827814569536423,2.224201773763721
4.847682119205298,2.229940604059751
4.867549668874172,2.234907051909091
4.887417218543046,2.239087132424818
4.9072847682119205,2.2424691892021125
4.927152317880794,2.245043895015385
4.947019867549669,2.2468042522441016
4.966887417218543,2.2477455931689376
4.986754966887418,2.247865580240845
5.006622516556291,2.2471642063895807
5.026490066225166,2.245643795403081
5.04635761589404,2.2433090023748328
5.066225165562914,2.24016681418247
5.086092715231788,2.236226549925452
5.105960264900662,2.231499861213283
5.125827814569536,2.226000732156627
5.14569536423841,2.2197454788717987
5.1655629139072845,2.212752748262896
5.185430463576159,2.205043515795537
5.205298013245033,2.19664108192013
5.225165562913908,2.1875710667409423
5.245033112582782,2.177861402458663
5.264900662251656,2.167542323039007
5.28476821192053,2.1566463504769824
5.304635761589404,2.145208276936654
5.324503311258278,2.1332651419485567
5.344370860927152,2.120856203743335
5.364238410596027,2.108022903690417
5.3841059602649,2.0948088226970785
5.403973509933775,2.0812596283079503
5.4238410596026485,2.067423011131291
5.443708609271523,2.053348609110206
5.463576158940397,2.0390879180593675
5.483443708609272,2.024694186807713
5.503311258278146,2.0102222952320106
5.52317880794702,1.9957286134443948
5.543046357615895,1.981270840418871
5.562913907284768,1.9669078204184658
5.582781456953643,1.9526993357278244
5.602649006622516,1.9387058744168502
5.622516556291391,1.9249883721713295
5.642384105960264,1.911607927634781
5.662251655629139,1.8986254912196239
5.682119205298013,1.8861015279669529
5.701986754966887,1.874095655760907
5.7218543046357615,1.8626662610249076
5.741721854304636,1.8518700949272933
5.7615894039735105,1.8417618540744904
5.781456953642384,1.8323937506377797
5.801324503311259,1.8238150777993034
5.821192052980132,1.8160717772649524
5.841059602649007,1.8092060163195198
5.860927152317881,1.8032557824381523
5.880794701986755,1.7982545037637654
5.900662251655629,1.7942307037684178
5.920529801324503,1.7912076981064975
5.940397350993377,1.789203341023877
5.960264900662251,1.7882298277175026
5.980132450331126,1.7882935577713979
6.0,1.7893950632794104
6.0198675496688745,1.7915290035693077
6.039735099337749,1.7946842266513314
6.059602649006623,1.7988438957171735
6.079470198675497,1.8039856773024074
6.099337748344371,1.8100819861831885
6.119205298013245,1.8171002807746008
6.139072847682119,1.8250034017884098
6.158940397350993,1.8337499462213953
6.178807947019867,1.843294668392612
6.198675496688741,1.8535888997156627
6.218543046357616,1.864580979152251
6.23841059602649,1.8762166868012686
6.258278145695365,1.8884396737824907
6.2781456953642385,1.9011918824192144
6.298013245033113,1.9144139516543113
6.317880794701987,1.928045603598077
6.337748344370861,1.942026008059279
6.357615894039735,1.9562941228159931
6.377483443708609,1.9707890082141404
6.397350993377484,1.9854501154185806
6.417218543046357,2.000217548275927
6.437086092715232,2.0150322992743144
6.456953642384105,2.0298364605064174
6.47682119205298,2.044573410864161
6.496688741721854,2.059187980925099
6.516556291390729,2.073626597143293
6.5364238410596025,2.087837407042244
6.556291390728477,2.1017703871366193
6.5761589403973515,2.115377435293021
6.596026490066225,2.128612449189593
6.6158940397351,2.1414313924570183
6.635761589403973,2.1537923499889913
6.655629139072848,2.1656555738036483
6.675496688741721,2.1769835207250128
6.695364238410596,2.187740883038656
6.715231788079469,2.1978946131629193
6.735099337748344,2.20741394326688
6.754966887417219,2.2162704006623795
6.774834437086093,2.2244378196993932
6.794701986754967,2.231892350803391
6.814569536423841,2.2386124672099235
6.8344370860927155,2.244578969875445
6.854304635761589,2.2497749909745184
6.874172185430464,2.2541859963304764
6.894039735099337,2.2577997870704913
6.913907284768212,2.2606065007445775
6.933774834437086,2.262598612101162
6.95364238410596,2.263770933669655
6.973509933774834,2.2641206162605014
6.993377483443709,2.263647149456304
7.013245033112583,2.2623523621319825
7.033112582781457,2.260240423007488
7.052980132450331,2.2573178412018624
7.072847682119205,2.253593466722468
7.0927152317880795,2.249078490786639
7.112582781456954,2.2437864458340044
7.132450331125828,2.2377332050464096
7.152317880794702,2.2309369811466264
7.172185430463576,2.2234183241975485
7.19205298013245,2.2152001180683407
7.211920529801324,2.2063075751736987
7.231788079470198,2.196768229024999
7.251655629139073,2.186611924058548
7.271523178807947,2.1758708021251105
7.291390728476822,2.1645792849366736
7.311258278145695,2.152774051671287
7.33112582781457,2.1404940108348804
7.3509933774834435,2.127780265371724
7.370860927152318,2.1146760699037337
7.390728476821192,2.1012267788654033
7.410596026490066,2.0874797841891763
7.430463576158941,2.073484441088756
7.450331125827814,2.0592919803907783
7.470198675496689,2.0449554057843016
7.490066225165562,2.0305293742999835
7.509933774834438,2.0160700583052327
7.52980132450331,2.001634987317882
7.549668874172186,1.9872828680092793
7.569536423841059,1.9730733809000667
7.589403973509934,1.959066952458898
7.6092715231788075,1.9453245016077472
7.629139072847682,1.9319071600259645
7.649006622516557,1.9188759661361252
7.66887417218543,1.9062915332513863
7.6887417218543055,1.8942136930639408
7.708609271523178,1.8827011164497611
7.728476821192054,1.871810914439527
7.748344370860927,1.861598223135445
7.768211920529802,1.8521157773053607
7.788079470198675,1.8434134783176073
7.80794701986755,1.835537962943743
7.827814569536423,1.8285321802983996
7.847682119205298,1.8224349847509371
7.8675496688741715,1.8172807529793875
7.887417218543046,1.8130990333991535
7.907284768211921,1.8099142359520544
7.927152317880795,1.8077453696699353
7.9470198675496695,1.8066058345324227
7.966887417218543,1.8065032729448844
7.986754966887418,1.8074394847150477
8.006622516556291,1.809410407768771
8.026490066225167,1.8124061650961225
8.046357615894038,1.8164111766452158
8.066225165562914,1.821404333172925
8.086092715231787,1.8273592275022248
8.105960264900663,1.8342444372984044
8.125827814569536,1.8420238524159105
8.14569536423841,1.8506570391194888
8.165562913907285,1.8600996330609467
8.185430463576159,1.8703037527901807
8.205298013245034,1.881218425769363
8.225165562913906,1.8927900193046459
8.245033112582782,1.9049626694599306
8.264900662251655,1.9176787018186603
8.28476821192053,1.9308790388576562
8.304635761589404,1.94450358964024
8.324503311258278,1.958491618478424
8.344370860927151,1.9727820901192963
8.364238410596027,1.9873139898481635
8.3841059602649,2.002026617652333
8.403973509933774,2.0168598562401194
8.42384105960265,2.0317544132564107
8.443708609271523,2.0466520384785345
8.463576158940398,2.0614957171191803
8.483443708609272,2.0762298406158197
8.503311258278146,2.09080035645736
8.52317880794702,2.105154898701162
8.543046357615895,2.1192429008770906
8.562913907284768,2.133015692972193
8.582781456953642,2.1464265841489953
8.602649006622515,2.1594309327823265
8.62251655629139,2.1719862053113173
8.642384105960264,2.184052025301843
8.66225165562914,2.1955902140056685
8.682119205298013,2.2065648235903184
8.701986754966887,2.2169421641017943
8.721854304635762,2.226690825113095
8.741721854304636,2.2357816929072984
8.76158940397351,2.2441879639455284
8.781456953642383,2.251885155278453
8.801324503311259,2.2588511124757087
8.821192052980132,2.2650660155698383
8.841059602649008,2.2705123834411127
8.86092715231788,2.275175077005745
8.880794701986755,2.2790413015114397
8.90066225165563,2.2821006081925654
8.920529801324504,2.284344895488421
8.940397350993377,2.285768409985119
8.960264900662251,2.2863677472004214
8.980132450331126,2.2861418522932637
9.0,2.2850920207432757
9.019867549668875,2.2832218990105444
9.039735099337747,2.2805374851508633
9.059602649006623,2.2770471293263013
9.079470198675496,2.272761534114321
9.099337748344372,2.267693754479993
9.119205298013245,2.261859197234416
9.139072847682119,2.255275619757619
9.158940397350994,2.247963127715142
9.178807947019868,2.2399441714434913
9.198675496688743,2.2312435406202242
9.218543046357615,2.2218883567687744
9.23841059602649,2.2119080630760584
9.258278145695364,2.2013344109217314
9.27814569536424,2.1902014424323095
9.298013245033111,2.1785454682800522
9.317880794701987,2.1664050398475774
9.33774834437086,2.1538209147745793
9.357615894039736,2.140836014793896
9.37748344370861,2.1274953746539085
9.397350993377483,2.1138460808143096
9.417218543046358,2.099937198496996
9.437086092715232,2.085819685578178
9.456953642384107,2.0715462917270475
9.47682119205298,2.057171441137751
9.496688741721854,2.042751097173303
9.516556291390728,2.0283426072515014
9.536423841059603,2.014004526363967
9.556291390728477,1.9997964177417271
9.57615894039735,1.9857786293741142
9.596026490066224,1.9720120453643393
9.6158940397351,1.958557811472777
9.635761589403973,1.9454770346659669
9.655629139072847,1.93283045705868
9.675496688741722,1.9206781053069124
9.695364238410596,1.9090789172748062
9.715231788079471,1.8980903486431215
9.735099337748345,1.8877679630293327
9.754966887417218,1.8781650101187122
9.774834437086092,1.8693319972224822
9.794701986754967,1.8613162605382563
9.814569536423841,1.8541615431368277
9.834437086092716,1.8479075872865376
9.854304635761588,1.8425897490985776
9.874172185430464,1.838238643589875
9.894039735099337,1.8348798280781913
9.913907284768213,1.832533531328275
9.933774834437086,1.831214435055922
9.95364238410596,1.8309315132876647
9.973509933774835,1.83168793370669
9.993377483443709,1.833481023549369
10.013245033112582,1.8363023009245745
10.033112582781456,1.8401375706921137
10.052980132450331,1.8449670823461146
10.072847682119205,1.8507657457840767
10.09271523178808,1.8575033994783288
10.112582781456952,1.8651451244603985
10.132450331125828,1.8736515967195735
10.152317880794701,1.8829794701231313
10.172185430463577,1.8930817817861916
10.192052980132452,1.9039083719318395
10.211920529801324,1.9154063106548753
10.2317880794702,1.927520324587157
10.251655629139073,1.9401932172090812
10.271523178807948,1.9533662774073208
10.29139072847682,1.9669796717913657
10.311258278145695,1.9809728172063252
10.331125827814569,1.99528473077717
10.350993377483444,2.00985435566004
10.370860927152318,2.024620861437103
10.390728476821192,2.039523918758419
10.410596026490065,2.0545039484006455
10.43046357615894,2.0695023453770385
10.450331125827816,2.084461679099202
10.470198675496688,2.09932587086621
10.490066225165563,2.11404035015014
10.509933774834437,2.128552191268674
10.529801324503312,2.142810232097095
10.549668874172186,2.1567651764840208
10.56953642384106,2.170369682008191
10.589403973509933,2.1835784346556326
10.609271523178808,2.1963482119174023
10.629139072847682,2.2086379357133503
10.649006622516556,2.220408716443255
10.66887417218543,2.231623889358005
10.688741721854305,2.242249044334245
10.70860927152318,2.2522520500275105
10.728476821192054,2.2616030732758077
10.748344370860927,2.2702745945264127
