Time (s),Filtered Signal
0.0,-0.006129322240860205
0.033370165745856356,0.1448123113444194
0.06674033149171271,0.27260435922133297
0.10011049723756907,0.35967824298687495
0.13348066298342542,0.39728907307475936
0.16685082872928178,0.38669932627110265
0.20022099447513814,0.33792102822853726
0.2335911602209945,0.2666447238591733
0.26696132596685085,0.19024738501805846
0.30033149171270723,0.12378174241176833
0.33370165745856356,0.07679423097208485
0.3670718232044199,0.051719398367841
0.4004419889502763,0.044313747787142026
0.43381215469613266,0.0460223421916967
0.467182320441989,0.047455789739026824
0.5005524861878453,0.04165802472439316
0.5339226519337017,0.025919364124691965
0.5672928176795581,0.0015886476116842724
0.6006629834254145,-0.027684621631227556
0.6340331491712707,-0.05815133412325412
0.6674033149171271,-0.08746532055928458
0.7007734806629835,-0.11496577751939384
0.7341436464088398,-0.14100746998081032
0.7675138121546962,-0.166024732568155
0.8008839779005525,-0.18985607997841342
0.8342541436464089,-0.2113903982870875
0.8676243093922653,-0.22831284857228615
0.9009944751381216,-0.2368932255538845
0.934364640883978,-0.23217009223597285
0.9677348066298344,-0.20905096363929446
1.0011049723756906,-0.16443703411618027
1.0344751381215471,-0.09964198395087791
1.0678453038674034,-0.021696297840486288
1.1012154696132597,0.057765331783553864
1.1345856353591162,0.1262578685265009
1.1679558011049724,0.17548431603866663
1.201325966850829,0.20515003860880146
1.2346961325966852,0.22318346909237208
1.2680662983425415,0.24162314006492452
1.301436464088398,0.26981708236591795
1.3348066298342542,0.3083635887825613
1.3681767955801105,0.3472133427587118
1.401546961325967,0.3693450908362146
1.4349171270718233,0.35844591431357564
1.4682872928176796,0.30678202759126383
1.501657458563536,0.21929069524894187
1.5350276243093923,0.11198568788131068
1.5683977900552488,0.0058219248241815295
1.601767955801105,-0.08062588361785575
1.6351381215469614,-0.13621631962065284
1.6685082872928179,-0.15844181371383115
1.7018784530386741,-0.15161537004326195
1.7352486187845306,-0.12420978775387922
1.768618784530387,-0.08705279075653186
1.8019889502762432,-0.052503978931626984
1.8353591160220997,-0.03346362839926779
1.868729281767956,-0.041114142778908576
1.9020994475138122,-0.08155995708267555
1.9354696132596687,-0.15292414215233963
1.968839779005525,-0.24480545185797004
2.0022099447513813,-0.34093833213514874
2.0355801104972375,-0.42412781379492204
2.0689502762430942,-0.48125474818682995
2.1023204419889505,-0.5061971477959555
2.135690607734807,-0.4998027198093066
2.169060773480663,-0.46768714938913813
2.2024309392265193,-0.41756603130502673
2.235801104972376,-0.35752426731306375
2.2691712707182323,-0.29540373417286625
2.3025414364640886,-0.2382988262981953
2.335911602209945,-0.19094535272545976
2.369281767955801,-0.15286467365229184
2.402651933701658,-0.11583085156545894
2.436022099447514,-0.0642853563829934
2.4693922651933704,0.019396687297904103
2.5027624309392267,0.14554018278274133
2.536132596685083,0.3078546466338156
2.5695027624309392,0.48031632115993045
2.602872928176796,0.6250187322396598
2.636243093922652,0.710618961614938
2.6696132596685085,0.7340704408407718
2.7029834254143648,0.7334323315682956
2.736353591160221,0.7804751221715569
2.7697237569060777,0.9499078990078448
2.803093922651934,1.2746732561337126
2.8364640883977903,1.7077144791200298
2.8698342541436466,2.113018585383492
2.903204419889503,2.2989482853284744
2.936574585635359,2.0875577313538836
2.969944751381216,1.3935995476673124
3.003314917127072,0.2773650246187132
3.0366850828729284,-1.0565927970015776
3.0700552486187846,-2.31944303410593
3.103425414364641,-3.2337756291521433
3.1367955801104976,-3.6248406900794357
3.170165745856354,-3.4697268988388856
3.20353591160221,-2.887515217268388
3.2369060773480665,-2.0806088013129496
3.2702762430939227,-1.2569927897344144
3.3036464088397794,-0.5665541413709002
3.3370165745856357,-0.0726904291740225
3.370386740331492,0.23843221572788387
3.4037569060773483,0.42440350540920263
3.4371270718232045,0.5486133783272974
3.4704972375690613,0.6538686078738535
3.5038674033149175,0.7541469783364894
3.537237569060774,0.841508147510763
3.57060773480663,0.8998206481186587
3.6039779005524863,0.9169664357140958
3.6373480662983426,0.890889932975745
3.6707182320441993,0.8293092381572019
3.7040883977900556,0.7456863973070302
3.737458563535912,0.6544303848182162
3.770828729281768,0.5671448576382079
3.8041988950276244,0.4904396803606256
3.837569060773481,0.4252345180333175
3.8709392265193374,0.3674871139781347
3.9043093922651937,0.3102890060647483
3.93767955801105,0.24691342792757023
3.9710497237569062,0.1738315562030224
4.0044198895027625,0.09241949745768309
4.037790055248619,0.008439128606934526
4.071160220994475,-0.07064466040950332
4.104530386740332,-0.13931555319615613
4.1379005524861885,-0.19678742227626175
4.171270718232044,-0.2473623809941764
4.204640883977901,-0.2979794723573124
4.238011049723757,-0.354057604725266
4.271381215469614,-0.4157459290975921
4.30475138121547,-0.4766232378682033
4.338121546961326,-0.5256972023193012
4.371491712707183,-0.5518351593767494
4.404861878453039,-0.5484364992317442
4.438232044198895,-0.5159889885357782
4.471602209944752,-0.4612823537689428
4.504972375690608,-0.3938828085309005
4.538342541436465,-0.3219485864004832
4.5717127071823205,-0.24969273579340628
4.605082872928177,-0.17762792348199088
4.638453038674034,-0.1049102432467805
4.67182320441989,-0.03182361349672782
4.7051933701657465,0.03945339403959764
4.738563535911602,0.10627083463301926
4.771933701657459,0.16787873281775062
4.805303867403316,0.22664712597380005
4.8386740331491715,0.28667285076284815
4.872044198895028,0.35010974324913124
4.905414364640884,0.4133958064913404
4.938784530386741,0.46618346238306346
4.972154696132597,0.4946161000962512
5.005524861878453,0.4881175661880666
5.03889502762431,0.44643227522259404
5.072265193370166,0.38278400151863157
5.105635359116023,0.32049032216990025
5.1390055248618784,0.28366778315213537
5.172375690607735,0.28611504887677486
5.205745856353592,0.324057468310249
5.239116022099448,0.376986174367317
5.272486187845304,0.41678092552295415
5.30585635359116,0.4207111415006443
5.339226519337017,0.381390439544804
5.372596685082874,0.3080450549401093
5.4059668508287295,0.21822183022106006
5.439337016574586,0.12483154867292816
5.472707182320442,0.026765388714199714
5.506077348066299,-0.0901750417326717
5.5394475138121555,-0.24136142668160357
5.572817679558011,-0.4272163666057992
5.606187845303868,-0.6239451888149702
5.639558011049724,-0.7899662906315366
5.672928176795581,-0.8883120345869596
5.706298342541437,-0.9144491811945014
5.739668508287293,-0.9122246992942914
5.77303867403315,-0.9631735949981192
5.806408839779006,-1.1469135479746315
5.839779005524862,-1.4875566018424047
5.873149171270718,-1.9136827796184337
5.906519337016575,-2.258814991258354
5.939889502762432,-2.312926083639739
5.9732596685082875,-1.9095889670201298
6.006629834254144,-1.011122724727023
6.04,0.25108911833131564
6.073370165745857,1.6064896967131457
6.1067403314917135,2.737794350974032
6.140110497237569,3.3966955939167987
6.173480662983426,3.4908498249531186
6.206850828729282,3.1039192351270812
6.240220994475139,2.4432613916835524
6.273591160220995,1.7439946547658844
6.306961325966851,1.1760219295935523
6.340331491712708,0.7944133341601529
6.373701657458564,0.5486753328981816
6.40707182320442,0.3371360564719332
6.440441988950277,0.07377765028446122
6.473812154696133,-0.2658665622080483
6.50718232044199,-0.6379015598407553
6.5405524861878455,-0.9590591768519117
6.573922651933702,-1.1518090919244472
6.607292817679559,-1.1815569058861093
6.640662983425415,-1.069579034112334
6.674033149171271,-0.8793385327654593
6.707403314917127,-0.6864365565822558
6.740773480662984,-0.5480611342495142
6.774143646408841,-0.48514248424545714
6.8075138121546965,-0.48237615435607045
6.840883977900553,-0.5026103799755527
6.874254143646409,-0.5068122075708866
6.907624309392266,-0.47044451414612554
6.9409944751381225,-0.3905686511944306
6.974364640883978,-0.2829232408799006
7.007734806629835,-0.17228104031216152
7.041104972375691,-0.08122201780263666
7.074475138121548,-0.021946769262464645
7.107845303867403,0.0063689685509116965
7.14121546961326,0.01478583226769711
7.174585635359117,0.01852410847152872
7.207955801104973,0.030561712369246697
7.241325966850829,0.05737699151128886
7.274696132596685,0.09794224322579906
7.308066298342542,0.1455709113807043
7.341436464088399,0.19124873618770033
7.3748066298342545,0.22692693316554313
7.408176795580111,0.24775138277976214
7.441546961325967,0.25290466172752657
7.474917127071824,0.24525306627570237
7.5082872928176805,0.2301814935006163
7.541657458563536,0.21397826652594149
7.575027624309393,0.20209333005306382
7.608397790055249,0.19762939464284862
7.641767955801106,0.20046844980879053
7.675138121546962,0.20734672683794428
7.708508287292818,0.21291077196858146
7.741878453038675,0.21141780952187797
7.775248618784531,0.19849099495989764
7.808618784530387,0.17236087685948023
7.841988950276244,0.13429454801432647
7.8753591160221,0.08823706135725673
7.908729281767957,0.03985986338825038
7.9420994475138125,-0.004797404616632843
7.975469613259669,-0.04091666206484389
8.008839779005525,-0.06638972561199417
8.042209944751383,-0.08261667483835056
8.075580110497238,-0.09398810641549496
8.108950276243094,-0.10587339009495633
8.14232044198895,-0.12176701469932888
8.175690607734808,-0.14095525144636767
8.209060773480664,-0.15809782576114284
8.24243093922652,-0.16529601150993517
8.275801104972377,-0.1559178131937289
8.309171270718233,-0.12839687949939027
8.342541436464089,-0.08804736661618068
8.375911602209946,-0.0458000029524481
8.409281767955802,-0.014239716782030626
8.442651933701658,-0.002636953977175679
8.476022099447514,-0.01313393059296229
8.509392265193371,-0.039676863114692325
8.542762430939227,-0.07004125761185187
8.576132596685083,-0.09004289406212407
8.60950276243094,-0.08831836009875878
8.642872928176796,-0.06007760882188115
8.676243093922652,-0.008789564037284233
8.709613259668508,0.05449652087366549
8.742983425414366,0.11387045902502631
8.776353591160222,0.15262239485419432
8.809723756906077,0.15776111456023195
8.843093922651935,0.12398377373773412
8.87646408839779,0.05600795844263597
8.909834254143647,-0.031711481530252474
8.943204419889504,-0.11831523631289935
8.97657458563536,-0.18233252469600447
9.009944751381216,-0.2081859989503038
9.043314917127072,-0.19101749891103217
9.07668508287293,-0.13786512860540615
9.110055248618785,-0.06469814703119658
9.143425414364641,0.009349610986859614
9.176795580110499,0.06802908605360343
9.210165745856354,0.10194231714376792
9.24353591160221,0.10939771300078151
9.276906077348068,0.0947645910973413
9.310276243093924,0.06587275293417681
9.34364640883978,0.03180695293527092
9.377016574585635,0.0015048763748750455
9.410386740331493,-0.01728649523922429
9.443756906077349,-0.01927703654883794
9.477127071823205,-0.0031232374084077287
9.510497237569062,0.02758695194817019
9.543867403314918,0.06479665405744255
9.577237569060774,0.09826165033532917
9.610607734806631,0.11898378462725545
9.643977900552487,0.1223065017786397
9.677348066298343,0.10916884473801555
9.710718232044199,0.08490540557854591
9.744088397790057,0.056291324365340296
9.777458563535912,0.028488122907079638
9.810828729281768,0.003562015891807691
9.844198895027626,-0.01871601856123038
9.877569060773482,-0.03848155200579267
9.910939226519337,-0.0535212573986957
9.944309392265193,-0.05889278282415272
9.97767955801105,-0.04909255873885072
10.011049723756907,-0.021842637797255753
10.044419889502763,0.01865012713012299
10.07779005524862,0.06117905367258708
10.111160220994476,0.0907422644048719
10.144530386740332,0.09446483696194778
10.17790055248619,0.06757053523484303
10.211270718232045,0.016356931448834686
10.244640883977901,-0.04362499737734331
10.278011049723757,-0.0936706217268804
10.311381215469615,-0.11960606973955742
10.34475138121547,-0.1175073866447113
10.378121546961326,-0.09484465395727286
10.411491712707184,-0.06665506994861457
10.44486187845304,-0.04865488285298076
10.478232044198895,-0.05046626363569843
10.511602209944753,-0.07186950591030622
10.544972375690609,-0.10347068132164634
10.578342541436465,-0.13117562998411342
10.61171270718232,-0.14226514929147224
10.645082872928178,-0.13033227390214652
10.678453038674034,-0.09706561498503749
10.71182320441989,-0.05046961706245318
10.745193370165747,-0.0008010033974528484
10.778563535911603,0.043571430143602194
10.811933701657459,0.07844257086328423
10.845303867403315,0.10348485033978629
10.878674033149172,0.1201760087447565
10.912044198895028,0.12956857212546682
10.945414364640884,0.13131532865322837
10.978784530386742,0.12432269782434067
11.012154696132598,0.10828035726795812
11.045524861878453,0.08484499577139475
11.078895027624311,0.05765664852783936
11.112265193370167,0.031238557693798658
11.145635359116023,0.009516957403217136
11.179005524861878,-0.00521911851223351
11.212375690607736,-0.012535880461742636
11.245745856353592,-0.013409206682174248
11.279116022099448,-0.009537842104708122
11.312486187845305,-0.0027547034686351383
11.345856353591161,0.005349606788350704
11.379226519337017,0.013614529949052077
11.412596685082875,0.021328172796450214
11.44596685082873,0.028057894130915008
11.479337016574586,0.03331080210839105
11.512707182320442,0.036159156849650896
11.5460773480663,0.03507655286933722
11.579447513812156,0.028230232440124035
11.612817679558011,0.014301856678191636
11.646187845303869,-0.006403702960572863
11.679558011049725,-0.03110472179295546
11.71292817679558,-0.05456869637952764
11.746298342541436,-0.07036886939460561
11.779668508287294,-0.07316014558424501
11.81303867403315,-0.061174756956741884
11.846408839779006,-0.03783410365461874
11.879779005524863,-0.01154516401349362
11.91314917127072,0.0066209401844677255
11.946519337016575,0.00680015300684274
11.979889502762433,-0.015586450787144853
12.013259668508288,-0.05721842306245513
12.046629834254144,-0.10704147889027227
12.08,-0.1495115029675061
12.113370165745858,-0.16988925211377662
12.146740331491714,-0.15952555985848324
12.18011049723757,-0.11891584871435366
12.213480662983427,-0.05721482393464231
12.246850828729283,0.0114846162519673
12.280220994475139,0.07330270884164745
12.313591160220996,0.11877510833469498
12.346961325966852,0.1444089433355866
12.380331491712708,0.15144438041519467
12.413701657458564,0.14318274515961002
12.447071823204421,0.12282082806067644
12.480441988950277,0.09305850584692892
12.513812154696133,0.057297581125082916
12.54718232044199,0.021006479615635856
12.580552486187846,-0.008363641639478461
12.613922651933702,-0.023520467008306394
12.64729281767956,-0.020608133408108485
12.680662983425416,-0.001677422189298235
12.714033149171271,0.025390864374429344
12.747403314917127,0.049885164214437255
12.780773480662985,0.06284642129331096
12.81414364640884,0.06087996567097891
12.847513812154697,0.047169129218612854
12.880883977900554,0.029187211432753553
12.91425414364641,0.014448054260794254
12.947624309392266,0.006705972028545432
12.980994475138122,0.004660814213723276
13.01436464088398,0.0036556968570039
13.047734806629835,-0.0009504188617431047
13.081104972375691,-0.010961741930483134
13.114475138121549,-0.024764636744132006
13.147845303867404,-0.039092287440924425
13.18121546961326,-0.05168746175727708
13.214585635359118,-0.06290383408709868
13.247955801104974,-0.07510320264411502
13.28132596685083,-0.09026768149925661
13.314696132596685,-0.10751408025759278
13.348066298342543,-0.1223458483453496
13.381436464088399,-0.12839666958883286
13.414806629834255,-0.12078499247363009
13.448176795580112,-0.09906564340294365
13.481546961325968,-0.0679000694518385
13.514917127071824,-0.0349245360670346
13.548287292817681,-0.007012831050071488
13.581657458563537,0.01290548051339288
13.615027624309393,0.026702406628956104
13.648397790055249,0.039260806655434036
13.681767955801106,0.055243162932712045
13.715138121546962,0.07630484648871956
13.748508287292818,0.1001606257702668
13.781878453038676,0.12172874907997389
13.815248618784532,0.13547051587384967
13.848618784530387,0.13760277276702246
13.881988950276245,0.12718646235438577
13.9153591160221,0.10585909021328194
13.948729281767957,0.07669457470778818
13.982099447513813,0.04297563323149452
14.01546961325967,0.007483580346854546
14.048839779005526,-0.027533727162680745
14.082209944751382,-0.059945245087630994
14.11558011049724,-0.08725009775215506
14.148950276243095,-0.10634041380030147
14.182320441988951,-0.11370421686962964
14.215690607734807,-0.10613500315849597
14.249060773480664,-0.08186450942584698
14.28243093922652,-0.0418244359528812
14.315801104972376,0.009466351307783649
14.349171270718234,0.06395662251698547
14.38254143646409,0.11142028989353549
14.415911602209945,0.14199080317253432
14.449281767955803,0.14913801413528874
14.482651933701659,0.1319208427576944
14.516022099447515,0.09540242559609063
14.54939226519337,0.04877279275268197
14.582762430939228,0.001773627500695136
14.616132596685084,-0.03904342231650141
14.64950276243094,-0.07241743533787097
14.682872928176797,-0.10168361419230977
14.716243093922653,-0.13148706965366408
14.749613259668509,-0.1635102356694089
14.782983425414367,-0.19349983052466996
14.816353591160222,-0.21140648986309973
14.849723756906078,-0.20499184123176079
14.883093922651934,-0.1655117137701299
14.916464088397792,-0.09291573154954172
14.949834254143648,0.001989353920310684
14.983204419889503,0.09973498570803264
15.016574585635361,0.17814312888931874
15.049944751381217,0.21970106806956208
15.083314917127073,0.21732407205536847
15.116685082872928,0.17617409777308426
15.150055248618786,0.11097839592469401
15.183425414364642,0.04025940423885499
15.216795580110498,-0.019912282555837123
15.250165745856355,-0.06011952599743235
15.283535911602211,-0.07845441512902682
15.316906077348067,-0.07839042280925938
15.350276243093925,-0.0653144518637313
15.38364640883978,-0.04371185947706298
15.417016574585636,-0.01634142097640865
15.450386740331492,0.01454764352193838
15.48375690607735,0.04516957278809792
15.517127071823205,0.069124177119005
15.550497237569061,0.07860646919384644
15.583867403314919,0.06782960297494556
15.617237569060775,0.03699783250354459
15.65060773480663,-0.0056347983911388694
15.683977900552488,-0.045444780784307436
15.717348066298344,-0.06678745376908439
15.7507182320442,-0.05980699986566901
15.784088397790056,-0.025392846282960027
15.817458563535913,0.02438225067832085
15.85082872928177,0.07085987158831171
15.884198895027625,0.09643189759525414
15.917569060773483,0.09169811485737123
15.950939226519338,0.05892329687505512
15.984309392265194,0.010472304046497563
16.01767955801105,-0.036692179170797146
16.051049723756908,-0.06775419015146107
16.084419889502765,-0.07522248453580199
16.11779005524862,-0.06087063758487021
16.151160220994477,-0.03429168203276564
16.18453038674033,-0.009032570804834899
16.21790055248619,0.002279793893080038
16.251270718232046,-0.007592644116616814
16.2846408839779,-0.037686908812642354
16.318011049723758,-0.078637211205026
16.351381215469615,-0.11544638915345402
16.38475138121547,-0.13266066965103285
16.418121546961327,-0.12035394385721919
16.451491712707185,-0.0786784119308811
16.48486187845304,-0.018890663431513823
16.518232044198896,0.04013535307623235
16.551602209944754,0.0791042913834509
16.584972375690608,0.08657836499299834
16.618342541436466,0.06473707225318409
16.651712707182323,0.029584086260591686
16.685082872928177,0.004747712846529558
16.718453038674035,0.01100866338431998
16.751823204419892,0.05605415264022349
16.785193370165747,0.12935556829449163
16.818563535911604,0.20504020680341425
16.851933701657458,0.2519875332250772
16.885303867403316,0.24687516226850797
16.918674033149173,0.18431386483667725
16.952044198895027,0.07941228878438225
16.985414364640885,-0.03841862524026535
17.018784530386743,-0.13753514572171766
17.052154696132597,-0.19642087629431168
17.085524861878454,-0.21076434594300653
17.118895027624312,-0.19238676226743062
