Time (s),Filtered Signal
0.0,-0.02301035968878624
0.03337000366703337,0.03247710767322443
0.06674000733406674,0.09318356201529081
0.1001100110011001,0.1616563285662599
0.13348001466813347,0.23603124309927898
0.16685001833516683,0.31024168235097543
0.2002200220022002,0.3757706216623816
0.2335900256692336,0.4238850397619443
0.26696002933626695,0.4473088517873127
0.3003300330033003,0.4409544814145131
0.33370003667033366,0.4021273723680785
0.36707004033736707,0.3309398372267949
0.4004400440044004,0.23126656062883824
0.4338100476714338,0.11174402327788839
0.4671800513384672,-0.01427357376309038
0.5005500550055005,-0.13068331915847056
0.5339200586725339,-0.22240444670514253
0.5672900623395672,-0.27964602256654214
0.6006600660066006,-0.3008488512597638
0.634030069673634,-0.29305226261654643
0.6674000733406673,-0.2697261370927507
0.7007700770077008,-0.2471781255144017
0.7341400806747341,-0.24075034807874005
0.7675100843417675,-0.26126478952910787
0.8008800880088008,-0.31147565840692537
0.8342500916758342,-0.38257798579621854
0.8676200953428675,-0.45215292801704193
0.9009900990099009,-0.486187695152706
0.9343601026769344,-0.4474186913400188
0.9677301063439677,-0.30946325894059473
1.001100110011001,-0.07205209160505377
1.0344701136780343,0.2302887027411374
1.0678401173450678,0.5329369989416782
1.1012101210121013,0.7607661842843274
1.1345801246791345,0.8564457304596818
1.167950128346168,0.8053247498041907
1.2013201320132012,0.6443701286889741
1.2346901356802347,0.4488468863148723
1.268060139347268,0.30073206463169583
1.3014301430143014,0.2522453971962036
1.3348001466813346,0.30141453521742667
1.368170150348368,0.3919686020280113
1.4015401540154016,0.43879969311911804
1.4349101576824348,0.36792646739945484
1.4682801613494683,0.1525086461525156
1.5016501650165015,-0.1720808295109606
1.535020168683535,-0.5213833521310133
1.5683901723505682,-0.7972593051474922
1.6017601760176017,-0.9294637522681295
1.6351301796846351,-0.9047278411447502
1.6685001833516684,-0.7704997709263254
1.7018701870187019,-0.6117814284840898
1.735240190685735,-0.5113713828458925
1.7686101943527686,-0.5113926562005098
1.8019801980198018,-0.5938884125876207
1.8353502016868353,-0.6900066928418377
1.8687202053538687,-0.7139840603026655
1.902090209020902,-0.6058189545091508
1.9354602126879354,-0.3615409297482069
1.9688302163549687,-0.035505951373083884
2.002200220022002,0.2869853114028778
2.0355702236890356,0.5330473932336776
2.0689402273560686,0.678971768193644
2.102310231023102,0.7604852845847759
2.1356802346901356,0.8499516995010737
2.169050238357169,1.0113993935900696
2.2024202420242025,1.2566962738870313
2.2357902456912355,1.526797951242629
2.269160249358269,1.709952553026812
2.3025302530253025,1.689952630837078
2.335900256692336,1.4016817115959457
2.369270260359369,0.8667398656065332
2.4026402640264024,0.19143044912462923
2.436010267693436,-0.4720114888033902
2.4693802713604693,-0.9822227636947624
2.502750275027503,-1.2571600114181058
2.536120278694536,-1.2939388481824998
2.5694902823615693,-1.1555013853004252
2.6028602860286028,-0.9355111636462007
2.636230289695636,-0.7206410244059896
2.6696002933626692,-0.5662838302630628
2.7029702970297027,-0.49151311156469074
2.736340300696736,-0.48878153420928694
2.7697103043637696,-0.5386703518869531
2.803080308030803,-0.6210353346442045
2.836450311697836,-0.7186097645137731
2.8698203153648696,-0.8140638834619481
2.903190319031903,-0.8845325092763964
2.9365603226989365,-0.8983775824640443
2.96993032636597,-0.8180192334639875
3.003300330033003,-0.6104295410920102
3.0366703337000365,-0.26337304532936756
3.07004033736707,0.19873426627937701
3.1034103410341034,0.70841550781287
3.1367803447011364,1.1660709698838063
3.17015034836817,1.4694101016386512
3.2035203520352034,1.552318030659143
3.236890355702237,1.4160273895509343
3.2702603593692703,1.135396266916426
3.3036303630363033,0.8329475003828396
3.3370003667033368,0.6290219099868587
3.3703703703703702,0.5896656805234278
3.4037403740374037,0.6969616795637654
3.4371103777044367,0.8569024226768859
3.47048038137147,0.9420524922669381
3.5038503850385037,0.8493157752893498
3.537220388705537,0.5459300444409212
3.5705903923725706,0.08300387350121857
3.6039603960396036,-0.4279717488526749
3.637330399706637,-0.8627045933061858
3.6707004033736705,-1.1328003260139543
3.704070407040704,-1.214401413497149
3.7374404107077375,-1.1471429447580939
3.7708104143747705,-1.008297903668414
3.804180418041804,-0.8769970001737355
3.8375504217088374,-0.8048743000325878
3.870920425375871,-0.8033170165168004
3.904290429042904,-0.848243279659306
3.9376604327099374,-0.8961059635774564
3.971030436376971,-0.9024431020779448
4.004400440044004,-0.8363019149446126
4.037770443711038,-0.687632288814036
4.071140447378071,-0.4676854544072974
4.104510451045105,-0.20366804259809113
4.137880454712137,0.07074596906363391
4.171250458379171,0.3267035779316448
4.204620462046204,0.5496661663428263
4.237990465713238,0.7429868429079487
4.271360469380271,0.9230326002644714
4.304730473047305,1.1069999194069031
4.338100476714338,1.2985954885107716
4.3714704803813715,1.4786830911828
4.404840484048405,1.6064207455254609
4.438210487715438,1.631871344340929
4.471580491382471,1.5156838159719286
4.5049504950495045,1.2476905208462246
4.538320498716538,0.8558800752843319
4.571690502383571,0.40062868275810426
4.605060506050605,-0.044688484276726385
4.638430509717638,-0.4189549727782802
4.671800513384672,-0.69296925379151
4.705170517051705,-0.8738643873408025
4.738540520718738,-0.9920518937083298
4.771910524385771,-1.0779113997425893
4.805280528052805,-1.1415087704603033
4.838650531719838,-1.167240586171511
4.872020535386872,-1.1267806696520517
4.905390539053905,-1.0028653160153425
4.938760542720939,-0.8096795733029469
4.972130546387972,-0.5968569065290259
5.005500550055006,-0.43266366196217787
5.038870553722038,-0.37313853858406104
5.072240557389072,-0.43195860963695126
5.105610561056105,-0.5665844573161086
5.138980564723139,-0.6893520421822635
5.172350568390172,-0.7007895041744391
5.2057205720572055,-0.5317883758088435
5.239090575724239,-0.17630586575612997
5.272460579391272,0.3005119917539103
5.305830583058306,0.7836479631113568
5.3392005867253385,1.150915543730448
5.372570590392372,1.3192472342921522
5.405940594059405,1.2749104337814847
5.439310597726439,1.0751432905963465
5.472680601393472,0.8215539219541005
5.506050605060506,0.617915480917265
5.539420608727539,0.5307819691604955
5.572790612394573,0.5682844385075106
5.606160616061606,0.6829746193111177
5.63953061972864,0.7941919146358702
5.672900623395672,0.8192023984019484
5.706270627062706,0.7019473063869809
5.739640630729739,0.4316673637974519
5.773010634396773,0.047730704123095
5.806380638063806,-0.370010219072128
5.83975064173084,-0.7235330421489924
5.873120645397873,-0.9267007295860363
5.9064906490649065,-0.9345728588752531
5.93986065273194,-0.7615782236866592
5.9732306563989725,-0.48021810453323355
6.006600660066006,-0.19847105959093622
6.0399706637330395,-0.022701282091180747
6.073340667400073,-0.01958815892889062
6.106710671067106,-0.19188799015139332
6.14008067473414,-0.4777682188269057
6.173450678401173,-0.7741629576399641
6.206820682068207,-0.9751217083543411
6.24019068573524,-1.010369566201737
6.273560689402273,-0.8694041911602913
6.306930693069306,-0.6021807044726927
6.34030069673634,-0.2965115904911309
6.373670700403373,-0.04134620278186752
6.407040704070407,0.10928898488968135
6.44041070773744,0.15696697235198034
6.473780711404474,0.15541081528956036
6.507150715071507,0.184002643568136
6.540520718738541,0.3091743472905971
6.573890722405573,0.5502676766809935
6.607260726072607,0.8652031706517708
6.64063072973964,1.1632231859095523
6.6740007334066735,1.3402251293274667
6.707370737073707,1.3218502212634775
6.7407407407407405,1.095394636166475
6.774110744407774,0.7160953691925583
6.807480748074807,0.2848017617840583
6.840850751741841,-0.09272517981096327
6.8742207554088735,-0.3461167678894412
6.907590759075907,-0.4621433678143522
6.94096076274294,-0.4793274571024718
6.974330766409974,-0.46047641570897774
7.007700770077007,-0.458677334553574
7.041070773744041,-0.4941573614574704
7.074440777411074,-0.5520101093678247
7.107810781078108,-0.5987137453698976
7.141180784745141,-0.6056747409543456
7.174550788412174,-0.5659602450002983
7.207920792079207,-0.49626110421392816
7.241290795746241,-0.425503869108537
7.274660799413274,-0.3784037048614707
7.308030803080308,-0.3631070254797922
7.341400806747341,-0.367809923460108
7.3747708104143745,-0.36574491158956024
7.408140814081408,-0.3247599911587937
7.4415108177484415,-0.21768793545451692
7.474880821415475,-0.031151013918122163
7.5082508250825075,0.22860859078194487
7.541620828749541,0.5342824408158012
7.5749908324165744,0.84174555808287
7.608360836083608,1.1000519793413899
7.641730839750641,1.26493176844583
7.675100843417675,1.311490019508665
7.708470847084708,1.2413766458011253
7.741840850751742,1.081391085799594
7.775210854418775,0.8736534237505515
7.808580858085808,0.6607391602117798
7.841950861752841,0.471177647867977
7.875320865419875,0.31068907346882635
7.908690869086908,0.16253790982724914
7.942060872753942,-0.002842449601644864
7.975430876420975,-0.21217284256140256
8.008800880088009,-0.4733150153600687
8.042170883755041,-0.7654702958404433
8.075540887422076,-1.0407695531980972
8.108910891089108,-1.2387025175915471
8.142280894756142,-1.3094326929935822
8.175650898423175,-1.2369537128344754
8.20902090209021,-1.0511119062736929
8.242390905757242,-0.820858614658321
8.275760909424275,-0.6292120875467885
8.309130913091309,-0.5396873029486267
8.342500916758341,-0.5693288672877063
8.375870920425376,-0.6814574381328539
8.409240924092408,-0.8022250169445502
8.442610927759443,-0.8534572972619783
8.475980931426475,-0.7860942219558469
8.50935093509351,-0.5982149329252279
8.542720938760542,-0.32945522543474065
8.576090942427575,-0.035617191108617705
8.60946094609461,0.24272504672327722
8.642830949761642,0.5009037814269597
8.676200953428676,0.7689877644364728
8.709570957095709,1.0888253434164805
8.742940960762743,1.4805990037757366
8.776310964429776,1.9160784608023393
8.80968096809681,2.3135192648550884
8.843050971763843,2.559641848557898
8.876420975430875,2.5514080820637104
8.90979097909791,2.2401207589152117
8.943160982764942,1.6577736144808672
8.976530986431976,0.9124717109133206
9.009900990099009,0.15339485234889189
9.043270993766043,-0.4802892868384338
9.076640997433076,-0.9049073219154996
9.11001100110011,-1.1135110569940578
9.143381004767143,-1.1656728861230299
9.176751008434175,-1.1526328272943662
9.21012101210121,-1.1544552943068032
9.243491015768242,-1.207702235186053
9.276861019435277,-1.2960772842731676
9.31023102310231,-1.3658848225580125
9.343601026769344,-1.357627913213538
9.376971030436376,-1.2387437247394166
9.41034103410341,-1.0226099947475797
9.443711037770443,-0.7653235296714874
9.477081041437476,-0.5416928833135859
9.51045104510451,-0.4112181790935674
9.543821048771543,-0.38947727125699
9.577191052438577,-0.43813957632992856
9.61056105610561,-0.4786575913974158
9.643931059772644,-0.4241878191647103
9.677301063439677,-0.21625059584774473
9.710671067106711,0.14930429327349265
9.744041070773743,0.6175659224213917
9.777411074440776,1.0923595425663943
9.81078107810781,1.4686422561169317
9.844151081774843,1.6663781166134057
9.877521085441877,1.6534231846372784
9.91089108910891,1.4504729004615544
9.944261092775944,1.1186258709163859
9.977631096442977,0.7363363892732379
10.011001100110011,0.37524549506069244
10.044371103777044,0.08312046008703587
10.077741107444076,-0.12198150902185674
10.11111111111111,-0.24714825611242633
10.144481114778143,-0.3141546707584231
10.177851118445178,-0.3486894891931998
10.21122112211221,-0.3731663294275369
10.244591125779245,-0.40378136177132473
10.277961129446277,-0.4496920654006927
10.311331133113312,-0.5116292501751861
10.344701136780344,-0.5793043400171773
10.378071140447377,-0.6301226248827262
10.411441144114411,-0.633294314691297
10.444811147781444,-0.5614397921743939
10.478181151448478,-0.4066040029601254
10.51155115511551,-0.19233359364644906
10.544921158782545,0.02769906201854259
10.578291162449577,0.1887222719435187
10.611661166116612,0.24559635057815063
10.645031169783644,0.20000926409970915
10.678401173450677,0.10712254085060016
10.711771177117711,0.05350920001818319
10.745141180784744,0.11415484507169779
10.778511184451778,0.3101761086538401
10.81188118811881,0.5914239348753889
10.845251191785845,0.8561379182073445
10.878621195452878,0.9992471473446859
10.911991199119912,0.963812523579587
10.945361202786945,0.7672565445460411
10.978731206453979,0.4878984805420878
11.012101210121012,0.22004606608526905
11.045471213788044,0.023903653082931648
11.078841217455079,-0.10104944098053305
11.112211221122111,-0.20513873414453274
11.145581224789145,-0.3485005722625134
11.178951228456178,-0.5572530205210939
11.212321232123212,-0.8022030853486449
11.245691235790245,-1.0119433398914734
11.27906123945728,-1.111501681206348
11.312431243124312,-1.063494001865344
11.345801246791344,-0.8888339198295192
11.379171250458379,-0.6571304729032912
11.412541254125411,-0.4541281977341087
11.445911257792446,-0.3447027529205978
11.479281261459478,-0.34959005275908683
11.512651265126513,-0.44406124487796833
11.546021268793545,-0.5742230803965084
11.57939127246058,-0.6789670673834828
11.612761276127612,-0.7062519200740367
11.646131279794645,-0.6193850009737881
11.67950128346168,-0.3968210313856581
11.712871287128712,-0.03256336947503063
11.746241290795746,0.458306805632864
11.779611294462779,1.0309454179815758
11.812981298129813,1.6066734883505651
11.846351301796846,2.0820687278034082
11.87972130546388,2.354105540974617
11.913091309130913,2.3546794619988787
11.946461312797945,2.079898165922112
11.97983131646498,1.5985411065135633
12.013201320132012,1.0319645071397336
12.046571323799046,0.5111914780390527
12.079941327466079,0.128969744011303
12.113311331133113,-0.09166718074407781
12.146681334800146,-0.19796661974463456
12.18005133846718,-0.277494824416386
12.213421342134213,-0.412597420655326
12.246791345801245,-0.6410753657052028
12.28016134946828,-0.9405965512669985
12.313531353135312,-1.2417578300793763
12.346901356802347,-1.46089168975625
12.38027136046938,-1.5358190349604561
12.413641364136414,-1.44893224651145
12.447011367803446,-1.2301907909394152
12.48038137147048,-0.9425399030444638
12.513751375137513,-0.658823527739244
12.547121378804546,-0.4401419070814659
12.58049138247158,-0.3218733324640474
12.613861386138613,-0.30845927197688733
12.647231389805647,-0.37476829909265247
12.68060139347268,-0.4717459324806328
12.713971397139714,-0.5359476535338606
12.747341400806746,-0.5037927343959777
12.78071140447378,-0.32995982650324673
12.814081408140813,-0.005621672836602099
12.847451411807846,0.4311191063679699
12.88082141547488,0.8999655062837362
12.914191419141913,1.3004842970493937
12.947561422808947,1.54529527504676
12.98093142647598,1.5911497255245977
13.014301430143014,1.4535212628448086
13.047671433810047,1.196957243078106
13.081041437477081,0.9051203851479485
13.114411441144114,0.6449247041266202
13.147781444811146,0.4422408789311255
13.18115144847818,0.28022856018608744
13.214521452145213,0.11904887195395579
13.247891455812248,-0.07534194459599944
13.28126145947928,-0.30920249254870835
13.314631463146315,-0.5563118222463906
13.348001466813347,-0.7705674030985853
13.381371470480381,-0.9068235621095267
13.414741474147414,-0.9383090558117297
13.448111477814447,-0.8632923970669307
13.481481481481481,-0.7011483655067362
13.514851485148514,-0.4835001884236949
13.548221488815548,-0.24665965963271988
13.58159149248258,-0.02787682042870353
13.614961496149615,0.13662787082990085
13.648331499816647,0.21573884306913776
13.681701503483682,0.19150700753592886
13.715071507150714,0.06887885294449109
13.748441510817747,-0.11845785640097202
13.781811514484781,-0.31153729020296056
13.815181518151814,-0.44062823585944205
13.848551521818848,-0.44716617710269785
13.88192152548588,-0.3051549898092274
13.915291529152915,-0.03304477012698351
13.948661532819948,0.3098869338084207
13.982031536486982,0.6425232355329645
14.015401540154015,0.8894508283124364
14.048771543821047,1.0060465771718714
14.082141547488082,0.9906509719039692
14.115511551155114,0.8788325253198441
14.148881554822148,0.7227952023846194
14.182251558489181,0.5658004472135352
14.215621562156215,0.42369234863257565
14.248991565823248,0.28208521675830495
14.282361569490282,0.1101562241030333
14.315731573157315,-0.11613805502721074
14.349101576824348,-0.39342943638345107
14.382471580491382,-0.6840480580445605
14.415841584158414,-0.9275932846968813
14.449211587825449,-1.0663929571609383
14.482581591492481,-1.072604400411302
14.515951595159516,-0.9628624994870428
14.549321598826548,-0.7919524122286509
14.582691602493583,-0.6276361758202627
14.616061606160615,-0.5190308558827961
14.649431609827648,-0.4750275294645656
14.682801613494682,-0.46435255129334724
14.716171617161715,-0.437151879203238
14.749541620828749,-0.3557886036119452
14.782911624495782,-0.21706491358198435
14.816281628162816,-0.05295126908009694
14.849651631829849,0.0903911564263304
14.883021635496883,0.182495555829064
14.916391639163916,0.22921972729571147
14.94976164283095,0.27154639125097074
14.983131646497982,0.3630172136682294
15.016501650165015,0.5387555044703032
15.04987165383205,0.7935829789864322
15.083241657499082,1.081032219029848
15.116611661166116,1.3329552507475309
15.149981664833149,1.4882616735779213
15.183351668500183,1.5153468726748238
15.216721672167216,1.4176532976097354
15.25009167583425,1.222076053254022
15.283461679501283,0.9593956943518803
15.316831683168315,0.6493459485686063
15.35020168683535,0.2987778864361
15.383571690502382,-0.08751047763383146
15.416941694169417,-0.4919011707653457
15.45031169783645,-0.8762419961389882
15.483681701503484,-1.1879945382569148
15.517051705170516,-1.3782565911025495
15.55042170883755,-1.422242538307965
15.583791712504583,-1.3311789286855058
15.617161716171616,-1.1494531552058118
15.65053171983865,-0.938796217503177
15.683901723505683,-0.7572451253568444
15.717271727172717,-0.6415329844536323
15.75064173083975,-0.5981347991023569
15.784011734506784,-0.6038204198033115
15.817381738173816,-0.6141269046931374
15.85075174184085,-0.5778289938978209
15.884121745507883,-0.45518530019913694
15.917491749174916,-0.23575563397449656
15.95086175284195,0.05121843342606257
15.984231756508983,0.3413630423685693
16.017601760176017,0.5576026124557092
16.05097176384305,0.6444787284300394
16.084341767510082,0.5995811544909686
16.117711771177117,0.48470509879601875
16.15108177484415,0.40634474952495236
16.184451778511182,0.4697132103008948
16.217821782178216,0.7254972966853296
16.25119178584525,1.1353873258602483
16.284561789512285,1.5760180466762514
16.317931793179316,1.8833386800343814
16.35130179684635,1.919252410567415
16.384671800513384,1.6303848704883175
16.41804180418042,1.0717758894352656
16.45141180784745,0.384829586402836
16.484781811514484,-0.25962427283465794
16.51815181518152,-0.7267975205830953
16.55152181884855,-0.9633703236841282
16.584891822515583,-1.0054665909475466
16.618261826182618,-0.9498423368057628
16.651631829849652,-0.9048638578939016
16.685001833516683,-0.9445023776255441
16.718371837183717,-1.08395150265277
16.75174184085075,-1.283129081031582
16.785111844517782,-1.4711365374635168
16.818481848184817,-1.5771743810404757
16.85185185185185,-1.554182996895537
16.885221855518886,-1.3885509104072051
16.918591859185916,-1.0974876549200403
16.95196186285295,-0.7202164586754061
16.985331866519985,-0.30830060663636927
17.01870187018702,0.08359731893761026
17.05207187385405,0.40818932301170524
17.085441877521085,0.637958068847036
17.11881188118812,0.77599720764301
17.15218188485515,0.8583547733626037
17.185551888522184,0.9421684505399941
17.21892189218922,1.0805658752498972
17.252291895856253,1.2939207947885392
17.285661899523284,1.5519056134820495
17.319031903190318,1.7778221656369506
17.352401906857352,1.8764846479609079
17.385771910524387,1.7746564409336314
17.419141914191417,1.4555619068208199
17.452511917858452,0.970755327345618
