Time (s),Filtered Signal
0.0,-0.002303569127744869
0.033370535714285714,0.24210883759125051
0.06674107142857143,0.46072739783004346
0.10011160714285713,0.6308941931270029
0.13348214285714285,0.737080049629831
0.16685267857142858,0.7750136193645792
0.20022321428571427,0.7541126024739706
0.23359375,0.6958502605404209
0.2669642857142857,0.6270486568293676
0.30033482142857143,0.5698124654856853
0.33370535714285715,0.5323354555476362
0.36707589285714287,0.5053509794497153
0.40044642857142854,0.4668019904125166
0.43381696428571426,0.3932837161340348
0.4671875,0.2731021651847011
0.5005580357142857,0.11451773942907556
0.5339285714285714,-0.05523565815610002
0.5672991071428571,-0.20016042241901527
0.6006696428571429,-0.29035495263084815
0.6340401785714286,-0.31453290226028396
0.6674107142857143,-0.28424847264012715
0.70078125,-0.2278906645066482
0.7341517857142857,-0.17751003200327256
0.7675223214285715,-0.15500282095340948
0.8008928571428571,-0.16432356631292433
0.8342633928571428,-0.1931273023874826
0.8676339285714285,-0.22225005583311422
0.9010044642857142,-0.23739898924828182
0.934375,-0.2365671334075079
0.9677455357142857,-0.22945940358888442
1.0011160714285714,-0.22993983880463117
1.0344866071428571,-0.2463817192255126
1.0678571428571428,-0.27563919351626787
1.1012276785714286,-0.30389896606587824
1.1345982142857143,-0.31358241993171204
1.16796875,-0.29219209977148
1.2013392857142857,-0.23826918778522307
1.2347098214285714,-0.16159513190673944
1.2680803571428572,-0.0780826354134268
1.3014508928571429,-0.002522237112859707
1.3348214285714286,0.056918107095114766
1.3681919642857143,0.09995794802412276
1.4015625,0.13129239423217676
1.4349330357142858,0.15574535995846617
1.4683035714285715,0.1744743566039865
1.5016741071428572,0.18433874598749778
1.535044642857143,0.180691975674423
1.5684151785714286,0.1620147799701839
1.6017857142857141,0.1337923338706671
1.6351562499999999,0.10923456764357535
1.6685267857142856,0.10574861435101855
1.7018973214285713,0.13800262443588648
1.735267857142857,0.21020848651877544
1.7686383928571427,0.3110811859974498
1.8020089285714285,0.4142725099935941
1.8353794642857142,0.4850186621219056
1.86875,0.4910984035995377
1.9021205357142856,0.41418885064473504
1.9354910714285714,0.2573256384390116
1.968861607142857,0.04562706301990776
2.002232142857143,-0.17998035769669854
2.0356026785714287,-0.3737950215841415
2.0689732142857142,-0.4974834236566796
2.10234375,-0.5297236219269867
2.1357142857142857,-0.4708929963812413
2.169084821428571,-0.3419549473517347
2.202455357142857,-0.17820621754508978
2.2358258928571426,-0.019677197534398158
2.2691964285714286,0.0993319766456463
2.302566964285714,0.15887198847764125
2.3359375,0.15773704267884767
2.3693080357142855,0.11222039643295391
2.4026785714285714,0.049426481621157536
2.436049107142857,-0.002778802343459595
2.469419642857143,-0.025635930041558074
2.5027901785714284,-0.01541492646870273
2.5361607142857143,0.016931347034937424
2.56953125,0.05203417799715723
2.6029017857142858,0.07125994178778998
2.6362723214285713,0.06444621675642681
2.669642857142857,0.032861082389536896
2.7030133928571427,-0.013311991696552646
2.7363839285714286,-0.06081260359853851
2.769754464285714,-0.09896143895119211
2.803125,-0.12247908101141822
2.8364955357142856,-0.13108321461703443
2.8698660714285715,-0.12750681120388396
2.903236607142857,-0.11598586617521278
2.936607142857143,-0.10199225595282872
2.9699776785714285,-0.09227142448577158
3.0033482142857144,-0.09361050222995806
3.03671875,-0.1098045149392376
3.070089285714286,-0.13819283682561057
3.1034598214285714,-0.16831988935721143
3.1368303571428573,-0.18462256096760352
3.170200892857143,-0.17279537756732558
3.2035714285714283,-0.1270465054963608
3.2369419642857142,-0.054419415460190544
3.2703124999999997,0.02656418960319941
3.3036830357142857,0.09300063850008417
3.337053571428571,0.12757068033664473
3.370424107142857,0.12678583752514308
3.4037946428571426,0.10331388390668987
3.4371651785714286,0.08067701201603265
3.470535714285714,0.08225320357062307
3.50390625,0.11964539018201414
3.5372767857142855,0.1864192172064801
3.5706473214285714,0.26106662939294445
3.604017857142857,0.31845422741839263
3.637388392857143,0.34411981230095356
3.6707589285714284,0.3433717579081611
3.7041294642857143,0.339074490356136
3.7375,0.3578269963257669
3.7708705357142858,0.4110732261154938
3.8042410714285713,0.4816251881175244
3.837611607142857,0.5244924567623528
3.8709821428571427,0.4840965027358657
3.9043526785714286,0.321179514344285
3.937723214285714,0.036623168542866055
3.97109375,-0.32046060314429126
4.004464285714286,-0.6661396373466767
4.0378348214285715,-0.9119335510012809
4.0712053571428575,-0.9987263951125207
4.1045758928571425,-0.9189981215410679
4.1379464285714285,-0.7176215793990205
4.171316964285714,-0.47168709617716414
4.2046875,-0.2592642173274003
4.238058035714285,-0.13104947813593082
4.271428571428571,-0.09607933599981903
4.304799107142857,-0.12530901553427426
4.338169642857142,-0.16899610209560456
4.371540178571428,-0.17907907732236872
4.404910714285714,-0.12746772064901588
4.43828125,-0.01437135278265707
4.471651785714285,0.13468257725434343
4.505022321428571,0.2805582816460451
4.538392857142857,0.38599808144588615
4.571763392857143,0.42928866828345597
4.605133928571428,0.4114445242122081
4.638504464285714,0.35452299616251787
4.671875,0.2918291097682354
4.705245535714286,0.2538606882026118
4.738616071428571,0.25566375001170477
4.771986607142857,0.29084475980513647
4.805357142857143,0.33474937363842805
4.838727678571429,0.3553401937926417
4.872098214285714,0.326897666239512
4.90546875,0.24049243721882352
4.938839285714286,0.1068676695093778
4.972209821428572,-0.04888506456166916
5.005580357142857,-0.19759646505227027
5.038950892857143,-0.31600519948326583
5.072321428571429,-0.39213569952933697
5.105691964285715,-0.4248347126294022
5.1390625,-0.4195423754765517
5.172433035714286,-0.3839201238951213
5.2058035714285715,-0.32599667176526853
5.2391741071428575,-0.25493912302257016
5.2725446428571425,-0.18230006181714042
5.3059151785714285,-0.12119917904031402
5.339285714285714,-0.08257450459862369
5.3726562499999995,-0.07014038187080658
5.406026785714285,-0.07721884795514272
5.439397321428571,-0.08804501155885965
5.472767857142857,-0.08375469585148514
5.506138392857142,-0.05048173406882837
5.539508928571428,0.014492768865162516
5.572879464285714,0.10184386975601732
5.60625,0.19518430054312524
5.639620535714285,0.2793436322825236
5.672991071428571,0.3473954718781474
5.706361607142857,0.40233889267829676
5.739732142857143,0.4521538078561569
5.773102678571428,0.5007609037375573
5.806473214285714,0.540210962242143
5.83984375,0.549518880524155
5.873214285714286,0.5024794015136059
5.906584821428571,0.3817713501270209
5.939955357142857,0.192277705581356
5.973325892857143,-0.034405387727153
6.006696428571429,-0.24860107757710434
6.040066964285714,-0.4017855951752986
6.0734375,-0.4675572981005623
6.106808035714286,-0.45355248864076825
6.140178571428572,-0.39753150974555984
6.173549107142857,-0.34888464306464984
6.206919642857143,-0.34450924970790153
6.240290178571429,-0.39113522543089896
6.273660714285715,-0.4629633896744323
6.30703125,-0.5156118454050664
6.340401785714286,-0.5090201943434786
6.3737723214285715,-0.42754666889203496
6.407142857142857,-0.28727050661362
6.4405133928571425,-0.1274217489459529
6.4738839285714285,0.00885720347813792
6.507254464285714,0.09398494601075044
6.5406249999999995,0.1257589706717171
6.573995535714285,0.12346460469189591
6.607366071428571,0.11391499019516514
6.640736607142857,0.11618867695626095
6.674107142857142,0.13361578374218896
6.707477678571428,0.1565108820649107
6.740848214285714,0.1725830276430181
6.77421875,0.17780619392974395
6.807589285714285,0.18094579123483484
6.840959821428571,0.19919012959033738
6.874330357142857,0.24763637408435937
6.907700892857143,0.32873011285981457
6.941071428571428,0.4276029171605532
6.974441964285714,0.5160348439909067
7.0078125,0.5633580179718863
7.041183035714286,0.5492110398370912
7.074553571428571,0.4721787305426648
7.107924107142857,0.35030973856737146
7.141294642857143,0.21333491719541545
7.174665178571429,0.09030777838235649
7.208035714285714,-0.0015242733940785225
7.24140625,-0.06159119885410301
7.274776785714286,-0.10285629572131694
7.308147321428572,-0.1429254915351042
7.341517857142857,-0.19430407316825435
7.374888392857143,-0.2585979820714559
7.408258928571429,-0.32692042008019195
7.441629464285715,-0.385395714517232
7.475,-0.42230286589952426
7.508370535714286,-0.4331176963765716
7.5417410714285715,-0.4213537664202799
7.575111607142857,-0.3956160692935121
7.6084821428571425,-0.36527933965777665
7.6418526785714285,-0.33758605681835424
7.675223214285714,-0.3174938054877297
7.7085937499999995,-0.30920489479190655
7.741964285714285,-0.31668993118296906
7.775334821428571,-0.3410972679813528
7.808705357142857,-0.37568231939194174
7.842075892857142,-0.4019647657228509
7.875446428571428,-0.39167378021688626
7.908816964285714,-0.3163132026454644
7.9421875,-0.16108457034684937
7.975558035714285,0.06418700097083842
8.008928571428571,0.32429255446536187
8.042299107142856,0.5701183322119863
8.075669642857143,0.7573004509648542
8.109040178571428,0.862412888406273
8.142410714285715,0.8881757835513798
8.17578125,0.8554696399516144
8.209151785714285,0.7875354010473605
8.242522321428572,0.6960061148689028
8.275892857142857,0.5769010427911899
8.309263392857142,0.4185101646227548
8.342633928571429,0.21598612577656084
8.376004464285714,-0.016456130988360896
8.409375,-0.24349874871393984
8.442745535714286,-0.41901131455274887
8.47611607142857,-0.5041989062936867
8.509486607142858,-0.4849294621390183
8.542857142857143,-0.37976098984771794
8.576227678571428,-0.23447473183679762
8.609598214285715,-0.10511328582168038
8.64296875,-0.03672338666862916
8.676339285714285,-0.046881861401879096
8.709709821428572,-0.12085271529705602
8.743080357142857,-0.21996486489027325
8.776450892857143,-0.2989805156618329
8.809821428571428,-0.32453922263987095
8.843191964285714,-0.2868319787252175
8.8765625,-0.20026420547719315
8.909933035714285,-0.09412735069899475
8.94330357142857,0.00134827535104942
8.976674107142857,0.06674123148772242
9.010044642857142,0.09811405942152053
9.04341517857143,0.1038344988199266
9.076785714285714,0.09672019191837003
9.11015625,0.08646706502054101
9.143526785714286,0.07623909897865701
9.176897321428571,0.06428814120387355
9.210267857142856,0.048429641954506865
9.243638392857143,0.029838146154500287
9.277008928571428,0.013554359971371572
9.310379464285715,0.005550636678509741
9.34375,0.008554536382325414
9.377120535714285,0.01960144315398034
9.410491071428572,0.031073126664106818
9.443861607142857,0.034668524986359806
9.477232142857142,0.02588688373890539
9.510602678571429,0.006343241424655532
9.543973214285714,-0.017348599832228282
9.57734375,-0.03729120561980347
9.610714285714286,-0.04835410271000059
9.64408482142857,-0.05036259901174735
9.677455357142858,-0.04756531907295123
9.710825892857143,-0.046105443424064856
9.744196428571428,-0.0510360177410937
9.777566964285715,-0.06418136832667762
9.8109375,-0.08334959884152501
9.844308035714285,-0.10275357676400483
9.877678571428572,-0.1143267200541155
9.911049107142857,-0.10973275210715189
9.944419642857143,-0.08285790880496302
9.977790178571428,-0.032231728522405925
10.011160714285714,0.03763281002289623
10.04453125,0.1170183531961776
10.077901785714285,0.19412465470478724
10.11127232142857,0.2593173573991365
10.144642857142857,0.3081870744871769
10.178013392857142,0.34140021799323655
10.21138392857143,0.3612101809861079
10.244754464285714,0.36686375051406006
10.278125,0.35226062705392835
10.311495535714286,0.30809576349521767
10.344866071428571,0.2278902520216067
10.378236607142856,0.11457489943923976
10.411607142857143,-0.016576810414477852
10.444977678571428,-0.14120509888992208
10.478348214285715,-0.23450317240552687
10.51171875,-0.2812608194025295
10.545089285714285,-0.2821580478688048
10.578459821428572,-0.25277028841958304
10.611830357142857,-0.21545797468231
10.645200892857142,-0.18822164198586394
10.678571428571429,-0.17652342373275334
10.711941964285714,-0.1727014841284253
10.745312499999999,-0.1633892375055394
10.778683035714286,-0.14052975811414173
10.81205357142857,-0.10906724899719707
10.845424107142858,-0.08603213749169408
10.878794642857143,-0.0908780829287409
10.912165178571428,-0.13257072568718895
10.945535714285715,-0.20145104116625634
10.97890625,-0.27145406828640806
11.012276785714285,-0.3121426405779268
11.045647321428572,-0.30393894073400185
11.079017857142857,-0.24771341804683014
11.112388392857143,-0.16298608934740372
11.145758928571428,-0.0756266799154062
11.179129464285714,-0.0022039299050828206
11.2125,0.05965768097817231
11.245870535714285,0.12877588118544467
11.27924107142857,0.22658432774398782
11.312611607142857,0.3596493739881119
11.345982142857142,0.5089685161748597
11.37935267857143,0.6333268419464582
11.412723214285714,0.686359375244313
11.44609375,0.6390623122589797
11.479464285714286,0.4958986076357437
11.512834821428571,0.2955728649022105
11.546205357142856,0.09546113530560961
11.579575892857143,-0.052815952590038406
11.612946428571428,-0.124708425052354
11.646316964285715,-0.13075754499709039
11.6796875,-0.10799791685142686
11.713058035714285,-0.09961806127977293
11.746428571428572,-0.1331544459734218
11.779799107142857,-0.20764151009674706
11.813169642857142,-0.29531760658984707
11.846540178571429,-0.3563085992851176
11.879910714285714,-0.35869570129327394
11.913281249999999,-0.29424830741738683
11.946651785714286,-0.18260331732208807
11.98002232142857,-0.06235335881988757
12.013392857142858,0.026419523401714648
12.046763392857143,0.059900084705085746
12.080133928571428,0.04044155660862624
12.113504464285715,-0.005783439443947437
12.146875,-0.0421058250972725
12.180245535714285,-0.039269011612852206
12.213616071428572,0.010672918235979696
12.246986607142857,0.09117751819424844
12.280357142857143,0.17017249493388945
12.313727678571428,0.21639696965965804
12.347098214285714,0.21457938322300366
12.38046875,0.1716545415788913
12.413839285714285,0.1111858922925164
12.44720982142857,0.059568760349671755
12.480580357142857,0.031846777497159806
12.513950892857142,0.02479519829887276
12.54732142857143,0.020618835462661675
12.580691964285714,-0.0012663125273234869
12.6140625,-0.05113385826267318
12.647433035714286,-0.1217722909605781
12.680803571428571,-0.19114533580567625
12.714174107142856,-0.2335114102892322
12.747544642857143,-0.2331164705905419
12.780915178571428,-0.1931331768735732
12.814285714285713,-0.13491007239668415
12.84765625,-0.08763923173670508
12.881026785714285,-0.07364997407772836
12.914397321428572,-0.09698153898908893
12.947767857142857,-0.14131642679296688
12.981138392857142,-0.1785169916780968
13.014508928571429,-0.1833959692332645
13.047879464285714,-0.1469280469733039
13.081249999999999,-0.08076999166601151
13.114620535714286,-0.010493005069402645
13.14799107142857,0.03897458938623738
13.181361607142858,0.05783429516018588
13.214732142857143,0.05781806192545101
13.248102678571428,0.06672099276654114
13.281473214285715,0.1136020671668721
13.31484375,0.21210789184723552
13.348214285714285,0.35030308875418553
13.381584821428572,0.4920853337831076
13.414955357142857,0.5897446030939407
13.448325892857143,0.6023552863226763
13.481696428571428,0.5125141618043498
13.515066964285714,0.33489467297376885
13.5484375,0.11330657786559985
13.581808035714285,-0.0929387623249358
13.61517857142857,-0.22882291017483128
13.648549107142857,-0.26271058175037604
13.681919642857142,-0.1977373085812966
13.71529017857143,-0.07089334805233871
13.748660714285714,0.06038919119857075
13.78203125,0.1394415711633097
13.815401785714286,0.13130938583538604
13.848772321428571,0.03521996708906457
13.882142857142856,-0.11639163637626544
13.915513392857143,-0.27178860056407184
13.948883928571428,-0.3809057905614171
13.982254464285713,-0.4146423671163709
14.015625,-0.374635809398713
14.048995535714285,-0.2899851508012175
14.082366071428572,-0.2030895300945758
14.115736607142857,-0.15122908744420785
14.149107142857142,-0.1518039252745887
14.182477678571429,-0.19693460345251987
14.215848214285714,-0.2587112678509348
14.249218749999999,-0.30189573030494876
14.282589285714286,-0.29823115798625266
14.31595982142857,-0.23655978135456787
14.349330357142858,-0.12532001027718884
14.382700892857143,0.012553117996171845
14.416071428571428,0.14926940359543744
14.449441964285715,0.2618863491162651
14.4828125,0.33822517001247954
14.516183035714285,0.3773904664635378
14.549553571428572,0.38595214870887334
14.582924107142857,0.37261752245320395
14.616294642857143,0.3443260717334366
14.649665178571428,0.3053149883375245
14.683035714285714,0.2587424674140316
14.71640625,0.20899256938910232
14.749776785714285,0.16252085455532303
14.78314732142857,0.12610183292947513
14.816517857142857,0.103068981730052
14.849888392857142,0.08969299011904174
14.88325892857143,0.07433740503855774
14.916629464285714,0.04101374442128605
14.95,-0.023271307086571325
14.983370535714286,-0.12038314325618094
15.016741071428571,-0.23636167515342973
15.050111607142856,-0.34346403490898564
15.083482142857143,-0.4093078113155719
15.116852678571428,-0.4097992705300027
15.150223214285713,-0.34008250808920204
15.18359375,-0.2180782612789826
15.216964285714285,-0.07842515531668719
15.250334821428572,0.040765839414666216
15.283705357142857,0.11242289901102127
15.317075892857142,0.12984370926275862
15.350446428571429,0.10707634595500826
15.383816964285714,0.0709221388219731
15.417187499999999,0.04879573388385659
15.450558035714286,0.057913091711258795
15.48392857142857,0.09983868424472074
15.517299107142858,0.16150187724957274
15.550669642857143,0.22110336795352672
15.584040178571428,0.2560286876793404
15.617410714285715,0.2500498253133799
15.65078125,0.19802972298427582
15.684151785714285,0.10728198312181189
15.717522321428572,-0.004602975274985093
15.750892857142857,-0.11504208032628756
15.784263392857143,-0.20355812102046908
15.817633928571428,-0.2583959870340462
15.851004464285714,-0.27991635893143435
15.884375,-0.2788903282499685
15.917745535714285,-0.2700510662483729
15.95111607142857,-0.26386387669306816
15.984486607142857,-0.26084937658075696
16.017857142857142,-0.25178378219550646
16.05122767857143,-0.2239348013450852
16.084598214285712,-0.16987137666786295
16.11796875,-0.09356411228830454
16.151339285714286,-0.009842804807328433
16.18470982142857,0.0627760761743707
16.218080357142856,0.11172361506974254
16.251450892857143,0.13666626286491063
16.28482142857143,0.14867084685228127
16.318191964285713,0.1628828657245035
16.3515625,0.18930029736916792
16.384933035714287,0.22725194756644418
16.41830357142857,0.2667719900894175
16.451674107142857,0.2957730709650032
16.485044642857144,0.30835849367841617
16.518415178571427,0.308879268226996
16.551785714285714,0.30887839855904264
16.58515625,0.3184217194695324
16.618526785714284,0.3369397123547668
16.65189732142857,0.34939545121144294
16.685267857142858,0.33083172501319097
16.71863839285714,0.25769056620002373
16.752008928571428,0.12045915783674664
16.785379464285715,-0.06863815328929304
16.81875,-0.2766969419212157
16.852120535714285,-0.4595407057690757
16.88549107142857,-0.5755337555311496
16.91886160714286,-0.5985531183549923
16.95223214285714,-0.5259034434964092
16.98560267857143,-0.3792220054042133
17.018973214285715,-0.19864415361527193
17.05234375,-0.03204627328020979
17.085714285714285,0.07787465203159978
17.119084821428572,0.1053463566032374
17.152455357142856,0.04865448530683325
17.185825892857142,-0.0699200615523071
17.21919642857143,-0.21185303186006663
17.252566964285712,-0.33544432072636393
17.2859375,-0.409422817998783
17.319308035714286,-0.42175949491254966
17.35267857142857,-0.3802977411155748
17.386049107142856,-0.3055396706544422
17.419419642857143,-0.21961224145350497
17.45279017857143,-0.1370537516933444
17.486160714285713,-0.06161472696714994
17.51953125,0.010470394422606536
17.552901785714287,0.08408814792734651
17.58627232142857,0.16058891840086845
