Frequency (Hz),Amplitude
0.0,0.13276743775403377
0.019801980198019802,0.13444322470071352
0.039603960396039604,0.1393432561841478
0.0594059405940594,0.14712743039944987
0.07920792079207921,0.15733982292550178
0.09900990099009901,0.16950530192169153
0.1188118811881188,0.183191598297566
0.13861386138613863,0.1980346863312396
0.15841584158415842,0.21374050025970995
0.1782178217821782,0.23007591976698658
0.19801980198019803,0.24685692895324887
0.21782178217821782,0.26393756264080254
0.2376237623762376,0.28120081627836024
0.25742574257425743,0.29855159999034697
0.27722772277227725,0.31591143170221897
0.297029702970297,0.3332144910204844
0.31683168316831684,0.35040469640662125
0.33663366336633666,0.36743353762599096
0.3564356435643564,0.38425846155477983
0.37623762376237624,0.400841663045203
0.39603960396039606,0.4171491731608708
0.4158415841584158,0.43315016685746144
0.43564356435643564,0.4488164336558341
0.45544554455445546,0.46412197024771634
0.4752475247524752,0.4790426650002481
0.495049504950495,0.4935560522439537
0.5148514851485149,0.50764111994074
0.5346534653465347,0.5212781584738474
0.5544554455445545,0.5344486413293237
0.5742574257425742,0.5471351306658946
0.594059405940594,0.5593212024203915
0.613861386138614,0.570991386827527
0.6336633663366337,0.5821311211587465
0.6534653465346534,0.5927267121862411
0.6732673267326733,0.6027653064124865
0.6930693069306931,0.6122348665166751
0.7128712871287128,0.6211241527863676
0.7326732673267327,0.6294227085498456
0.7524752475247525,0.6371208488181349
0.7722772277227723,0.6442096514981587
0.7920792079207921,0.6506809506594826
0.8118811881188118,0.6565273314340067
0.8316831683168316,0.6617421262056928
0.8514851485148516,0.6663194118106104
0.8712871287128713,0.6702540075190195
0.891089108910891,0.6735414736140711
0.9108910891089109,0.6761781104168305
0.9306930693069307,0.6781609576374829
0.9504950495049505,0.6794877939583511
0.9702970297029703,0.6801571367764114
0.99009900990099,0.6801682420532702
1.00990099009901,0.6795211042385153
1.0297029702970297,0.6782164562495948
1.0495049504950495,0.6762557695077457
1.0693069306930694,0.6736412540462546
1.0891089108910892,0.6703758587239669
1.108910891089109,0.6664632715955822
1.1287128712871286,0.6619079205097141
1.1485148514851484,0.6567149740280197
1.1683168316831685,0.6508903427844823
1.188118811881188,0.6444406814330379
1.2079207920792079,0.6373733913676797
1.227722772277228,0.6296966244406802
1.2475247524752475,0.6214192879559912
1.2673267326732673,0.6125510512773611
1.2871287128712872,0.6031023544676687
1.3069306930693068,0.5930844194716726
1.3267326732673268,0.582509264474175
1.3465346534653466,0.5713897222163478
1.3663366336633662,0.5597394632442041
1.3861386138613863,0.547573025307219
1.405940594059406,0.5349058504385833
1.4257425742574257,0.52175433165382
1.4455445544554455,0.5081358717325228
1.4653465346534653,0.4940689572396015
1.4851485148514851,0.47957325185596156
1.504950495049505,0.4646697143032563
1.5247524752475248,0.449380747773992
1.5445544554455446,0.43373038997327507
1.5643564356435644,0.41774455586125825
1.5841584158415842,0.40145134926752757
1.6039603960396038,0.38488146517262595
1.6237623762376237,0.3680687122455235
1.6435643564356437,0.3510506960768179
1.6633663366336633,0.3338697186948748
1.683168316831683,0.3165739710839526
1.7029702970297032,0.2992191247285112
1.7227722772277227,0.28187046823394585
1.7425742574257426,0.2646057880274739
1.7623762376237624,0.24751925771430192
1.782178217821782,0.2307266703315255
1.801980198019802,0.21437239115466866
1.8217821782178218,0.19863834389536406
1.8415841584158414,0.18375497892406595
1.8613861386138615,0.1700131221077562
1.881188118811881,0.15777324383434835
1.900990099009901,0.14746448277590388
1.920792079207921,0.1395606903454812
1.9405940594059405,0.1345202313382322
1.9603960396039604,0.13269054273617573
1.98019801980198,0.13421007151773948
2.0,0.13896285950979523
2.01980198019802,0.1466167796729637
2.0396039603960396,0.1567191233245375
2.0594059405940595,0.1687941942363648
2.0792079207920793,0.1824071722321732
2.099009900990099,0.1971909189895123
2.118811881188119,0.21284846212351802
2.1386138613861387,0.22914426367963311
2.1584158415841586,0.245892409342698
2.1782178217821784,0.2629454854412911
2.1980198019801978,0.28018539634532236
2.217821782178218,0.29751623341110095
2.237623762376238,0.314858899218978
2.257425742574257,0.3321471088283813
2.2772277227722775,0.3493244278503562
2.297029702970297,0.3663420762004097
2.3168316831683167,0.38315729292466
2.336633663366337,0.3997321117056156
2.3564356435643563,0.4160324378052956
2.376237623762376,0.4320273473931742
2.3960396039603964,0.44768855199672636
2.4158415841584158,0.4629899864357251
2.4356435643564356,0.47790748979180836
2.455445544554456,0.49241855699980885
2.4752475247524752,0.5065021444420474
2.495049504950495,0.5201385171310595
2.514851485148515,0.5333091281355736
2.5346534653465347,0.5459965231622287
2.5544554455445545,0.5581842648774149
2.5742574257425743,0.569856872801153
2.594059405940594,0.5809997755423966
2.6138613861386135,0.5915992728549866
2.633663366336634,0.6016425055342889
2.6534653465346536,0.611117431589987
2.673267326732673,0.6200128074512601
2.6930693069306932,0.6283181732104254
2.712871287128713,0.6360238411064278
2.7326732673267324,0.6431208866038561
2.7524752475247527,0.6496011415453266
2.7722772277227725,0.6554571889528458
2.792079207920792,0.6606823591322546
2.811881188118812,0.6652707267985924
2.8316831683168315,0.6692171089922475
2.8514851485148514,0.6725170635987382
2.8712871287128716,0.6751668883204782
2.891089108910891,0.6771636199794161
2.910891089108911,0.6785050340550108
2.9306930693069306,0.6791896443845089
2.9504950495049505,0.6792167029727553
2.9702970297029703,0.6785861998766398
2.99009900990099,0.677298863146969
3.00990099009901,0.6753561588263232
3.0297029702970297,0.6727602910188858
3.0495049504950495,0.6695142020643419
3.0693069306930694,0.6656215728667344
3.089108910891089,0.6610868234486132
3.108910891089109,0.6559151138228518
3.128712871287129,0.6501123453002171
3.148514851485148,0.6436851623799457
3.1683168316831685,0.6366409554059009
3.1881188118811883,0.6289878642124757
3.2079207920792077,0.6207347830353518
3.227722772277228,0.6118913670242612
3.2475247524752473,0.6024680407712374
3.267326732673267,0.5924760093630405
3.2871287128712874,0.5819272725850843
3.3069306930693068,0.5708346430539307
3.3267326732673266,0.559211769245015
3.346534653465347,0.5470731646243947
3.366336633663366,0.5344342444039994
3.386138613861386,0.5213113718419001
3.4059405940594063,0.50772191653221
3.4257425742574257,0.4936843278148962
3.4455445544554455,0.4792182273409559
3.4653465346534653,0.46434452603161025
3.485148514851485,0.44908557228150875
3.504950495049505,0.43346534042934926
3.5247524752475248,0.4175096714725755
3.5445544554455446,0.4012465820433858
3.564356435643564,0.384706663229172
3.5841584158415842,0.36792359853226375
3.603960396039604,0.3509348409992702
3.6237623762376234,0.3337825045355339
3.6435643564356437,0.31651454532622453
3.6633663366336635,0.2991863382829147
3.683168316831683,0.28186279305981304
3.702970297029703,0.2646212066615066
3.722772277227723,0.24755511479486023
3.7425742574257423,0.23077947372398988
3.762376237623762,0.21443754901757014
3.7821782178217824,0.19870982733862436
3.801980198019802,0.1838249154157798
3.8217821782178216,0.17007136715591697
3.841584158415842,0.15780706885433674
3.8613861386138613,0.14745866481482173
3.881188118811881,0.1394984303600838
3.9009900990099013,0.134385235039165
3.9207920792079207,0.13246997163812493
3.9405940594059405,0.13389710112146455
3.96039603960396,0.13855734770910377
3.98019801980198,0.14612375620839968
4.0,0.15614626934378056
4.01980198019802,0.1681496734006571
4.03960396039604,0.18169837915362005
4.0594059405940595,0.19642401725152747
4.079207920792079,0.2120283760713337
4.099009900990099,0.22827485822906687
4.118811881188119,0.24497671190211887
4.138613861386139,0.26198588804145034
4.158415841584159,0.27918381968100503
4.178217821782178,0.29647425297045243
4.198019801980198,0.31377783975604334
4.217821782178218,0.33102811430872214
4.237623762376238,0.34816851306238533
4.257425742574258,0.365150164890146
4.2772277227722775,0.381930246088599
4.297029702970297,0.39847074869947885
4.316831683168317,0.4147375521920013
4.336633663366336,0.43069971891762965
4.356435643564357,0.4463289556896847
4.376237623762377,0.4615991995730849
4.3960396039603955,0.4764862972389117
4.415841584158416,0.49096775532884523
4.435643564356436,0.5050225451092911
4.455445544554455,0.5186309489268615
4.475247524752476,0.5317744390667142
4.4950495049504955,0.5444355818868791
4.514851485148514,0.5565979617839624
4.534653465346535,0.5682461208006758
4.554455445544555,0.5793655106284755
4.574257425742574,0.5899424544723827
4.594059405940594,0.5999641167888415
4.613861386138614,0.6094184793251038
4.633663366336633,0.6182943222110172
4.653465346534653,0.6265812091050147
4.673267326732674,0.6342694755926752
4.693069306930693,0.6413502201908758
4.712871287128713,0.6478152974334642
4.732673267326733,0.6536573126125117
4.752475247524752,0.6588696178280329
4.772277227722772,0.6634463090630316
4.792079207920793,0.6673822240529829
4.811881188118812,0.6706729407618918
4.8316831683168315,0.6733147763129506
4.851485148514852,0.6753047862521528
4.871287128712871,0.6766407640489531
4.891089108910891,0.6773212407609255
4.910891089108912,0.6773454848091038
4.930693069306931,0.6767135018292862
4.9504950495049505,0.6754260345815524
4.97029702970297,0.6734845629168966
4.99009900990099,0.6708913038164007
5.00990099009901,0.6676492115353797
5.02970297029703,0.66376197790306
5.0495049504950495,0.6592340328481003
5.069306930693069,0.6540705452424659
5.089108910891089,0.6482774241814858
5.108910891089109,0.6418613208475267
5.128712871287129,0.6348296311396537
5.148514851485149,0.6271904992936413
5.1683168316831685,0.6189528227673448
5.188118811881188,0.6101262587286584
5.207920792079208,0.6007212325596788
5.227722772277227,0.5907489488858192
5.247524752475248,0.5802214057573849
5.267326732673268,0.5691514127610534
5.2871287128712865,0.5575526140282019
5.306930693069307,0.545439517349472
5.326732673267327,0.532827530915866
5.346534653465346,0.519733009609031
5.366336633663367,0.5061733132868017
5.3861386138613865,0.4921668801967143
5.405940594059405,0.47773331955583437
5.425742574257426,0.4628935285401832
5.445544554455446,0.4476698405397628
5.465346534653465,0.43208621371160294
5.485148514851486,0.4161684718195609
5.504950495049505,0.39994461339592613
5.524752475247524,0.38344521083221716
5.544554455445545,0.3667039287286994
5.564356435643565,0.34975820158048126
5.584158415841584,0.33265012588069065
5.603960396039604,0.31542764264777273
5.623762376237624,0.2981461154008984
5.643564356435643,0.28087044824025703
5.663366336633663,0.2636779411284898
5.683168316831684,0.2466621444394496
5.702970297029703,0.22993804398487733
5.7227722772277225,0.21364895121156038
5.742574257425743,0.1979754104191014
5.762376237623762,0.1831460774469654
5.782178217821782,0.16944949132634873
5.801980198019803,0.15724333581102462
5.821782178217822,0.14695363364420577
5.841584158415841,0.1390512778416033
5.861386138613861,0.13399267517433183
5.881188118811881,0.13212521356804108
5.900990099009901,0.13358952895793513
5.920792079207921,0.13827340636816934
5.9405940594059405,0.14584873369927248
5.96039603960396,0.15586608880549285
5.98019801980198,0.16785202744527933
6.0,0.18137311947944829
6.01980198019802,0.19606305402184634
6.03960396039604,0.21162536500401632
6.0594059405940595,0.2278248495893717
6.079207920792079,0.24447583908122147
6.099009900990099,0.26143111759397897
6.118811881188119,0.2785727601633817
6.138613861386139,0.29580501205786913
6.158415841584159,0.31304891840556615
6.178217821782178,0.3302383284505112
6.198019801980198,0.3473169354569809
6.217821782178218,0.364236081693246
6.237623762376237,0.380953124155265
6.257425742574258,0.39743021076529617
6.2772277227722775,0.41363335786804517
6.297029702970296,0.4295317500076049
6.316831683168317,0.44509720474465514
6.336633663366337,0.46030376088975744
6.356435643564356,0.4751273597155769
6.376237623762377,0.48954559674298975
6.396039603960396,0.5035375274899968
6.415841584158415,0.517083514774593
6.435643564356436,0.5301651082318822
6.455445544554456,0.54276494896217
6.475247524752475,0.5548666938982382
6.495049504950495,0.566454955726708
6.514851485148515,0.5775152551357714
6.534653465346534,0.5880339828706057
6.554455445544554,0.5979983696185585
6.574257425742575,0.6073964621611775
6.594059405940594,0.6162171045507757
6.6138613861386135,0.6244499233186955
6.633663366336634,0.6320853159179128
6.653465346534653,0.6391144417563572
6.673267326732673,0.6455292152997747
6.693069306930694,0.6513223008202773
6.712871287128713,0.6564871084454628
6.732673267326732,0.6610177912264797
6.752475247524753,0.6649092429953569
6.772277227722772,0.6681570968249537
6.792079207920792,0.6707577239405593
6.811881188118813,0.6727082329621448
6.8316831683168315,0.6740064693824226
6.851485148514851,0.6746510152081407
6.871287128712871,0.6746411887122064
6.891089108910891,0.6739770442623552
6.910891089108911,0.6726593722096055
6.930693069306931,0.6706896988358857
6.9504950495049505,0.6680702863771698
6.97029702970297,0.6648041331553886
6.99009900990099,0.6608949738706447
7.00990099009901,0.6563472801251959
7.02970297029703,0.651166261273005
7.0495049504950495,0.6453578657141913
7.069306930693069,0.6389287827837634
7.089108910891089,0.631886445419167
7.108910891089109,0.6242390338337273
7.128712871287128,0.6159954804744131
7.148514851485149,0.6071654766051736
7.1683168316831685,0.5977594809347075
7.188118811881187,0.5877887308037409
7.207920792079208,0.5772652565675731
7.227722772277228,0.5662018999614913
7.247524752475247,0.5546123374291732
7.267326732673268,0.5425111096403649
7.287128712871287,0.5299136587398653
7.306930693069306,0.5168363752787768
7.326732673267327,0.5032966573112585
7.346534653465347,0.48931298483828733
7.366336633663366,0.4749050137016766
7.3861386138613865,0.4600936942582345
7.405940594059406,0.444901421806701
7.425742574257425,0.42935222795766237
7.445544554455446,0.4134720251506473
7.465346534653466,0.39728892064850074
7.485148514851485,0.3808336220241407
7.504950495049505,0.36413996403318033
7.524752475247524,0.34724559773390856
7.544554455445544,0.33019289802139734
7.564356435643565,0.31303016708052206
7.584158415841584,0.2958132408157855
7.603960396039604,0.27860764559241596
7.623762376237624,0.2614915056942818
7.643564356435643,0.24455946710279472
7.663366336633663,0.22792797113948873
7.683168316831684,0.2117422498968597
7.702970297029703,0.19618533822097403
7.7227722772277225,0.18148900593757086
7.742574257425743,0.16794541316479233
7.762376237623762,0.15591585765973417
7.782178217821782,0.14582872889784174
7.801980198019803,0.13815386625710824
7.821782178217822,0.1333406200871812
7.841584158415841,0.13172218261404592
7.861386138613862,0.13342042189092768
7.881188118811881,0.13830574652818145
7.900990099009901,0.14603950346536598
7.92079207920792,0.15616995413568
7.9405940594059405,0.16822731121329113
7.96039603960396,0.1817845536045699
7.980198019801979,0.196482174521058
8.0,0.21202973873583847
8.01980198019802,0.22819694612313626
8.03960396039604,0.24480194560993832
8.05940594059406,0.2617004366339541
8.07920792079208,0.2787767078420448
8.099009900990099,0.2959366898194791
8.118811881188119,0.3131027210407624
8.138613861386139,0.3302096546163323
8.158415841584159,0.3472019736489797
8.178217821782178,0.3640316512960215
8.198019801980198,0.38065655664481163
8.217821782178218,0.39703926026428316
8.237623762376238,0.4131461332725759
8.257425742574258,0.4289466630723994
8.277227722772277,0.4444129300612967
8.297029702970297,0.4595192047961508
8.316831683168317,0.4742416359636567
8.336633663366337,0.4885580073185129
8.356435643564357,0.5024475473876127
8.376237623762377,0.515890779829659
8.396039603960396,0.528869405328806
8.415841584158416,0.5413662081005856
8.435643564356436,0.5533649817182946
8.455445544554456,0.5648504701850191
8.475247524752476,0.5758083210914936
8.495049504950495,0.5862250483930337
8.514851485148515,0.5960880028672897
8.534653465346535,0.6053853487205534
8.554455445544555,0.6141060451242957
8.574257425742575,0.6222398317075877
8.594059405940595,0.6297772172229427
8.613861386138613,0.6367094707535762
8.633663366336634,0.6430286149502756
8.653465346534654,0.6487274208816252
8.673267326732672,0.6537994041585549
8.693069306930694,0.6582388220566837
8.712871287128714,0.6620406714109165
8.732673267326732,0.6652006870993287
8.752475247524753,0.6677153409680596
8.772277227722773,0.6695818410792899
8.792079207920791,0.6707981311893861
8.811881188118813,0.6713628903869844
8.831683168316832,0.6712755328405069
8.85148514851485,0.6705362076228709
8.871287128712872,0.6691457985983572
8.891089108910892,0.6671059243731218
8.91089108910891,0.6644189383277878
8.930693069306932,0.6610879287675921
8.950495049504951,0.6571167192441845
8.97029702970297,0.6525098691234311
8.990099009900991,0.647272674496354
9.00990099009901,0.6414111695565786
9.029702970297029,0.6349321285982041
9.04950495049505,0.6278430688244071
9.06930693069307,0.6201522542006558
9.089108910891088,0.6118687006393431
9.10891089108911,0.6030021828674559
9.12871287128713,0.5935632434089487
9.148514851485148,0.5835632042128898
9.16831683168317,0.5730141815832828
9.188118811881187,0.5619291052236278
9.207920792079207,0.5503217424086698
9.227722772277229,0.5382067285511486
9.247524752475247,0.525599605758925
9.267326732673267,0.5125168714027379
9.287128712871288,0.49897603926833123
9.306930693069306,0.4849957165931452
9.326732673267326,0.4705957012483875
9.346534653465348,0.4557971046056349
9.366336633663366,0.44062250734211755
9.386138613861386,0.4250961577546399
9.405940594059407,0.4092442253031718
9.425742574257425,0.3930951264213004
9.445544554455445,0.37667994558151646
9.465346534653467,0.36003298285322066
9.485148514851485,0.3431924706760317
9.504950495049505,0.3262015185899027
9.524752475247526,0.30910936696460634
9.544554455445544,0.2919730615739134
9.564356435643564,0.2748597026222201
9.584158415841586,0.25784947632538113
9.603960396039604,0.24103974276077614
9.623762376237623,0.22455051857213695
9.643564356435645,0.2085317191218206
9.663366336633663,0.1931724133902832
9.683168316831683,0.17871187478455247
9.702970297029704,0.16545095381945685
9.722772277227723,0.15375962187707337
9.742574257425742,0.14407208505184077
9.762376237623764,0.1368563020844159
9.782178217821782,0.13254656332542009
9.801980198019802,0.1314458823611286
9.821782178217823,0.13363695296847694
9.841584158415841,0.1389547267722808
9.861386138613861,0.14703955148792347
9.881188118811881,0.15743524518887475
9.900990099009901,0.16967919580400528
9.92079207920792,0.1833567241794691
9.94059405940594,0.1981212900673924
9.96039603960396,0.21369386481420183
9.98019801980198,0.22985336449764143
10.0,0.24642507463256094
10.01980198019802,0.2632701141842697
10.03960396039604,0.2802768622934351
10.05940594059406,0.2973543430701339
10.07920792079208,0.31442725107808456
10.099009900990099,0.3314322524428039
10.118811881188119,0.34831524286751064
10.138613861386139,0.3650293115721064
10.158415841584159,0.3815332227230984
10.178217821782178,0.3977902761016969
10.198019801980198,0.41376744659368886
10.217821782178218,0.4294347297693533
10.237623762376238,0.4447646407922993
10.257425742574258,0.4597318282231024
10.277227722772277,0.47431277455824883
10.297029702970297,0.4884855627340109
10.316831683168317,0.5022296931636094
10.336633663366337,0.5155259397568762
10.356435643564357,0.5283562362104753
10.376237623762377,0.5407035859488516
10.396039603960396,0.5525519906485404
10.415841584158416,0.5638863934388251
10.435643564356436,0.5746926337456504
10.455445544554454,0.5849574114081978
10.475247524752476,0.5946682582035314
10.495049504950495,0.6038135153037629
10.514851485148514,0.6123823154913866
10.534653465346535,0.6203645691929546
10.554455445544555,0.6277509535755622
