Frequency (Hz),Amplitude
0.0,4.371014663638557
0.019801980198019802,4.372944045231324
0.039603960396039604,4.3787194474468665
0.0594059405940594,4.388302840358791
0.07920792079207921,4.401631492470568
0.09900990099009901,4.418618922588923
0.1188118811881188,4.439156182884354
0.13861386138613863,4.463113427650794
0.15841584158415842,4.490341714610823
0.1782178217821782,4.520674981168925
0.19801980198019803,4.553932136791891
0.21782178217821782,4.589919214427745
0.2376237623762376,4.628431528095744
0.25742574257425743,4.669255789895794
0.27722772277227725,4.712172147049009
0.297029702970297,4.756956107564758
0.31683168316831684,4.803380331175175
0.33663366336633666,4.851216269831197
0.3564356435643564,4.900235648983593
0.37623762376237624,4.950211786861619
0.39603960396039606,5.000920753908897
0.4158415841584158,5.052142378421778
0.43564356435643564,5.103661107314747
0.45544554455445546,5.1552667329053605
0.4752475247524752,5.206754997795108
0.495049504950495,5.25792809045549
0.5148514851485149,5.308595044147074
0.5346534653465347,5.358572051427292
0.5544554455445545,5.4076827058513315
0.5742574257425742,5.455758181634848
0.594059405940594,5.5026373611030595
0.613861386138614,5.5481669187601685
0.6336633663366337,5.592201369821493
0.6534653465346534,5.634603090090977
0.6732673267326733,5.675242313163166
0.6930693069306931,5.7139971100939775
0.7128712871287128,5.750753355927306
0.7326732673267327,5.785404686787601
0.7524752475247525,5.8178524506501255
0.7722772277227723,5.848005654378313
0.7920792079207921,5.875780909166338
0.8118811881188118,5.901102376137868
0.8316831683168316,5.923901713524038
0.8514851485148516,5.94411802656686
0.8712871287128713,5.961697821063912
0.891089108910891,5.976594961278287
0.9108910891089109,5.988770632780572
0.9306930693069307,5.998193310660488
0.9504950495049505,6.004838733440368
0.9702970297029703,6.008689882936683
0.99009900990099,6.009736970244786
1.00990099009901,6.007977427962418
1.0297029702970297,6.0034159087156675
1.0495049504950495,5.996064290003616
1.0693069306930694,5.985941685331554
1.0891089108910892,5.973074461554095
1.108910891089109,5.957496262295338
1.1287128712871286,5.939248037250343
1.1485148514851484,5.918378077096545
1.1683168316831685,5.894942053651464
1.188118811881188,5.869003064800528
1.2079207920792079,5.840631683580482
1.227722772277228,5.809906010635595
1.2475247524752475,5.776911729059852
1.2673267326732673,5.741742160392532
1.2871287128712872,5.704498320241486
1.3069306930693068,5.665288971660436
1.3267326732673268,5.6242306739990875
1.3465346534653466,5.581447824468834
1.3663366336633662,5.537072689119208
1.3861386138613863,5.4912454192950175
1.405940594059406,5.444114048938319
1.4257425742574257,5.395834467314647
1.4455445544554455,5.346570360881917
1.4653465346534653,5.296493117093527
1.4851485148514851,5.245781681951523
1.504950495049505,5.1946223621267915
1.5247524752475248,5.143208561478406
1.5445544554455446,5.091740440885432
1.5643564356435644,5.040424489515633
1.5841584158415842,4.989472995081952
1.6039603960396038,4.939103400377456
1.6237623762376237,4.889537533550094
1.6435643564356437,4.841000700309013
1.6633663366336633,4.793720627680478
1.683168316831683,4.747926251187755
1.7029702970297032,4.703846340533446
1.7227722772277227,4.66170796310073
1.7425742574257426,4.621734789893161
1.7623762376237624,4.5841452548594726
1.782178217821782,4.54915058576023
1.801980198019802,4.516952732575408
1.8217821782178218,4.487742227551762
1.8415841584158414,4.461696018855052
1.8613861386138615,4.4389753268374585
1.881188118811881,4.41972357751355
1.900990099009901,4.404064471319082
1.920792079207921,4.392100246043865
1.9405940594059405,4.383910190572837
1.9603960396039604,4.379549460554231
1.98019801980198,4.379048238432724
2.0,4.382411268829502
2.01980198019802,4.389617786691035
2.0396039603960396,4.400621840858591
2.0594059405940595,4.415353000756382
2.0792079207920793,4.433717419804254
2.099009900990099,4.455599216882155
2.118811881188119,4.480862127465164
2.1386138613861387,4.509351369401232
2.1584158415841586,4.540895664915409
2.1782178217821784,4.5753093601998955
2.1980198019801978,4.6123945865525195
2.217821782178218,4.651943411937034
2.237623762376238,4.693739938438565
2.257425742574257,4.737562308726828
2.2772277227722775,4.783184592708842
2.297029702970297,4.83037853352326
2.3168316831683167,4.878915139485238
2.336633663366337,4.928566115239249
2.3564356435643563,4.979105131041174
2.376237623762376,5.030308933696247
2.3960396039603964,5.081958306234478
2.4158415841584158,5.133838885979212
2.4356435643564356,5.185741852366493
2.455445544554456,5.237464496831964
2.4752475247524752,5.28881068743558
2.495049504950495,5.339591240773313
2.514851485148515,5.389624213252314
2.5346534653465347,5.438735123085258
2.5544554455445545,5.4867571134812385
2.5742574257425743,5.533531066545742
2.594059405940594,5.578905676406321
2.6138613861386135,5.622737489096344
2.633663366336634,5.664890915785161
2.6534653465346536,5.705238225060369
2.673267326732673,5.743659519157075
2.6930693069306932,5.780042698297705
2.712871287128713,5.814283416654029
2.7326732673267324,5.846285032869613
2.7524752475247527,5.875958557582074
2.7722772277227725,5.903222599954121
2.792079207920792,5.9280033148550215
2.811881188118812,5.950234352023353
2.8316831683168315,5.969856808280427
2.8514851485148514,5.986819183646451
2.8712871287128716,6.001077342031301
2.891089108910891,6.012594477024006
2.910891089108911,6.021341083184127
2.9306930693069306,6.027294933139214
2.9504950495049505,6.030441060711793
2.9702970297029703,6.030771750232381
2.99009900990099,6.028286532138011
3.00990099009901,6.022992184905482
3.0297029702970297,6.01490274332194
3.0495049504950495,6.0040395130479745
3.0693069306930694,5.990431091378537
3.089108910891089,5.974113394049782
3.108910891089109,5.955129687872931
3.128712871287129,5.933530628894981
3.148514851485148,5.909374305687305
3.1683168316831685,5.882726287241567
3.1881188118811883,5.853659674804014
3.2079207920792077,5.822255156798698
3.227722772277228,5.7886010657716565
3.2475247524752473,5.752793436025556
3.267326732673267,5.714936060302304
3.2871287128712874,5.675140543501559
3.3069306930693068,5.633526350990948
3.3267326732673266,5.590220848561835
3.346534653465347,5.545359330507608
3.366336633663366,5.499085031646079
3.386138613861386,5.451549118370433
3.4059405940594063,5.402910652997549
3.4257425742574257,5.353336524792437
3.4455445544554455,5.3030013400961
3.4653465346534653,5.252087262990586
3.485148514851485,5.2007837969295485
3.504950495049505,5.149287496786288
3.5247524752475248,5.097801599881045
3.5445544554455446,5.046535563816108
3.564356435643564,4.995704498461258
3.5841584158415842,4.94552847929856
3.603960396039604,4.896231729677298
3.6237623762376234,4.848041660478954
3.6435643564356437,4.801187757387438
3.6633663366336635,4.75590030853144
3.683168316831683,4.712408968824046
3.702970297029703,4.670941161940918
3.722772277227723,4.63172032656139
3.7425742574257423,4.594964020175134
3.762376237623762,4.560881901253623
3.7821782178217824,4.529673618607378
3.801980198019802,4.501526644879509
3.8217821782178216,4.476614098835377
3.841584158415842,4.455092607781565
3.8613861386138613,4.437100266434489
3.881188118811881,4.422754751232849
3.9009900990099013,4.412151648926192
3.9207920792079207,4.405363054929625
3.9405940594059405,4.40243649031475
3.96039603960396,4.403394176600669
3.98019801980198,4.408232695207029
4.0,4.416923044289965
4.01980198019802,4.4294110906563775
4.03960396039604,4.445618399592207
4.0594059405940595,4.465443411779444
4.079207920792079,4.488762924915425
4.099009900990099,4.515433828864621
4.118811881188119,4.545295037566131
4.138613861386139,4.5781695585858415
4.158415841584159,4.6138666419606045
4.178217821782178,4.652183953425002
4.198019801980198,4.692909722675332
4.217821782178218,4.735824824370814
4.237623762376238,4.780704757453009
4.257425742574258,4.8273214964906925
4.2772277227722775,4.875445196634296
4.297029702970297,4.924845741013748
4.316831683168317,4.975294125780705
4.336633663366336,5.026563683339441
4.356435643564357,5.078431148585378
4.376237623762377,5.130677576207627
4.3960396039603955,5.183089119396486
4.415841584158416,5.23545768174699
4.435643564356436,5.287581454898679
4.455445544554455,5.339265354637034
4.475247524752476,5.390321367932634
4.4950495049504955,5.440568822827343
4.514851485148514,5.4898345922932155
4.534653465346535,5.537953242272599
4.554455445544555,5.584767133124028
4.574257425742574,5.63012648269893
4.594059405940594,5.673889398296594
4.613861386138614,5.715921883815848
4.633663366336633,5.7560978275585075
4.653465346534653,5.794298975351538
4.673267326732674,5.830414892946751
4.693069306930693,5.864342921028763
4.712871287128713,5.89598812561113
4.732673267326733,5.925263246122982
4.752475247524752,5.952088643077839
4.772277227722772,5.97639224686672
4.792079207920793,5.998109508922638
4.811881188118812,6.017183356255992
4.8316831683168315,6.03356415015538
4.851485148514852,6.047209649678228
4.871287128712871,6.058084980416894
4.891089108910891,6.066162608911992
4.910891089108912,6.071422322991662
4.930693069306931,6.07385121823963
4.9504950495049505,6.073443690730602
4.97029702970297,6.070201436117479
4.99009900990099,6.064133455105243
5.00990099009901,6.0552560652997345
5.02970297029703,6.043592919370966
5.0495049504950495,6.029175029418463
5.069306930693069,6.0120407973649135
5.089108910891089,5.992236051132879
5.108910891089109,5.969814086271073
5.128712871287129,5.944835712590115
5.148514851485149,5.9173693052359395
5.1683168316831685,5.88749085946898
5.188118811881188,5.855284048222262
5.207920792079208,5.820840281276731
5.227722772277227,5.78425876461067
5.247524752475248,5.745646558145678
5.267326732673268,5.705118629718044
5.2871287128712865,5.66279790264425
5.306930693069307,5.618815293717374
5.326732673267327,5.573309737861698
5.346534653465346,5.526428194982697
5.366336633663367,5.478325633777988
5.3861386138613865,5.429164986423788
5.405940594059405,5.379117067129701
5.425742574257426,5.328360446576167
5.445544554455446,5.277081273236723
5.465346534653465,5.225473031575998
5.485148514851486,5.173736226149884
5.504950495049505,5.122077979779349
5.524752475247524,5.0707115333019575
5.544554455445545,5.019855634021195
5.564356435643565,4.969733799986691
5.584158415841584,4.920573447775075
5.603960396039604,4.872604872639468
5.623762376237624,4.826060071892772
5.643564356435643,4.781171405313701
5.663366336633663,4.73817009031401
5.683168316831684,4.697284534634727
5.702970297029703,4.658738515431222
5.7227722772277225,4.622749220656091
5.742574257425743,4.589525176437246
5.762376237623762,4.559264092337456
5.782178217821782,4.532150664510146
5.801980198019803,4.508354384266219
5.821782178217822,4.488027405799352
5.841584158415841,4.471302531125676
5.861386138613861,4.458291372072126
5.881188118811881,4.449082747922117
5.900990099009901,4.443741372827491
5.920792079207921,4.442306879320286
5.9405940594059405,4.444793213503672
5.96039603960396,4.451188424360814
5.98019801980198,4.46145485493404
6.0,4.475529727904172
6.01980198019802,4.49332610340707
6.03960396039604,4.514734173770452
6.0594059405940595,4.539622849080205
6.079207920792079,4.567841579683801
6.099009900990099,4.599222357207261
6.118811881188119,4.633581834399411
6.138613861386139,4.670723505855795
6.158415841584159,4.710439895941188
6.178217821782178,4.752514706420278
6.198019801980198,4.796724883766567
6.217821782178218,4.8428425742115975
6.237623762376237,4.890636942754314
6.257425742574258,4.9398758401137375
6.2772277227722775,4.9903273086382205
6.297029702970296,5.041760924264417
6.316831683168317,5.09394897664204
6.336633663366337,5.146667493489219
6.356435643564356,5.199697118170707
6.376237623762377,5.252823851495571
6.396039603960396,5.30583966993925
6.415841584158415,5.358543033043129
6.435643564356436,5.4107392927704225
6.455445544554456,5.4622410172261
6.475247524752475,5.5128682404938445
6.495049504950495,5.562448649500089
6.514851485148515,5.610817717862091
6.534653465346534,5.657818795675532
6.554455445544554,5.703303163194391
6.574257425742575,5.747130055385019
6.594059405940594,5.789166663421217
6.6138613861386135,5.829288118342298
6.633663366336634,5.867377461329021
6.653465346534653,5.9033256043660485
6.673267326732673,5.9370312844537265
6.693069306930694,5.968401014002183
6.712871287128713,5.997349029583135
6.732673267326732,6.023797240822512
6.752475247524753,6.047675180883838
6.772277227722772,6.068919959712133
6.792079207920792,6.087476220973467
6.811881188118813,6.103296103431347
6.8316831683168315,6.116339207340873
6.851485148514851,6.126572566310684
6.871287128712871,6.133970624975422
6.891089108910891,6.138515222733997
6.910891089108911,6.1401955837365785
6.930693069306931,6.139008313242291
6.9504950495049505,6.134957400416778
6.97029702970297,6.128054227589866
6.99009900990099,6.118317585946096
7.00990099009901,6.105773697570618
7.02970297029703,6.0904562437171395
7.0495049504950495,6.07240639909963
7.069306930693069,6.0516728719306325
7.089108910891089,6.0283119493344195
7.108910891089109,6.002387547645746
7.128712871287128,5.9739712669623
7.148514851485149,5.94314244914455
7.1683168316831685,5.909988238245363
7.188118811881187,5.8746036420974646
7.207920792079208,5.837091593483378
7.227722772277228,5.797563008952548
7.247524752475247,5.7561368429281
7.267326732673268,5.712940134253898
7.287128712871287,5.6681080417654846
7.306930693069306,5.621783864821806
7.326732673267327,5.574119044005118
7.346534653465347,5.525273136384608
7.366336633663366,5.475413758849291
7.3861386138613865,5.424716492058346
7.405940594059406,5.3733647365487
7.425742574257425,5.321549511508721
7.445544554455446,5.269469185711266
7.465346534653466,5.217329129152063
7.485148514851485,5.165341273128899
7.504950495049505,5.113723565909495
7.524752475247524,5.062699310874429
7.544554455445544,5.012496374206465
7.564356435643565,4.963346249962956
7.584158415841584,4.9154829718533435
7.603960396039604,4.869141863387727
7.623762376237624,4.824558121385397
7.643564356435643,4.78196523222152
7.663366336633663,4.7415932256767865
7.683168316831684,4.703666777792933
7.702970297029703,4.668403181580278
7.7227722772277225,4.636010212508357
7.742574257425743,4.606683924049651
7.762376237623762,4.580606416629709
7.782178217821782,4.557943630559202
7.801980198019803,4.538843219222956
7.821782178217822,4.523432562321977
7.841584158415841,4.511816979731336
7.861386138613862,4.5040782041347684
7.881188118811881,4.500273164843734
7.900990099009901,4.500433126207988
7.92079207920792,4.504563212188003
7.9405940594059405,4.512642334682707
7.96039603960396,4.524623528013972
7.980198019801979,4.540434676617952
8.0,4.559979608555246
8.01980198019802,4.583139514900674
8.03960396039604,4.609774645177791
8.05940594059406,4.639726222260926
8.07920792079208,4.6728185167693175
8.099009900990099,4.708861020821572
8.118811881188119,4.747650663750527
8.138613861386139,4.78897401746291
8.158415841584159,4.832609445927544
8.178217821782178,4.87832916112497
8.198019801980198,4.925901156066315
8.217821782178218,4.9750909936513885
8.237623762376238,5.025663437762962
8.257425742574258,5.077383919787227
8.277227722772277,5.130019839532101
8.297029702970297,5.183341704211053
8.316831683168317,5.237124112781806
8.336633663366337,5.291146595548309
8.356435643564357,5.345194320662499
8.376237623762377,5.39905868013366
8.396039603960396,5.45253776830619
8.415841584158416,5.50543676563734
8.435643564356436,5.557568240118389
8.455445544554456,5.6087523779435875
8.475247524752476,5.6588171541314445
8.495049504950495,5.707598452815951
8.514851485148515,5.754940145907329
8.534653465346535,5.800694137816277
8.554455445544555,5.8447203829715155
8.574257425742575,5.886886881958893
8.594059405940595,5.927069661283114
8.613861386138613,5.9651527410059195
8.633663366336634,6.0010280938499205
8.653465346534654,6.034595598771555
8.673267326732672,6.065762991497754
8.693069306930694,6.094445814081852
8.712871287128714,6.120567365159155
8.732673267326732,6.144058652265794
8.752475247524753,6.164858347317252
8.772277227722773,6.182912746121758
8.792079207920791,6.198175732619192
8.811881188118813,6.210608748385951
8.831683168316832,6.220180767822007
8.85148514851485,6.226868279335818
8.871287128712872,6.2306552727598765
8.891089108910892,6.231533233160705
8.91089108910891,6.229501141148894
8.930693069306932,6.224565479742529
8.950495049504951,6.216740247788826
8.97029702970297,6.206046979899326
8.990099009900991,6.192514772801562
9.00990099009901,6.176180317949788
9.029702970297029,6.1570879401663765
9.04950495049505,6.1352896419998695
9.06930693069307,6.110845153380746
9.089108910891088,6.0838219860273455
9.10891089108911,6.0542954918979115
9.12871287128713,6.022348924792957
9.148514851485148,5.988073503981899
9.16831683168317,5.951568478450358
9.188118811881187,5.91294119003476
9.207920792079207,5.872307133321291
9.227722772277229,5.829790009729793
9.247524752475247,5.7855217726744765
9.267326732673267,5.739642660085138
9.287128712871288,5.6923012098823
9.306930693069306,5.643654253224386
9.326732673267326,5.593866879487223
9.346534653465348,5.543112366001531
9.366336633663366,5.491572064576171
9.386138613861386,5.439435235794854
9.405940594059407,5.386898821023288
9.425742574257425,5.334167141047548
9.445544554455445,5.28145150934173
9.465346534653467,5.228969747210499
9.485148514851485,5.176945587563805
9.504950495049505,5.125607953969626
9.524752475247526,5.07519010202341
9.544554455445544,5.025928611110394
9.564356435643564,4.978062216461974
9.584158415841586,4.931830474155884
9.603960396039604,4.887472255494572
9.623762376237623,4.845224072086653
9.643564356435645,4.805318238957541
9.663366336633663,4.767980890044268
9.683168316831683,4.733429868293956
9.702970297029704,4.70187252096932
9.722772277227723,4.6735034392248815
9.742574257425742,4.648502188994787
9.762376237623764,4.627031087082535
9.782178217821782,4.609233081385502
9.801980198019802,4.595229796776081
9.821782178217823,4.585119807763722
9.841584158415841,4.578977195337074
9.861386138613861,4.576850438253366
9.881188118811881,4.578761678726664
9.900990099009901,4.5847063895009486
9.92079207920792,4.594653454483898
9.94059405940594,4.608545659468384
9.96039603960396,4.626300574074409
9.98019801980198,4.647811791973538
10.0,4.672950484631559
10.01980198019802,4.701567214907283
10.03960396039604,4.733493951266182
10.05940594059406,4.768546221183912
10.07920792079208,4.806525343318624
10.099009900990099,4.847220681784001
10.118811881188119,4.890411871762813
10.138613861386139,4.935870973095621
10.158415841584159,4.983364516694016
10.178217821782178,5.032655417055856
10.198019801980198,5.083504732296225
10.217821782178218,5.135673260570064
10.237623762376238,5.188922968295561
10.257425742574258,5.243018251051465
10.277227722772277,5.2977270323786705
10.297029702970297,5.352821709001964
10.316831683168317,5.408079953294365
10.336633663366337,5.463285385256946
10.356435643564357,5.518228127021269
10.376237623762377,5.572705253040897
10.396039603960396,5.6265211488566775
10.415841584158416,5.679487790716814
10.435643564356436,5.731424957511588
10.455445544554454,5.782160385527261
10.475247524752476,5.831529875504155
10.495049504950495,5.879377360449921
10.514851485148514,5.925554941650952
10.534653465346535,5.969922899367275
10.554455445544555,6.012349683808383
10.574257425742573,6.052711891176987
10.594059405940595,6.090894228840702
10.613861386138614,6.126789473046653
10.633663366336632,6.1602984220296415
10.653465346534654,6.191329846874275
10.673267326732674,6.219800442071159
10.693069306930692,6.245634777349268
10.712871287128714,6.268765252064185
10.732673267326733,6.28913205316927
10.752475247524751,6.306683117586255
10.772277227722773,6.321374099618567
10.792079207920793,6.333168343908156
10.81188118811881,6.342036864320342
10.831683168316832,6.347958329045793
10.851485148514852,6.350919052130557
10.87128712871287,6.35091299157941
10.891089108910892,6.347941754120616
