Frequency (Hz),Amplitude
0.0,2.9369170344047797
0.020066889632107024,2.9355545068736753
0.04013377926421405,2.9314685415689126
0.060200668896321065,2.924663991422064
0.0802675585284281,2.915148948256099
0.10033444816053512,2.9029347483693697
0.12040133779264213,2.8880359807157077
0.14046822742474915,2.870470498056472
0.1605351170568562,2.850259431587502
0.1806020066889632,2.82742720968699
0.20066889632107024,2.8020015815943533
0.22073578595317725,2.7740136470211807
0.24080267558528426,2.7434978929206473
0.2608695652173913,2.7104922389101094
0.2809364548494983,2.6750380931646163
0.3010033444816054,2.6371804209902137
0.3210702341137124,2.596967828763418
0.34113712374581934,2.554452666509337
0.3612040133779264,2.509691153114486
0.3812709030100334,2.4627435290682484
0.4013377926421405,2.4136742427467404
0.42140468227424743,2.3625521776556444
0.4414715719063545,2.309450929814462
0.4615384615384615,2.254449146696137
0.4816053511705685,2.1976309419681477
0.5016722408026756,2.139086403888359
0.5217391304347826,2.0789122198186045
0.5418060200668896,2.017212445225586
0.5618729096989966,1.954099453121186
0.5819397993311036,1.8896951096352852
0.6020066889632107,1.8241322339159256
0.6220735785953176,1.7575564165433657
0.6421404682274248,1.690128290958506
0.6622073578595318,1.6220263778919264
0.6822742474916387,1.5534506540788187
0.7023411371237458,1.4846270335930989
0.7224080267558528,1.415812991135025
0.7424749163879598,1.3473045960267334
0.7625418060200668,1.2794452504839617
0.7826086956521738,1.2126364087370003
0.802675585284281,1.1473504422587266
0.8227424749163879,1.0841455163246312
0.8428093645484949,1.0236816986305413
0.862876254180602,0.9667363064865084
0.882943143812709,0.9142144662404144
0.903010033444816,0.8671479268198073
0.923076923076923,0.8266718975673129
0.9431438127090299,0.793968021359392
0.963210702341137,0.7701653351267213
0.983277591973244,0.7562042687629779
1.0033444816053512,0.7526905273961738
1.0234113712374582,0.7597845773019435
1.0434782608695652,0.777170240363106
1.0635451505016722,0.8041159676333598
1.0836120401337792,0.8396027698438959
1.1036789297658862,0.8824713317199626
1.1237458193979932,0.9315474395611253
1.1438127090301002,0.9857266557279114
1.1638795986622072,1.044018778098136
1.1839464882943145,1.105562364417791
1.2040133779264215,1.1696210294462108
1.2240802675585283,1.235570692398197
1.2441471571906353,1.3028836645672655
1.2642140468227423,1.371112820014642
1.2842809364548495,1.4398773574925035
1.3043478260869565,1.5088506668870643
1.3244147157190636,1.5777503059786535
1.3444816053511706,1.6463298702546378
1.3645484949832773,1.714372466686591
1.3846153846153846,1.7816855035880759
1.4046822742474916,1.848096540441467
1.4247491638795986,1.9134499824485434
1.4448160535117056,1.9776044445689192
1.4648829431438126,2.0404306449873437
1.4849498327759196,2.1018097172389285
1.5050167224080266,2.1616318538710106
1.5250836120401337,2.2197952132789407
1.5451505016722407,2.2762050360795243
1.5652173913043477,2.33077292888228
1.5852842809364547,2.383416282271707
1.605351170568562,2.434057796783774
1.625418060200669,2.482625096092175
1.6454849498327757,2.5290504108631655
1.6655518394648827,2.57327032006166
1.6856187290969897,2.6152255391041903
1.705685618729097,2.654860746315944
1.725752508361204,2.692124440782724
1.745819397993311,2.7269688259884495
1.765886287625418,2.7593497146680455
1.7859531772575248,2.7892264511402036
1.806020066889632,2.8165618480582055
1.826086956521739,2.8413221350639213
1.846153846153846,2.8634769172763197
1.866220735785953,2.8829991419125998
1.8862876254180598,2.899865071643163
1.9063545150501673,2.914054263534932
1.926421404682274,2.925549552650231
1.9464882943143813,2.934337039550219
1.966555183946488,2.9404060811083226
1.9866220735785953,2.9437492841767354
2.0066889632107023,2.9443625017721833
2.026755852842809,2.94224483155976
2.0468227424749164,2.9373986165196353
2.0668896321070234,2.9298294477838103
2.0869565217391304,2.919546169732038
2.1070234113712374,2.9065608875407825
2.1270903010033444,2.8908889774897237
2.1471571906354514,2.8725491004502337
2.1672240802675584,2.8515632191137175
2.1872909698996654,2.8279566196687833
2.2073578595317724,2.801757938810546
2.2274247491638794,2.7729991971692276
2.2474916387959865,2.741715840486659
2.267558528428094,2.707946790157738
2.2876254180602005,2.671734505101896
2.3076923076923075,2.6331250573520806
2.3277591973244145,2.5921682242653765
2.3478260869565215,2.5489176008944145
2.367892976588629,2.503430736843814
2.3879598662207355,2.455769302911414
2.408026755852843,2.4059992940318424
2.4280936454849495,2.354191276566987
2.4481605351170566,2.300420689911703
2.468227424749164,2.244768214815796
2.4882943143812706,2.187320223911912
2.508361204013378,2.1281693338740597
2.5284280936454846,2.0674150836593346
2.548494983277592,2.0051647697249972
2.568561872909699,1.9415344773709966
2.5886287625418056,1.8766503579482285
2.608695652173913,1.8106502152265105
2.6287625418060196,1.7436854814797729
2.648829431438127,1.6759236856351025
2.668896321070234,1.6075515429015972
2.688963210702341,1.538778828028759
2.709030100334448,1.469843232099918
2.7290969899665547,1.4010164425615648
2.749163879598662,1.332611720196824
2.769230769230769,1.2649932577180578
2.789297658862876,1.1985875579867873
2.809364548494983,1.1338969009992823
2.82943143812709,1.0715145657365353
2.849498327759197,1.0121406597773437
2.869565217391304,0.9565959520486164
2.8896321070234112,0.9058287946880321
2.9096989966555182,0.8609071480287078
2.9297658862876252,0.8229848389073662
2.9498327759197323,0.7932310165343487
2.9698996655518393,0.772718376663618
2.9899665551839463,0.7622820056538022
3.0100334448160533,0.7623825671676956
3.0301003344481603,0.773020533265119
3.0501672240802673,0.7937363853160273
3.0702341137123748,0.8236966689810035
3.0903010033444813,0.8618308369270982
3.1103678929765888,0.9069722126097324
3.1304347826086953,0.957969489759642
3.1505016722408024,1.0137570380926308
3.1705685618729094,1.0733884977675552
3.1906354515050164,1.1360446952528807
3.210702341137124,1.2010267233824257
3.2307692307692304,1.267742143522459
3.250836120401338,1.3356892036470054
3.270903010033445,1.4044416651518474
3.2909698996655514,1.4736353798495812
3.311036789297659,1.5429569490661599
3.3311036789297654,1.612134395622487
3.351170568561873,1.6809296114444987
3.3712374581939795,1.7491322971339882
3.391304347826087,1.8165551207825859
3.411371237458194,1.8830298571922066
3.4314381270903005,1.948404308306834
3.451505016722408,2.0125398432698627
3.471571906354515,2.075309429130447
3.491638795986622,2.1365960501902252
3.511705685618729,2.1962914356917156
3.531772575250836,2.254295032751576
3.551839464882943,2.310513174948931
3.5719063545150496,2.364858407533304
3.591973244147157,2.4172489384477087
3.612040133779264,2.467608190781513
3.632107023411371,2.515864437279932
3.652173913043478,2.5619505014603963
3.672240802675585,2.605803512965456
3.692307692307692,2.647364707207977
3.712374581939799,2.6865792612826347
3.732441471571906,2.723396159640982
3.752508361204013,2.757768084241958
3.7725752508361197,2.7896513248630157
3.7926421404682276,2.819005706040315
3.8127090301003346,2.845794527740338
3.832775919732441,2.8699845173808423
3.852842809364548,2.891545791241108
3.872909698996655,2.910451823648962
3.8929765886287626,2.926679422620552
3.9130434782608696,2.9402087108702832
3.933110367892976,2.9510231113125758
3.953177257525083,2.9591093363519008
3.9732441471571907,2.9644573804093213
3.9933110367892977,2.9670605152681104
4.013377926421405,2.96691528794212
4.033444816053511,2.9640215208824476
4.053511705685618,2.958382314444476
4.073578595317726,2.950004051641154
4.093645484949833,2.938896405313177
4.113712374581939,2.9250723479553495
4.133779264214047,2.9085481645544626
4.153846153846153,2.8893434689208615
4.173913043478261,2.867481224138083
4.193979933110368,2.842987767916955
4.214046822742475,2.815892843828543
4.234113712374581,2.786229639610866
4.254180602006689,2.754034834006554
4.274247491638796,2.71934865390248
4.294314381270903,2.682214943922256
4.314381270903009,2.6426812510837068
4.334448160535117,2.6007989276989782
4.354515050167224,2.5566232563901155
4.374581939799331,2.5102136019536703
4.394648829431437,2.4616335958777307
4.414715719063545,2.4109513606508326
4.434782608695651,2.3582397826784667
4.454849498327759,2.3035768447337635
4.474916387959866,2.2470460315386624
4.494983277591973,2.1887368254586153
4.5150501672240795,2.1287453136053944
4.535117056856188,2.067174933143178
4.555183946488294,2.0041373886238625
4.575250836120401,1.939753784167446
4.595317725752508,1.8741560247856575
4.615384615384615,1.8074885557603815
4.635451505016722,1.739910527455897
4.655518394648829,1.6715984959922436
4.6755852842809364,1.602749798369696
4.695652173913043,1.533586773822377
4.71571906354515,1.4643620398079262
4.735785953177258,1.3953650663507995
4.7558528428093645,1.3269303154024354
4.775919732441471,1.259447199641581
4.795986622073578,1.1933720240337196
4.816053511705686,1.1292418254139707
4.8361204013377925,1.0676894915470818
4.856187290969899,1.0094585331188148
4.8762541806020065,0.9554141814301996
4.896321070234113,0.9065449799766279
4.916387959866221,0.863946076898659
4.936454849498328,0.8287734199304375
4.956521739130435,0.8021599900778787
4.976588628762541,0.7850948391294399
4.996655518394649,0.7782838603763187
5.016722408026756,0.782030482444216
5.036789297658863,0.7961794083213068
5.056856187290969,0.8201465083675926
5.076923076923077,0.8530223124315508
5.096989966555184,0.8937095690595392
5.117056856187291,0.9410528532667439
5.137123745819398,0.9939347514873262
5.157190635451505,1.0513329235317777
5.177257525083611,1.1123448346824116
5.197324414715719,1.1761909269842001
5.217391304347826,1.2422058421442792
5.237458193979933,1.3098244350684367
5.257525083612039,1.3785666025712882
5.277591973244148,1.448023002998398
5.297658862876254,1.5178425418880372
5.317725752508361,1.5877218397862403
5.337792642140468,1.6573965772586359
5.357859531772575,1.7266344819519532
5.377926421404682,1.7952296911988759
5.397993311036789,1.862998238421002
5.418060200668896,1.929774444316792
5.438127090301003,1.9954080305240365
5.458193979933109,2.059761807804558
5.478260869565218,2.1227098204560226
5.498327759197324,2.1841358531648396
5.518394648829431,2.243932226267357
5.538461538461538,2.301998821072109
5.558528428093646,2.3582422892449366
5.578595317725752,2.412575409937331
5.598662207357859,2.4649165659097396
5.618729096989966,2.515189315824765
5.638795986622073,2.563322044524993
5.65886287625418,2.609247676752979
5.678929765886288,2.652903442639055
5.698996655518394,2.694230685548804
5.719063545150501,2.733174704679134
5.739130434782608,2.769684626222748
5.759197324414716,2.803713298065325
5.7792642140468224,2.835217203898919
5.799331103678929,2.8641563933771494
5.8193979933110365,2.890494425539944
5.839464882943144,2.9141983232267132
5.8595317725752505,2.935238536600094
5.879598662207358,2.95358891423567
5.8996655518394645,2.9692266805106415
5.919732441471571,2.982132418257693
5.9397993311036785,2.9922900558486956
5.959866220735786,2.9996868580435594
5.9799331103678925,3.0043134200887414
5.999999999999999,3.006163664683061
6.020066889632107,3.005234841549516
6.040133779264214,3.0015275294649366
6.060200668896321,2.9950456407078647
6.080267558528428,2.9857964279924594
6.100334448160535,2.973790494065604
6.120401337792642,2.9590418042590705
6.1404682274247495,2.941567702412284
6.160535117056856,2.9213889307175616
6.180602006688963,2.898529654193579
6.200668896321069,2.8730174906691954
6.2207357859531776,2.844883547365081
6.240802675585284,2.8141624654027706
6.260869565217391,2.780892473858942
6.280936454849498,2.7451154553288597
6.301003344481605,2.7068770253818997
6.321070234113712,2.6662266288021597
6.341137123745819,2.6232176561320877
6.361204013377926,2.5779075848065753
6.381270903010033,2.5303581501173493
6.40133779264214,2.4806355524313566
6.421404682274248,2.428810708565139
6.441471571906354,2.3749595570703566
6.461538461538461,2.3191634295178956
6.481605351170568,2.261509502813213
6.501672240802676,2.2020913513062554
6.521739130434782,2.1410096221968846
6.54180602006689,2.078372863763514
6.561872909698996,2.0142985436147605
6.581939799331103,1.948914303923394
6.60200668896321,1.8823595129809865
6.622073578595318,1.8147871880214497
6.642140468227424,1.7463663837393206
6.662207357859531,1.6772851648053435
6.682274247491639,1.6077543090900812
6.702341137123746,1.538011920385234
6.722408026755852,1.468329162157509
6.742474916387959,1.399017350003055
6.762541806020066,1.330436644650603
6.782608695652174,1.2630065398150405
6.80267558528428,1.1972181858382722
6.822742474916388,1.1336482392684117
6.842809364548494,1.0729732392463658
6.862876254180601,1.0159822988094864
6.882943143812709,0.9635839979929649
6.903010033444816,0.9168008287071796
6.9230769230769225,0.8767420507577547
6.94314381270903,0.8445452315312493
6.963210702341137,0.821281179793204
6.983277591973244,0.8078291696215623
7.0033444816053505,0.8047474541803524
7.023411371237458,0.8121781398213822
7.0434782608695645,0.8298218136823402
7.063545150501672,0.8569921588139277
7.083612040133779,0.8927287718632398
7.103678929765886,0.9359287005619614
7.123745819397993,0.9854616408019023
7.143812709030099,1.0402509637600552
7.1638795986622075,1.0993192655621955
7.183946488294314,1.1618061993740687
7.204013377926421,1.2269684610131681
7.224080267558528,1.294170185421447
7.2441471571906355,1.3628693704943895
7.264214046822742,1.4326036244594624
7.2842809364548495,1.5029769117041594
7.304347826086956,1.573647984413772
7.324414715719063,1.644320647999599
7.34448160535117,1.7147357465622164
7.364548494983278,1.7846646496970806
7.384615384615384,1.8539039984465056
7.404682274247491,1.9222714828466714
7.424749163879598,1.9896024530469925
7.444816053511706,2.05574719872276
7.464882943143812,2.120568762143369
7.48494983277592,2.183941176784975
7.505016722408026,2.245748045391597
7.525083612040134,2.3058813892161405
7.545150501672239,2.3642407143985027
7.565217391304348,2.4207322526932344
7.585284280936455,2.475268342622105
7.605351170568561,2.5277669240931107
7.625418060200669,2.578151125001044
7.645484949832775,2.62634892263104
7.665551839464882,2.6722928660810696
7.685618729096991,2.7159198486027734
7.705685618729096,2.7571709208879263
7.725752508361204,2.7959911380215776
7.74581939799331,2.832329434176159
7.765886287625418,2.8661385202067917
7.785953177257525,2.897374800183329
7.806020066889631,2.9259983036033637
7.826086956521739,2.9519726306076457
7.846153846153847,2.9752649079917015
7.866220735785952,2.995845754196429
7.88628762541806,3.013689251783604
7.906354515050166,3.028772926172038
7.926421404682274,3.0410777296384492
7.946488294314381,3.050588029781886
7.966555183946488,3.057291601819661
7.986622073578595,3.061179624231292
8.006688963210701,3.06224667740105
8.02675585284281,3.0604907450323746
8.046822742474916,3.055913218223765
8.066889632107022,3.0485189022084542
8.08695652173913,3.038316025872862
8.107023411371236,3.0253162542851393
8.127090301003344,3.009534704588172
8.147157190635452,2.9909899657452352
8.167224080267557,2.9697041227755343
8.187290969899665,2.9457027862856062
8.207357859531772,2.919015128297296
8.227424749163879,2.8896739256006896
8.247491638795987,2.85771561212913
8.267558528428093,2.823180342174611
8.2876254180602,2.786112066647807
8.307692307692307,2.7465586250545058
8.327759197324415,2.70457185643014
8.347826086956522,2.6602077331721534
8.367892976588628,2.6135265225694
8.387959866220736,2.5645929818912587
8.408026755852843,2.5134765942198176
8.42809364548495,2.4602518538559845
8.448160535117056,2.404998612192558
8.468227424749163,2.347802497537711
8.488294314381271,2.2887554256351597
8.508361204013378,2.2279562217478857
8.528428093645484,2.1655113803840393
8.548494983277592,2.101535995340608
8.568561872909697,2.0361549010854536
8.588628762541806,1.9695040770267391
8.608695652173914,1.9017323794318162
8.628762541806019,1.8330036821828093
8.648829431438127,1.7634995276537766
8.668896321070234,1.6934224129471214
8.68896321070234,1.6229998640185246
8.709030100334449,1.5524894788258514
8.729096989966555,1.4821851455341688
8.749163879598662,1.4124246523363577
8.769230769230768,1.3435988808573638
8.789297658862875,1.2761626775464965
8.809364548494983,1.2106472621372617
8.82943143812709,1.1476735567942582
8.849498327759196,1.0879649610470046
8.869565217391303,1.032356700397579
8.889632107023411,0.9817968785120578
8.909698996655518,0.9373320477449939
8.929765886287624,0.900068525579603
8.949832775919733,0.8711019753234593
8.96989966555184,0.8514146990839039
8.989966555183946,0.8417536704891486
9.010033444816054,0.8425180939249305
9.030100334448159,0.8536924750365511
9.050167224080267,0.8748501563608839
9.070234113712376,0.9052258602796369
9.09030100334448,0.9438303374661061
9.110367892976589,0.989571181173405
9.130434782608695,1.0413524643050056
9.150501672240802,1.0981417677037018
9.17056856187291,1.159006130230408
9.190635451505017,1.2231246978530073
9.210702341137123,1.2897867301323487
9.23076923076923,1.3583818973380883
9.250836120401337,1.428387500254108
9.270903010033445,1.4993553120858543
9.290969899665551,1.5708994098229527
9.311036789297658,1.6426855520890995
9.331103678929765,1.7144222157306037
9.351170568561873,1.7858531856855282
9.37123745819398,1.856751504328406
9.391304347826086,1.926914566191291
9.411371237458194,1.9961601561103781
9.4314381270903,2.0643232540164504
9.451505016722408,2.131253457853894
9.471571906354516,2.1968129028414167
9.49163879598662,2.2608745786421225
9.511705685618729,2.323320965560266
9.531772575250837,2.384042926838382
9.551839464882942,2.4429388069560085
9.57190635451505,2.4999136960500725
9.591973244147155,2.554878828676363
9.612040133779264,2.607751091535705
9.632107023411372,2.6584526198495313
9.652173913043477,2.7069104660721197
9.672240802675585,2.7530563277984745
9.692307692307692,2.7968263242452784
9.712374581939798,2.838160812689249
9.732441471571907,2.8770042378507124
9.752508361204013,2.9133050084975514
9.77257525083612,2.9470153965809396
9.792642140468226,2.978091455053477
9.812709030100335,3.0064929512021434
9.832775919732441,3.0321833128858002
9.852842809364548,3.0551295855251523
9.872909698996656,3.075302398071835
9.89297658862876,3.092675936499156
9.91304347826087,3.107227923622455
9.933110367892976,3.1189396042824873
9.953177257525082,3.127795735119094
9.97324414715719,3.1337845783317366
9.993311036789297,3.136897898973666
10.013377926421404,3.1371309654631827
10.033444816053512,3.1344825531219294
10.053511705685617,3.1289549506715653
10.073578595317725,3.1205539697388693
10.093645484949834,3.109288957540017
10.113712374581938,3.095172813039885
10.133779264214047,3.0782220070168176
10.153846153846153,3.0584566066102834
10.17391304347826,3.035900305093844
10.193979933110368,3.010580457804069
10.214046822742475,2.9825281253735825
10.234113712374581,2.9517781256721367
10.254180602006688,2.9183690961619093
10.274247491638796,2.8823435687349503
10.294314381270903,2.843748059535974
10.31438127090301,2.802633176801333
10.334448160535118,2.759053750387522
10.354515050167223,2.7130689874501552
10.37458193979933,2.6647426597023665
10.394648829431437,2.6141433288786327
10.414715719063544,2.5613446185137465
10.434782608695652,2.506425541993954
10.454849498327757,2.449470899143755
10.474916387959865,2.3905717564993614
10.494983277591974,2.329826030043462
10.515050167224079,2.2673391937289917
10.535117056856187,2.2032251428446825
10.555183946488295,2.1376072484667845
10.5752508361204,2.070619648253051
10.595317725752508,2.002408830066163
10.615384615384615,1.9331355787853646
10.635451505016722,1.8629773735405106
10.65551839464883,1.7921313426332939
10.675585284280936,1.7208179062209563
10.695652173913043,1.649285260936229
10.71571906354515,1.5778148823245373
10.735785953177256,1.5067282325553735
10.755852842809364,1.436394847370647
10.775919732441471,1.3672419105873332
10.795986622073578,1.2997652603877923
10.816053511705684,1.2345414353575332
10.836120401337793,1.1722397536723668
