Time (s),Filtered Signal
0.0,-0.05336804408267365
0.033370535714285714,0.0678516290087469
0.06674107142857143,0.14343838288628685
0.10011160714285713,0.14343120308497043
0.13348214285714285,0.06327580824900172
0.16685267857142858,-0.07749343051577043
0.20022321428571427,-0.24531660393236818
0.23359375,-0.40574149630895684
0.2669642857142857,-0.5334790820699459
0.30033482142857143,-0.6160213212665822
0.33370535714285715,-0.6514693795372133
0.36707589285714287,-0.6439565297624302
0.40044642857142854,-0.6001600756275499
0.43381696428571426,-0.5283401183369502
0.4671875,-0.4388516616542129
0.5005580357142857,-0.3439058403017799
0.5339285714285714,-0.25517000506708754
0.5672991071428571,-0.17983865395273804
0.6006696428571429,-0.11750171143130121
0.6340401785714286,-0.06019433954950263
0.6674107142857143,0.003691970064588319
0.70078125,0.08331562507648091
0.7341517857142857,0.18022867570771836
0.7675223214285715,0.28684410128623056
0.8008928571428571,0.38919156758082246
0.8342633928571428,0.472327083008821
0.8676339285714285,0.525601612645159
0.9010044642857142,0.5455524157098671
0.934375,0.5358722011313551
0.9677455357142857,0.5054763865018187
1.0011160714285714,0.4661275310864167
1.0344866071428571,0.43032969596430376
1.0678571428571428,0.4091250174055099
1.1012276785714286,0.4090869098827303
1.1345982142857143,0.4286704300405865
1.16796875,0.45557812317013546
1.2013392857142857,0.46764644079410606
1.2347098214285714,0.4388699769642643
1.2680803571428572,0.349577743008738
1.3014508928571429,0.196806175504469
1.3348214285714286,-0.000460112197229111
1.3681919642857143,-0.20498240704850781
1.4015625,-0.37363347547638653
1.4349330357142858,-0.4736072272330986
1.4683035714285715,-0.4952013256488398
1.5016741071428572,-0.45517330202520095
1.535044642857143,-0.3891547019591293
1.5684151785714286,-0.33690155755809176
1.6017857142857141,-0.32736321770588656
1.6351562499999999,-0.36999932372761535
1.6685267857142856,-0.45499659263600395
1.7018973214285713,-0.5603629901080424
1.735267857142857,-0.6609747665090875
1.7686383928571427,-0.7349422296545445
1.8020089285714285,-0.7655611297820238
1.8353794642857142,-0.7405152686535258
1.86875,-0.6516176965782474
1.9021205357142856,-0.4972293200181227
1.9354910714285714,-0.2865070114003557
1.968861607142857,-0.04206635713915842
2.002232142857143,0.20245659764158339
2.0356026785714287,0.4107505561475592
2.0689732142857142,0.555078910245157
2.10234375,0.6251419917953115
2.1357142857142857,0.6301325000146639
2.169084821428571,0.5931011017979918
2.202455357142857,0.5407140136441733
2.2358258928571426,0.493509964159831
2.2691964285714286,0.4608691611987785
2.302566964285714,0.4419210953881984
2.3359375,0.4304395442236071
2.3693080357142855,0.4201468106247015
2.4026785714285714,0.40744315180537494
2.436049107142857,0.3907672932131298
2.469419642857143,0.3681312125847777
2.5027901785714284,0.33543446721905673
2.5361607142857143,0.2873602295791768
2.56953125,0.22057323218655656
2.6029017857142858,0.13699845419939422
2.6362723214285713,0.04452830409673677
2.669642857142857,-0.04600496393133032
2.7030133928571427,-0.12623229856226284
2.7363839285714286,-0.1947763640158839
2.769754464285714,-0.2577596938643663
2.803125,-0.32436885137476584
2.8364955357142856,-0.39962373051435446
2.8698660714285715,-0.47852542748607824
2.903236607142857,-0.545389500932843
2.936607142857143,-0.5794886675305654
2.9699776785714285,-0.5646110355115755
3.0033482142857144,-0.4977966947537786
3.03671875,-0.3926866307488611
3.070089285714286,-0.2754995905751106
3.1034598214285714,-0.17522053629572987
3.1368303571428573,-0.11228989555030375
3.170200892857143,-0.09069155077798087
3.2035714285714283,-0.09676148973773743
3.2369419642857142,-0.10516312118253972
3.2703124999999997,-0.08957332286247596
3.3036830357142857,-0.033796355658933505
3.337053571428571,0.06111968624273576
3.370424107142857,0.17663071293952193
3.4037946428571426,0.2834705879951252
3.4371651785714286,0.3527600662585605
3.470535714285714,0.36691784820359874
3.50390625,0.3258796608755918
3.5372767857142855,0.2461595025846706
3.5706473214285714,0.15345663438851143
3.604017857142857,0.07233341764545924
3.637388392857143,0.0175885862439233
3.6707589285714284,-0.009164780294953793
3.7041294642857143,-0.016878507042031192
3.7375,-0.018392129129367656
3.7708705357142858,-0.023306300888304418
3.8042410714285713,-0.033777695958352304
3.837611607142857,-0.04478206846324971
3.8709821428571427,-0.0479740504093098
3.9043526785714286,-0.03651747691267379
3.937723214285714,-0.008089749222827423
3.97109375,0.03526295101892762
4.004464285714286,0.08955144756633232
4.0378348214285715,0.15119573590158258
4.0712053571428575,0.21719180970791974
4.1045758928571425,0.28284471675880946
4.1379464285714285,0.33903764920844115
4.171316964285714,0.3719499119845454
4.2046875,0.3669341286764321
4.238058035714285,0.3154901530490422
4.271428571428571,0.2216786277885824
4.304799107142857,0.10372375290969561
4.338169642857142,-0.011355371656130117
4.371540178571428,-0.09845664019240351
4.404910714285714,-0.1454720999966277
4.43828125,-0.15889403059817697
4.471651785714285,-0.16048174942773122
4.505022321428571,-0.17602856557895902
4.538392857142857,-0.2215425842090932
4.571763392857143,-0.29383937903829377
4.605133928571428,-0.37062326809520746
4.638504464285714,-0.42050934825468644
4.671875,-0.41844391062838143
4.705245535714286,-0.35913751673146393
4.738616071428571,-0.2618459152278318
4.771986607142857,-0.16375756330931396
4.805357142857143,-0.10449614431510505
4.838727678571429,-0.10839843361483813
4.872098214285714,-0.1724364373707231
4.90546875,-0.2654038699938558
4.938839285714286,-0.3392358826115468
4.972209821428572,-0.3480749015444544
5.005580357142857,-0.26718771739416197
5.038950892857143,-0.10368597119087977
5.072321428571429,0.10557688928175404
5.105691964285715,0.3079777103901596
5.1390625,0.4548065646927073
5.172433035714286,0.5181625269795862
5.2058035714285715,0.4982292615259023
5.2391741071428575,0.4188960713593339
5.2725446428571425,0.3151436234693714
5.3059151785714285,0.2189417486559377
5.339285714285714,0.15004000679341753
5.3726562499999995,0.11447009732890998
5.406026785714285,0.10906200862806154
5.439397321428571,0.12742801927732741
5.472767857142857,0.1631507451185959
5.506138392857142,0.20882623114199927
5.539508928571428,0.25310977188766376
5.572879464285714,0.2796790533869652
5.60625,0.27089231549573467
5.639620535714285,0.21555704741960277
5.672991071428571,0.11678805238749014
5.706361607142857,-0.0052503316970462085
5.739732142857143,-0.11882240046333062
5.773102678571428,-0.19302760519572998
5.806473214285714,-0.21163958209881686
5.83984375,-0.1813911678154246
5.873214285714286,-0.1299912602122773
5.906584821428571,-0.09414123355008347
5.939955357142857,-0.10292155167524905
5.973325892857143,-0.16442782995548635
6.006696428571429,-0.26207359498166577
6.040066964285714,-0.3622555948900715
6.0734375,-0.4295258195487288
6.106808035714286,-0.4418799152233334
6.140178571428572,-0.39900240145377885
6.173549107142857,-0.3200616103740248
6.206919642857143,-0.23288932690532857
6.240290178571429,-0.16041811153985974
6.273660714285715,-0.11113052493714254
6.30703125,-0.07773615191000041
6.340401785714286,-0.043817738746995696
6.3737723214285715,0.005813805845959303
6.407142857142857,0.07678196093032476
6.4405133928571425,0.16285791805033895
6.4738839285714285,0.2500492516670144
6.507254464285714,0.32390555270206517
6.5406249999999995,0.37561269861043134
6.573995535714285,0.4039008030683704
6.607366071428571,0.41273745553207725
6.640736607142857,0.4071694005880012
6.674107142857142,0.3901029421881931
6.707477678571428,0.3614095234936403
6.740848214285714,0.31888362734362186
6.77421875,0.2596957316251429
6.807589285714285,0.18147420072860868
6.840959821428571,0.08322899908138845
6.874330357142857,-0.033183981144574756
6.907700892857143,-0.1610041854250277
6.941071428571428,-0.2870875397642732
6.974441964285714,-0.39282072167956306
7.0078125,-0.45845991692622773
7.041183035714286,-0.46994918153687276
7.074553571428571,-0.42532320579682603
7.107924107142857,-0.33727704892230653
7.141294642857143,-0.229977217997479
7.174665178571429,-0.1309868417232385
7.208035714285714,-0.06169015514360541
7.24140625,-0.03037912486303727
7.274776785714286,-0.030820988095921077
7.308147321428572,-0.04650420747232716
7.341517857142857,-0.05830789346581727
7.374888392857143,-0.052201906713189326
7.408258928571429,-0.0240500484586731
7.441629464285715,0.01987314707295453
7.475,0.06631348607956647
7.508370535714286,0.10085827329067674
7.5417410714285715,0.1140991899411556
7.575111607142857,0.10615319722520006
7.6084821428571425,0.08795284639623678
7.6418526785714285,0.07843252865132294
7.675223214285714,0.09789519709683764
7.7085937499999995,0.15934944689020167
7.741964285714285,0.26091364015197976
7.775334821428571,0.3826943835321869
7.808705357142857,0.4903444298553127
7.842075892857142,0.5450082584126974
7.875446428571428,0.51655333662368
7.908816964285714,0.39517481560511514
7.9421875,0.19664414955949366
7.975558035714285,-0.041225140243489396
8.008928571428571,-0.269797977100156
8.042299107142856,-0.44426272055231697
8.075669642857143,-0.5361418888940863
8.109040178571428,-0.5393131108770577
8.142410714285715,-0.46823542043765565
8.17578125,-0.3503622290401338
8.209151785714285,-0.2166134583664452
8.242522321428572,-0.09357499061782205
8.275892857142857,0.0006760474528067738
8.309263392857142,0.05730093239538446
8.342633928571429,0.07543381290452397
8.376004464285714,0.060438195161186245
8.409375,0.02242532759559845
8.442745535714286,-0.025138595620580968
8.47611607142857,-0.06735514490748763
8.509486607142858,-0.09072130873184991
8.542857142857143,-0.08650830603496795
8.576227678571428,-0.05360897676398857
8.609598214285715,0.00046509440917524077
8.64296875,0.06127750762013137
8.676339285714285,0.11167507046584763
8.709709821428572,0.13724784744781476
8.743080357142857,0.13114356230164612
8.776450892857143,0.09645545995212607
8.809821428571428,0.045230866813107055
8.843191964285714,-0.005646639933180689
8.8765625,-0.04031639145655685
8.909933035714285,-0.049487855993219164
8.94330357142857,-0.03365021005576884
8.976674107142857,-0.002680239172573401
9.010044642857142,0.028103725062675732
9.04341517857143,0.04396150061589434
9.076785714285714,0.03639348969657669
9.11015625,0.00608077097913169
9.143526785714286,-0.038061717771061064
9.176897321428571,-0.08305518153427975
9.210267857142856,-0.11708474307915663
9.243638392857143,-0.1332920207317549
9.277008928571428,-0.1306532050529681
9.310379464285715,-0.1121643067100323
9.34375,-0.08190498940987047
9.377120535714285,-0.042820367433907235
9.410491071428572,0.003742648345398026
9.443861607142857,0.05693247710369124
9.477232142857142,0.11477212019862405
9.510602678571429,0.17315400627694044
9.543973214285714,0.22603628642888027
9.57734375,0.2667219478767444
9.610714285714286,0.28964898040937676
9.64408482142857,0.29202179742249407
9.677455357142858,0.2747414367521817
9.710825892857143,0.24230546681945803
9.744196428571428,0.20162252034069425
9.777566964285715,0.1600399205536932
9.8109375,0.12323610557487118
9.844308035714285,0.09376967090405335
9.877678571428572,0.07080852836407653
9.911049107142857,0.05093910077319067
9.944419642857143,0.029366584150344294
9.977790178571428,0.0007652717246875853
10.011160714285714,-0.04031836563434705
10.04453125,-0.09875774415229437
10.077901785714285,-0.17691359072436663
10.11127232142857,-0.27157510818683134
10.144642857142857,-0.37152059576282803
10.178013392857142,-0.45828351496357794
10.21138392857143,-0.5115497839076439
10.244754464285714,-0.5177015891695632
10.278125,-0.4772116114442928
10.311495535714286,-0.40610938146378545
10.344866071428571,-0.32946669406213647
10.378236607142856,-0.26943534451242446
10.411607142857143,-0.2339882953505219
10.444977678571428,-0.21272374971526853
10.478348214285715,-0.18250655719808673
10.51171875,-0.12032043720551812
10.545089285714285,-0.016606812295613803
10.578459821428572,0.1180551529776732
10.611830357142857,0.25655809690650083
10.645200892857142,0.3673002186789675
10.678571428571429,0.42833256576214696
10.711941964285714,0.43633345914388755
10.745312499999999,0.4060961451203642
10.778683035714286,0.3614226205270505
10.81205357142857,0.32282248222388094
10.845424107142858,0.29874099675029425
10.878794642857143,0.28458755154426535
10.912165178571428,0.26919070486045854
10.945535714285715,0.24421766789338245
10.97890625,0.2108003506692813
11.012276785714285,0.17959486660635965
11.045647321428572,0.16441704893218512
11.079017857142857,0.17319647294945256
11.112388392857143,0.20140195409935416
11.145758928571428,0.231707346122339
11.179129464285714,0.24033185202973023
11.2125,0.20699532991464123
11.245870535714285,0.1236020397107791
11.27924107142857,-0.0024552551490696814
11.312611607142857,-0.15155016202287916
11.345982142857142,-0.2993863806598872
11.37935267857143,-0.4246427209757952
11.412723214285714,-0.5130493820117269
11.44609375,-0.5569232175402019
11.479464285714286,-0.5522208298933774
11.512834821428571,-0.4966293722657751
11.546205357142856,-0.3912139318271163
11.579575892857143,-0.24531435188574807
11.612946428571428,-0.08145421493618037
11.646316964285715,0.06419953830830133
11.6796875,0.1488677147418109
11.713058035714285,0.13710396771295547
11.746428571428572,0.01695488353995394
11.779799107142857,-0.18883240113146568
11.813169642857142,-0.42300960668649307
11.846540178571429,-0.607912460570082
11.879910714285714,-0.6701296036662445
11.913281249999999,-0.5672681915097546
11.946651785714286,-0.30614738511545414
11.98002232142857,0.055983200062787036
12.013392857142858,0.42921750539043513
12.046763392857143,0.7216670860443858
12.080133928571428,0.8708548321964141
12.113504464285715,0.8628761331174537
12.146875,0.7317421198652987
12.180245535714285,0.540364534245923
12.213616071428572,0.35281113685351906
12.246986607142857,0.21065630714029537
12.280357142857143,0.12310808804003594
12.313727678571428,0.07310384401996324
12.347098214285714,0.03381384178031691
12.38046875,-0.01415317998740052
12.413839285714285,-0.07341443030334763
12.44720982142857,-0.1316802166581886
12.480580357142857,-0.17193012128504373
12.513950892857142,-0.18405730695575664
12.54732142857143,-0.1712288294448671
12.580691964285714,-0.1478589371855767
12.6140625,-0.13103902517225932
12.647433035714286,-0.1307604651702425
12.680803571428571,-0.14453930004906998
12.714174107142856,-0.15921349609797927
12.747544642857143,-0.15854126385182124
12.780915178571428,-0.132168765727504
12.814285714285713,-0.08114237652031962
12.84765625,-0.0173779962889788
12.881026785714285,0.04211477984080938
12.914397321428572,0.08286570227510952
12.947767857142857,0.09851806872230509
12.981138392857142,0.09195397690192514
13.014508928571429,0.07208861040486786
13.047879464285714,0.04854984781428354
13.081249999999999,0.02718322552361024
13.114620535714286,0.008509143520826379
13.14799107142857,-0.010511632668218215
13.181361607142858,-0.032817069291300814
13.214732142857143,-0.057996836659366884
13.248102678571428,-0.08139992867371712
13.281473214285715,-0.0961485107950361
13.31484375,-0.09694564769596001
13.348214285714285,-0.08350696019680165
13.381584821428572,-0.0615726049773386
13.414955357142857,-0.04072978601277694
13.448325892857143,-0.030030659632770577
13.481696428571428,-0.03365601236536639
13.515066964285714,-0.0489125775640874
13.5484375,-0.06760234432802717
13.581808035714285,-0.07995857577686749
13.61517857142857,-0.07896769860956143
13.648549107142857,-0.06279781823772257
13.681919642857142,-0.03429371140205362
13.71529017857143,0.001685599948207331
13.748660714285714,0.041068102684955345
13.78203125,0.08163303409678385
13.815401785714286,0.12188093598115181
13.848772321428571,0.15893824907945184
13.882142857142856,0.1874654948789812
13.915513392857143,0.20080599633902713
13.948883928571428,0.19395802972815243
13.982254464285713,0.16657994013505842
14.015625,0.12410139824970189
14.048995535714285,0.07615750956762726
14.082366071428572,0.03315565631150183
14.115736607142857,0.002771641988983053
14.149107142857142,-0.012000458075666935
14.182477678571429,-0.012696459119489809
14.215848214285714,-0.0037671005413770953
14.249218749999999,0.00930633721813354
14.282589285714286,0.021266140917403087
14.31595982142857,0.02756883744717137
14.349330357142858,0.02458731072193303
14.382700892857143,0.010035022142221628
14.416071428571428,-0.01633817414853326
14.449441964285715,-0.052227091500264965
14.4828125,-0.09295521417730689
14.516183035714285,-0.13246371712755411
14.549553571428572,-0.16464138043243853
14.582924107142857,-0.18432027216700064
14.616294642857143,-0.18761314043138516
14.649665178571428,-0.17190342501515707
14.683035714285714,-0.13616766052993862
14.71640625,-0.08204125362088235
14.749776785714285,-0.015257395602057145
14.78314732142857,0.05364707514243006
14.816517857142857,0.1105518554586074
14.849888392857142,0.14130222768266118
14.88325892857143,0.13665629582827712
14.916629464285714,0.09656834465532067
14.95,0.031567309124830925
14.983370535714286,-0.03994624017370069
15.016741071428571,-0.09777508234365434
15.050111607142856,-0.12692533921766155
15.083482142857143,-0.12247713702322995
15.116852678571428,-0.09020057976385751
15.150223214285713,-0.04283000806775016
15.18359375,0.005984533185310761
15.216964285714285,0.04696344420029426
15.250334821428572,0.07720015472043282
15.283705357142857,0.09828920131565407
15.317075892857142,0.11224427407982356
15.350446428571429,0.11814373144760916
15.383816964285714,0.1119049502337158
15.417187499999999,0.08947332259842286
15.450558035714286,0.051286797738936914
15.48392857142857,0.004740110175165811
15.517299107142858,-0.03758575082621077
15.550669642857143,-0.0634502463602241
15.584040178571428,-0.0670884869526255
15.617410714285715,-0.05204649854764708
15.65078125,-0.028668689965019246
15.684151785714285,-0.007605699634526233
15.717522321428572,0.006566942366645854
15.750892857142857,0.01742195711972733
15.784263392857143,0.03296799306346594
15.817633928571428,0.05850133919989847
15.851004464285714,0.090787421606564
15.884375,0.11771675746444608
15.917745535714285,0.12424841017397872
15.95111607142857,0.10145730849032585
15.984486607142857,0.0533054188129749
16.017857142857142,-0.0032513092981220904
16.05122767857143,-0.04553074585734952
16.084598214285712,-0.05621704448884891
16.11796875,-0.032374417652948656
16.151339285714286,0.012552401007580311
16.18470982142857,0.054919629366831625
16.218080357142856,0.07202221549314117
16.251450892857143,0.05244411566971175
16.28482142857143,0.0005710739275024237
16.318191964285713,-0.06645237430321063
16.3515625,-0.127096000273642
16.384933035714287,-0.16454757226043862
16.41830357142857,-0.17222649377295945
16.451674107142857,-0.1538373781769259
16.485044642857144,-0.11914756839809511
16.518415178571427,-0.07864937686845645
16.551785714285714,-0.04024400950523185
16.58515625,-0.009276829566807693
16.618526785714284,0.009167563708517104
16.65189732142857,0.008360461194826262
16.685267857142858,-0.019199240734231408
16.71863839285714,-0.07770061765866733
16.752008928571428,-0.16273600342732097
16.785379464285715,-0.2582256142599656
16.81875,-0.33833546144392507
16.852120535714285,-0.37473614005716976
16.88549107142857,-0.3466046711732422
16.91886160714286,-0.24898078475800786
16.95223214285714,-0.09553612459351409
16.98560267857143,0.08564007055969713
17.018973214285715,0.2613312250791059
17.05234375,0.4033947814622523
17.085714285714285,0.49570266637290594
17.119084821428572,0.5357443849933863
17.152455357142856,0.5316246678772466
17.185825892857142,0.4970157950390457
17.21919642857143,0.44659964566210597
17.252566964285712,0.3931079221258773
17.2859375,0.34556125954326067
17.319308035714286,0.30786535190198794
17.35267857142857,0.27768026859425243
17.386049107142856,0.24654156894650983
17.419419642857143,0.2024235472238696
17.45279017857143,0.13482617334868924
17.486160714285713,0.04064406503451748
17.51953125,-0.07220014406909978
17.552901785714287,-0.18605085147850167
